# k  (h/Mpc)    P(k)  (Mpc/h)^3    P_linear(k)  (Mpc/h)^3     P_NL(k)  ShotnoiseSubtracted = false
     0.00783031         14775.4         14856.8         14856.8 
       0.013688         18262.5         18778.8         18778.8 
       0.019231         19022.6         19353.7         19353.7 
      0.0249154         18209.9         18226.5         18226.5 
      0.0312784         15914.5         16147.2         16147.2 
      0.0375637         13764.5           14089           14089 
      0.0433917         12384.5         12533.7         12533.7 
      0.0492413           11134         11374.4         11374.4 
      0.0555754         10301.7         10465.8         10465.8 
      0.0619321         9278.25         9733.94         9733.94 
       0.067871         8765.55         9066.89         9066.89 
      0.0738098         8149.23         8343.41         8343.41 
      0.0800417         7379.11         7527.95         7527.95 
      0.0862327         6583.38         6723.17         6723.17 
      0.0921407         5956.18          6031.1          6031.1 
      0.0982031         5469.29         5447.66         5447.66 
       0.104506         4944.32         4990.54         4990.54 
       0.110769         4639.12         4662.99         4662.99 
       0.116806         4468.09          4422.2          4422.2 
       0.122832         4208.51         4207.85         4207.85 
       0.129052         3969.77         3976.25         3976.25 
       0.135211         3819.26         3720.28         3720.28 
       0.141259         3514.61         3449.31         3449.31 
       0.147318         3240.48         3178.33         3178.33 
       0.153489         3049.99         2925.86         2925.86 
       0.159709         2933.18         2711.99         2711.99 
       0.165845         2696.29          2545.5          2545.5 
       0.171974         2638.01         2416.97         2416.97 
       0.178125         2564.52         2312.59         2312.59 
       0.184229         2370.93         2218.55         2218.55 
        0.19034         2334.72         2122.24         2122.24 
       0.196428         2264.16         2018.62         2018.62 
       0.202534         2124.72            1908            1908 
       0.208729         2076.72         1794.68         1794.68 
       0.214876         1982.93         1688.38         1688.38 
       0.220989         1887.47          1594.4          1594.4 
       0.227147          1839.1         1514.04         1514.04 
        0.23329         1770.77         1447.21         1447.21 
       0.239377         1762.35         1390.66         1390.66 
       0.245482         1683.39         1339.19         1339.19 
       0.251667         1622.16         1288.43         1288.43 
       0.257832          1597.1         1236.74         1236.74 
       0.263955         1526.23         1183.94         1183.94 
       0.270079         1487.87         1130.87         1130.87 
        0.27624         1426.02         1079.17         1079.17 
       0.282372         1410.46         1031.33         1031.33 
        0.28843          1385.2         988.663         988.663 
       0.294538         1324.45          950.43          950.43 
       0.300721         1300.85          915.86          915.86 
        0.30691         1269.76         884.145         884.145 
       0.313033         1223.44         854.313         854.313 
       0.319153         1211.04         825.095         825.095 
       0.325316         1196.22         795.838         795.838 
        0.33145         1170.56             767             767 
       0.337538         1133.63          739.08          739.08 
       0.343633         1107.79         712.386         712.386 
       0.349808         1088.69         687.021         687.021 
       0.355968         1066.89         663.609         663.609 
       0.362074         1036.02         642.127         642.127 
       0.368217         1033.12         621.972         621.972 
       0.374374         1017.76         602.836         602.836 
       0.380519         983.244         584.436         584.436 
       0.386598         978.549         566.729         566.729 
       0.392688         954.523         549.385         549.385 
        0.39888         935.424         532.223         532.223 
       0.405048         917.741         515.737         515.737 
       0.411186         915.084         500.042         500.042 
       0.417313         910.945         485.167         485.167 
       0.423458         883.549         471.061         471.061 
       0.429607         860.271         457.672         457.672 
       0.435692          853.52         445.048         445.048 
       0.441815         837.751          432.86          432.86 
       0.447964         827.858         421.035         421.035 
       0.454126         817.528         409.543         409.543 
       0.460267          807.45         398.443         398.443 
       0.466387         794.244         387.736         387.736 
        0.47254         781.365         377.345         377.345 
       0.478662         771.379         367.406         367.406 
       0.484765         763.107         357.909         357.909 
       0.490885         755.397         348.777         348.777 
       0.497035         741.493          339.96          339.96 
       0.503198         740.506         331.458         331.458 
       0.509342         727.005         323.281         323.281 
       0.515458         712.876         315.407         315.407 
       0.521598         711.056         307.743         307.743 
       0.527764         694.985         300.283         300.283 
       0.533884         688.638         293.116         293.116 
           0.54         683.362         286.193         286.193 
       0.546137         674.007         279.481         279.481 
       0.552299         669.831          272.97          272.97 
       0.558452         662.091          266.69          266.69 
       0.564573         657.435         260.651         260.651 
       0.570708         650.874         254.795         254.795 
       0.576825         637.758          249.14          249.14 
       0.582926         636.331         243.671         243.671 
       0.589034         627.837         238.354         238.354 
       0.595184         621.628         233.158         233.158 
       0.601379         612.229         228.082         228.082 
       0.607522         603.348         223.199         223.199 
       0.613639         602.525         218.485         218.485 
       0.619772         598.136         213.901         213.901 
       0.625918         588.295         209.445         209.445 
       0.632068         585.908         205.116         205.116 
       0.638161         578.399          200.95          200.95 
         0.6443         572.485         196.871         196.871 
       0.650464         567.882         192.891         192.891 
       0.656582         563.498         189.051         189.051 
       0.662703         557.104         185.316         185.316 
       0.668861         551.047         181.661         181.661 
       0.675024          547.99         178.105         178.105 
       0.681124         538.192         174.681         174.681 
       0.687237         538.336         171.341         171.341 
       0.693381         529.388         168.075         168.075 
       0.699536         529.984          164.89          164.89 
       0.705665         522.506         161.802         161.802 
       0.711789           521.4         158.798         158.798 
       0.717957         514.447          155.85          155.85 
        0.72409          510.09         152.994         152.994 
       0.730186         509.388         150.228         150.228 
       0.736317         502.046         147.517         147.517 
       0.742472         496.714         144.863         144.863 
       0.748622         494.909         142.279         142.279 
        0.75476         489.239         139.763         139.763 
       0.760888         486.713         137.314         137.314 
       0.767043         484.034         134.914         134.914 
       0.773185         480.328         132.577         132.577 
       0.779291         475.047          130.31          130.31 
       0.785407         471.442         128.093         128.093 
       0.791564         469.104         125.915         125.915 
       0.797719         462.002         123.788         123.788 
       0.803834         463.404         121.726         121.726 
       0.809972         456.155         119.703         119.703 
       0.816124         452.723         117.722         117.722 
       0.822261         450.254         115.793         115.793 
       0.828378         447.965         113.912         113.912 
       0.834502         441.121         112.073         112.073 
       0.840667         440.806         110.263         110.263 
       0.846816          435.35         108.498         108.498 
       0.852925         435.427         106.784         106.784 
       0.859047         430.877         105.103         105.103 
       0.865192         428.554         103.454         103.454 
       0.871341         423.017         101.839         101.839 
       0.877463         422.051         100.267         100.267 
       0.883569         418.021         98.7321         98.7321 
       0.889708          413.85          97.222          97.222 
       0.895864         409.755         95.7401         95.7401 
       0.902008         409.103         94.2925         94.2925 
       0.908149         405.233         92.8761         92.8761 
       0.914301          403.91         91.4868         91.4868 
       0.920448         399.277         90.1277         90.1277 
       0.926574         397.184         88.8012         88.8012 
       0.932687         396.051         87.5046         87.5046 
       0.938823         391.202         86.2295         86.2295 
       0.944975         390.126         84.9773         84.9773 
       0.951105         386.803         83.7547         83.7547 
       0.957225         381.754         82.5585         82.5585 
       0.963368          382.56          81.382          81.382 
       0.969511         376.439         80.2286         80.2286 
       0.975621         375.253          79.104          79.104 
       0.981748          373.57         77.9984         77.9984 
       0.987916         371.265         76.9072         76.9072 
        0.99406         367.461         75.8411         75.8411 
        1.00019         364.092         74.7976         74.7976 
        1.00632         363.487         73.7749         73.7749 
        1.01246          360.46           72.77           72.77 
        1.01859         356.951         71.7857         71.7857 
        1.02471         355.091         70.8209         70.8209 
        1.03085         353.498         69.8708         69.8708 
        1.03698         351.506         68.9403         68.9403 
        1.04314         349.386          68.023          68.023 
        1.04929         347.534         67.1248         67.1248 
        1.05541         343.242         66.2465         66.2465 
        1.06154         341.719          65.382          65.382 
        1.06769         338.707         64.5317         64.5317 
        1.07382         336.513         63.6995         63.6995 
        1.07993         335.421         62.8841         62.8841 
        1.08607         333.247         62.0796         62.0796 
        1.09222           330.3         61.2886         61.2886 
        1.09836         328.829         60.5124         60.5124 
        1.10449         326.418         59.7507         59.7507 
        1.11063         324.707         59.0014         59.0014 
        1.11677         320.941         58.2654         58.2654 
         1.1229         320.489         57.5433         57.5433 
        1.12903         317.611         56.8329         56.8329 
        1.13518         315.597         56.1341         56.1341 
        1.14131         314.243         55.4476         55.4476 
        1.14745          310.82          54.773          54.773 
        1.15359         308.584         54.1096         54.1096 
        1.15973         307.269         53.4571         53.4571 
        1.16584         305.733         52.8184         52.8184 
        1.17197         303.556         52.1893         52.1893 
        1.17811         300.416         51.5686         51.5686 
        1.18424         299.403           50.96           50.96 
        1.19038         297.809         50.3594         50.3594 
        1.19652         294.538         49.7689         49.7689 
        1.20267         293.939          49.188          49.188 
        1.20881         292.035         48.6165         48.6165 
        1.21495         289.842         48.0551         48.0551 
        1.22108         288.404         47.5028         47.5028 
         1.2272         284.537         46.9605         46.9605 
        1.23334         283.816         46.4255         46.4255 
        1.23949          282.08         45.8977         45.8977 
        1.24562         280.929         45.3796         45.3796 
        1.25174         278.909         44.8704         44.8704 
        1.25789         276.496         44.3675         44.3675 
        1.26402         275.621         43.8733         43.8733 
        1.27014         274.175          43.388          43.388 
        1.27628         271.817         42.9085         42.9085 
        1.28244         269.773         42.4355         42.4355 
        1.28858         268.805         41.9702         41.9702 
        1.29471         267.132         41.5131         41.5131 
        1.30084         266.222         41.0632         41.0632 
        1.30697         263.177         40.6194         40.6194 
        1.31312         261.685         40.1815         40.1815 
        1.31925         260.399         39.7515         39.7515 
        1.32537         259.383         39.3283         39.3283 
        1.33151          256.88         38.9098         38.9098 
        1.33765          254.86         38.4977         38.4977 
        1.34378         253.946         38.0924         38.0924 
        1.34992         251.403         37.6927         37.6927 
        1.35606         250.353         37.2979         37.2979 
         1.3622         248.612         36.9096         36.9096 
        1.36833         247.761         36.5277         36.5277 
        1.37445         246.779         36.1515         36.1515 
        1.38059         243.746         35.7795         35.7795 
        1.38675         242.458         35.4119         35.4119 
        1.39288         241.581         35.0509         35.0509 
        1.39901         239.354         34.6952         34.6952 
        1.40515         238.399         34.3437         34.3437 
         1.4113         236.601         33.9972         33.9972 
        1.41742         234.661         33.6569         33.6569 
        1.42355         234.354         33.3206         33.3206 
         1.4297         232.375         32.9879         32.9879 
        1.43585         230.734           32.66           32.66 
        1.44198         229.282         32.3378         32.3378 
        1.44809         228.245         32.0205         32.0205 
        1.45423         226.832         31.7065         31.7065 
        1.46036         225.784         31.3972         31.3972 
        1.46649         224.229          31.092          31.092 
        1.47263         222.649         30.7906         30.7906 
        1.47877         221.218         30.4934         30.4934 
        1.48491         219.562         30.1996         30.1996 
        1.49104         217.774         29.9104         29.9104 
        1.49718         217.125         29.6248         29.6248 
        1.50333         215.145         29.3426         29.3426 
        1.50947         214.213         29.0646         29.0646 
         1.5156          212.92         28.7906         28.7906 
        1.52172         211.577         28.5202         28.5202 
        1.52787         210.037         28.2528         28.2528 
          1.534         209.689         27.9891         27.9891 
        1.54013         207.737         27.7291         27.7291 
        1.54627         206.671          27.472          27.472 
        1.55241         205.629         27.2181         27.2181 
        1.55855         204.299         26.9678         26.9678 
        1.56467         203.157         26.7213         26.7213 
         1.5708         201.515         26.4773         26.4773 
        1.57695         200.643         26.2359         26.2359 
        1.58308          199.48         25.9982         25.9982 
        1.58922         197.886         25.7632         25.7632 
        1.59535          196.44         25.5313         25.5313 
         1.6015         195.804         25.3019         25.3019 
        1.60764         194.157         25.0754         25.0754 
        1.61376         192.774         24.8524         24.8524 
        1.61989         191.587         24.6319         24.6319 
        1.62604         190.682         24.4136         24.4136 
        1.63218         189.372         24.1982         24.1982 
        1.63831          188.75         23.9858         23.9858 
        1.64444         186.966         23.7759         23.7759 
        1.65059          186.13         23.5681         23.5681 
        1.65673         184.897          23.363          23.363 
        1.66285         183.914         23.1609         23.1609 
        1.66898         182.813         22.9612         22.9612 
        1.67512         181.602         22.7634         22.7634 
        1.68127         180.727         22.5678         22.5678 
         1.6874         179.391          22.375          22.375 
        1.69353         178.781         22.1846         22.1846 
        1.69967         177.251         21.9959         21.9959 
        1.70581         176.638         21.8095         21.8095 
        1.71193         175.286          21.626          21.626 
        1.71806         173.843         21.4442         21.4442 
        1.72421          173.07         21.2642         21.2642 
        1.73035         171.925         21.0865         21.0865 
        1.73649         170.649         20.9108         20.9108 
        1.74262         169.928         20.7373         20.7373 
        1.74876         169.042         20.5657         20.5657 
        1.75489         168.242         20.3964         20.3964 
        1.76101         166.986          20.229          20.229 
        1.76715         165.878         20.0633         20.0633 
        1.77329         164.643         19.8993         19.8993 
        1.77943         163.652          19.737          19.737 
        1.78557         162.785         19.5769         19.5769 
        1.79171           162.1         19.4184         19.4184 
        1.79785         160.854         19.2617         19.2617 
        1.80399         159.962         19.1068         19.1068 
        1.81012         159.363         18.9538         18.9538 
        1.81625         157.785         18.8026         18.8026 
        1.82239         157.286         18.6528         18.6528 
        1.82853         156.296         18.5047         18.5047 
        1.83466         154.834         18.3584         18.3584 
        1.84078         154.394         18.2138         18.2138 
        1.84692         153.568         18.0706         18.0706 
        1.85306         152.327         17.9287         17.9287 
         1.8592           151.8         17.7886         17.7886 
        1.86533         150.267         17.6501         17.6501 
        1.87147         149.491         17.5129         17.5129 
        1.87761         148.841         17.3771         17.3771 
