# k  (h/Mpc)    Pcb(k)  (Mpc/h)^3    Pcb_linear(k) (Mpc/h)^3    Pcb_NL(k) (Mpc/h)^3   ShotnoiseSubtracted = false
     0.00783031         11477.4         11533.8         11533.8 
       0.013688           14234           14580           14580 
       0.019231         14818.5           15027           15027 
      0.0249154           14162         14152.2         14152.2 
      0.0312784         12405.6         12537.9         12537.9 
      0.0375637         10742.5         10939.9         10939.9 
      0.0433917         9657.61         9732.27         9732.27 
      0.0492413          8690.6         8832.18         8832.18 
      0.0555754         8044.37         8126.67         8126.67 
      0.0619321         7268.27         7558.41         7558.41 
       0.067871         6862.61         7040.46         7040.46 
      0.0738098         6367.34         6478.69         6478.69 
      0.0800417         5768.16         5845.49         5845.49 
      0.0862327         5141.73         5220.59         5220.59 
      0.0921407         4641.78         4683.19         4683.19 
      0.0982031         4253.28         4230.15         4230.15 
       0.104506            3846          3875.2          3875.2 
       0.110769         3606.58         3620.86         3620.86 
       0.116806         3473.64         3433.88         3433.88 
       0.122832         3267.63         3267.44         3267.44 
       0.129052          3089.8          3087.6          3087.6 
       0.135211         2960.42         2888.84         2888.84 
       0.141259         2724.45         2678.43         2678.43 
       0.147318         2503.29         2468.01         2468.01 
       0.153489         2349.94         2271.96         2271.96 
       0.159709         2248.24         2105.89         2105.89 
       0.165845         2065.02         1976.61         1976.61 
       0.171974         2022.55         1876.81         1876.81 
       0.178125         1958.78         1795.76         1795.76 
       0.184229         1817.37         1722.73         1722.73 
        0.19034         1783.26         1647.95         1647.95 
       0.196428         1724.29         1567.49         1567.49 
       0.202534         1610.52         1481.59         1481.59 
       0.208729         1573.47         1393.59         1393.59 
       0.214876         1502.03         1311.05         1311.05 
       0.220989         1417.89         1238.07         1238.07 
       0.227147          1383.9         1175.67         1175.67 
        0.23329         1332.88         1123.78         1123.78 
       0.239377         1320.71         1079.87         1079.87 
       0.245482         1258.42          1039.9          1039.9 
       0.251667         1211.79         1000.48         1000.48 
       0.257832         1195.01         960.343         960.343 
       0.263955         1136.29         919.348         919.348 
       0.270079         1102.43         878.134         878.134 
        0.27624         1055.79         837.993         837.993 
       0.282372         1039.35         800.844         800.844 
        0.28843         1026.15          767.71          767.71 
       0.294538           976.6         738.022         738.022 
       0.300721         954.451         711.178         711.178 
        0.30691         935.673          686.55          686.55 
       0.313033         897.705         663.385         663.385 
       0.319153         885.884         640.698         640.698 
       0.325316         873.583          617.98          617.98 
        0.33145         854.807         595.587         595.587 
       0.337538         825.287         573.906         573.906 
       0.343633         803.787         553.178         553.178 
       0.349808         787.002         533.482         533.482 
       0.355968         772.392         515.301         515.301 
       0.362074         747.501         498.622         498.622 
       0.368217         744.771          482.97          482.97 
       0.374374         733.091         468.111         468.111 
       0.380519         705.859         453.823         453.823 
       0.386598         699.882         440.072         440.072 
       0.392688         684.355         426.606         426.606 
        0.39888         667.251         413.279         413.279 
       0.405048         655.532         400.477         400.477 
       0.411186         653.484         388.289         388.289 
       0.417313         648.107          376.74          376.74 
       0.423458         628.436         365.786         365.786 
       0.429607         611.359         355.389         355.389 
       0.435692         604.226         345.586         345.586 
       0.441815         594.089         336.122         336.122 
       0.447964         583.549          326.94          326.94 
       0.454126           576.9         318.016         318.016 
       0.460267         567.911         309.396         309.396 
       0.466387         558.956         301.082         301.082 
        0.47254         550.099         293.014         293.014 
       0.478662         540.343         285.296         285.296 
       0.484765         534.663         277.921         277.921 
       0.490885         529.329          270.83          270.83 
       0.497035         518.827         263.984         263.984 
       0.503198         518.254         257.382         257.382 
       0.509342         507.289         251.032         251.032 
       0.515458         498.132         244.918         244.918 
       0.521598         492.592         238.967         238.967 
       0.527764         483.827         233.174         233.174 
       0.533884         481.048         227.608         227.608 
           0.54         475.244         222.233         222.233 
       0.546137         466.463         217.021         217.021 
       0.552299         465.349         211.965         211.965 
       0.558452         458.249         207.088         207.088 
       0.564573         453.798         202.399         202.399 
       0.570708         449.026         197.852         197.852 
       0.576825         440.365         193.461         193.461 
       0.582926          438.27         189.214         189.214 
       0.589034         431.707         185.086         185.086 
       0.595184         428.481         181.051         181.051 
       0.601379         421.617         177.109         177.109 
       0.607522         414.255         173.317         173.317 
       0.613639         412.824         169.657         169.657 
       0.619772         411.162         166.097         166.097 
       0.625918         403.621         162.637         162.637 
       0.632068         400.456         159.275         159.275 
       0.638161         396.644         156.041         156.041 
         0.6443         392.598         152.873         152.873 
       0.650464         387.746         149.783         149.783 
       0.656582         384.303         146.801         146.801 
       0.662703         381.326           143.9           143.9 
       0.668861         375.667         141.063         141.063 
       0.675024         373.444         138.301         138.301 
       0.681124         368.623         135.642         135.642 
       0.687237         366.502         133.049         133.049 
       0.693381         361.621         130.513         130.513 
       0.699536         359.624         128.039         128.039 
       0.705665         355.566         125.642         125.642 
       0.711789         353.765         123.309         123.309 
       0.717957         349.145         121.019         121.019 
        0.72409         345.376         118.802         118.802 
       0.730186         347.133         116.654         116.654 
       0.736317         340.823         114.549         114.549 
       0.742472         337.522         112.489         112.489 
       0.748622          334.16         110.481         110.481 
        0.75476         333.159         108.528         108.528 
       0.760888         329.605         106.626         106.626 
       0.767043           326.5         104.763         104.763 
       0.773185         324.766         102.948         102.948 
       0.779291         320.042         101.187         101.187 
       0.785407         318.727         99.4661         99.4661 
       0.791564          315.95         97.7745         97.7745 
       0.797719         311.041         96.1235         96.1235 
       0.803834         313.395         94.5216         94.5216 
       0.809972         308.498          92.951          92.951 
       0.816124         304.916         91.4131         91.4131 
       0.822261         302.464         89.9146         89.9146 
       0.828378         301.706         88.4546         88.4546 
       0.834502         297.283         87.0263         87.0263 
       0.840667         297.413         85.6206         85.6206 
       0.846816         292.073         84.2504         84.2504 
       0.852925         292.247         82.9191         82.9191 
       0.859047         289.327         81.6142         81.6142 
       0.865192          288.62         80.3335         80.3335 
       0.871341         284.463         79.0797         79.0797 
       0.877463         282.386         77.8587         77.8587 
       0.883569         281.161         76.6669         76.6669 
       0.889708         278.518         75.4943         75.4943 
       0.895864         276.155         74.3435         74.3435 
       0.902008         274.226         73.2195         73.2195 
       0.908149         272.009         72.1196         72.1196 
       0.914301         270.487         71.0408         71.0408 
       0.920448         269.219         69.9854         69.9854 
       0.926574         266.806         68.9554         68.9554 
       0.932687         265.438         67.9486         67.9486 
       0.938823         262.843         66.9585         66.9585 
       0.944975         261.918         65.9861         65.9861 
       0.951105         259.227         65.0367         65.0367 
       0.957225         256.854         64.1079         64.1079 
       0.963368         256.796         63.1943         63.1943 
       0.969511         252.137         62.2987         62.2987 
       0.975621         251.264         61.4254         61.4254 
       0.981748         250.146         60.5669         60.5669 
       0.987916         248.935         59.7195         59.7195 
        0.99406         246.551         58.8917         58.8917 
        1.00019         244.899         58.0814         58.0814 
        1.00632         244.252         57.2873         57.2873 
        1.01246         242.094          56.507          56.507 
        1.01859          239.45         55.7426         55.7426 
        1.02471         237.741         54.9935         54.9935 
        1.03085         236.733         54.2557         54.2557 
        1.03698         235.332         53.5332         53.5332 
        1.04314         234.808         52.8209         52.8209 
        1.04929         233.049         52.1233         52.1233 
        1.05541         230.959         51.4414         51.4414 
        1.06154         229.158           50.77           50.77 
        1.06769         227.405         50.1098         50.1098 
        1.07382         227.023         49.4636         49.4636 
        1.07993         224.347         48.8304         48.8304 
        1.08607         223.117         48.2057         48.2057 
        1.09222          221.67         47.5915         47.5915 
        1.09836         220.902         46.9888         46.9888 
        1.10449         218.934         46.3973         46.3973 
        1.11063         217.371         45.8155         45.8155 
        1.11677         216.149         45.2439         45.2439 
         1.1229          214.86         44.6832         44.6832 
        1.12903         213.608         44.1316         44.1316 
        1.13518         211.975          43.589          43.589 
        1.14131         211.143         43.0558         43.0558 
        1.14745         208.822          42.532          42.532 
        1.15359         207.218         42.0169         42.0169 
        1.15973         206.874         41.5102         41.5102 
        1.16584         205.801         41.0142         41.0142 
        1.17197          204.35         40.5257         40.5257 
        1.17811         202.568         40.0438         40.0438 
        1.18424         201.471         39.5711         39.5711 
        1.19038         200.298         39.1048         39.1048 
        1.19652         198.245         38.6463         38.6463 
        1.20267          197.59         38.1952         38.1952 
        1.20881         196.037         37.7514         37.7514 
        1.21495         195.758         37.3155         37.3155 
        1.22108         194.175         36.8866         36.8866 
         1.2272         192.398         36.4655         36.4655 
        1.23334         191.678         36.0501         36.0501 
        1.23949         190.898         35.6402         35.6402 
        1.24562         189.386         35.2379         35.2379 
        1.25174         188.209         34.8425         34.8425 
        1.25789          186.59          34.452          34.452 
        1.26402         186.413         34.0683         34.0683 
        1.27014         185.427         33.6914         33.6914 
        1.27628         183.347         33.3191         33.3191 
        1.28244         182.576         32.9518         32.9518 
        1.28858         181.364         32.5905         32.5905 
        1.29471         180.469         32.2355         32.2355 
        1.30084         179.251         31.8862         31.8862 
        1.30697         177.884         31.5415         31.5415 
        1.31312         176.889         31.2015         31.2015 
        1.31925         175.801         30.8676         30.8676 
        1.32537         175.173          30.539          30.539 
        1.33151         173.972          30.214          30.214 
        1.33765         172.456          29.894          29.894 
        1.34378         172.032         29.5793         29.5793 
        1.34992         170.885         29.2689         29.2689 
        1.35606         169.841         28.9624         28.9624 
         1.3622         169.156         28.6608         28.6608 
        1.36833          167.31         28.3643         28.3643 
        1.37445         167.317         28.0722         28.0722 
        1.38059         165.697         27.7833         27.7833 
        1.38675         164.766         27.4978         27.4978 
        1.39288         163.601         27.2175         27.2175 
        1.39901         162.745         26.9413         26.9413 
        1.40515         162.104         26.6684         26.6684 
         1.4113         160.819         26.3993         26.3993 
        1.41742         159.577          26.135          26.135 
        1.42355         159.713         25.8739         25.8739 
         1.4297         158.065         25.6156         25.6156 
        1.43585         157.318         25.3609         25.3609 
        1.44198           155.7         25.1107         25.1107 
        1.44809         155.118         24.8644         24.8644 
        1.45423         154.478         24.6205         24.6205 
        1.46036         153.398         24.3804         24.3804 
        1.46649         152.429         24.1433         24.1433 
        1.47263         151.887         23.9093         23.9093 
        1.47877          150.58         23.6785         23.6785 
        1.48491         149.665         23.4505         23.4505 
        1.49104         148.139         23.2259         23.2259 
        1.49718          147.99         23.0041         23.0041 
        1.50333         147.209         22.7849         22.7849 
        1.50947           146.2         22.5691         22.5691 
         1.5156         145.102         22.3563         22.3563 
        1.52172          144.56         22.1464         22.1464 
        1.52787         143.727         21.9387         21.9387 
          1.534         142.822         21.7339         21.7339 
        1.54013         142.022         21.5321         21.5321 
        1.54627         141.063         21.3324         21.3324 
        1.55241         140.553         21.1352         21.1352 
        1.55855          139.81         20.9409         20.9409 
        1.56467         138.736         20.7495         20.7495 
         1.5708         137.615           20.56           20.56 
        1.57695         137.182         20.3726         20.3726 
        1.58308         136.198          20.188          20.188 
        1.58922         135.854         20.0055         20.0055 
        1.59535         134.926         19.8254         19.8254 
         1.6015         133.774         19.6473         19.6473 
        1.60764         133.005         19.4714         19.4714 
        1.61376         132.267         19.2982         19.2982 
        1.61989         131.663          19.127          19.127 
        1.62604         130.702         18.9575         18.9575 
        1.63218         130.127         18.7902         18.7902 
        1.63831         129.235         18.6253         18.6253 
        1.64444         128.429         18.4624         18.4624 
        1.65059         127.706          18.301          18.301 
        1.65673         127.246         18.1417         18.1417 
        1.66285         126.729         17.9848         17.9848 
        1.66898          125.56         17.8297         17.8297 
        1.67512         124.966         17.6761         17.6761 
        1.68127         124.274         17.5243         17.5243 
         1.6874         123.264         17.3745         17.3745 
        1.69353         122.875         17.2266         17.2266 
        1.69967          121.92         17.0801         17.0801 
        1.70581         121.611         16.9354         16.9354 
        1.71193         120.615         16.7929         16.7929 
        1.71806         119.719         16.6518         16.6518 
        1.72421         119.269          16.512          16.512 
        1.73035         118.599          16.374          16.374 
        1.73649         117.646         16.2376         16.2376 
        1.74262         117.371         16.1028         16.1028 
        1.74876         116.403         15.9696         15.9696 
        1.75489         115.937         15.8381         15.8381 
        1.76101         115.208         15.7081         15.7081 
        1.76715          114.24         15.5795         15.5795 
        1.77329         113.866         15.4521         15.4521 
        1.77943         112.972         15.3261         15.3261 
        1.78557         112.615         15.2017         15.2017 
        1.79171          112.02         15.0787         15.0787 
        1.79785         110.951          14.957          14.957 
        1.80399         110.691         14.8367         14.8367 
        1.81012         109.645         14.7179         14.7179 
        1.81625          109.36         14.6005         14.6005 
        1.82239         108.702         14.4842         14.4842 
        1.82853         108.129         14.3692         14.3692 
        1.83466         107.253         14.2556         14.2556 
        1.84078         106.912         14.1433         14.1433 
        1.84692         106.565         14.0321         14.0321 
        1.85306         105.665         13.9219         13.9219 
         1.8592         105.241         13.8131         13.8131 
        1.86533         104.357         13.7055         13.7055 
        1.87147         104.069          13.599          13.599 
