# k  (h/Mpc)    Pcb(k)  (Mpc/h)^3    Pcb_linear(k) (Mpc/h)^3    Pcb_NL(k) (Mpc/h)^3   ShotnoiseSubtracted = false
     0.00783031         948.404         955.179         955.179 
       0.013688         1195.81         1208.35         1208.35 
       0.019231         1240.37         1245.78         1245.78 
      0.0249154          1173.8         1173.46         1173.46 
      0.0312784         1038.74         1039.72         1039.72 
      0.0375637         905.088         907.269         907.269 
      0.0433917         808.471         807.154         807.154 
      0.0492413         731.661         732.528         732.528 
      0.0555754         675.379         674.031         674.031 
      0.0619321         622.203         626.911         626.911 
       0.067871         582.678         583.959         583.959 
      0.0738098         536.921          537.37          537.37 
      0.0800417         485.629         484.854         484.854 
      0.0862327         432.989         433.025         433.025 
      0.0921407         388.328         388.452         388.452 
      0.0982031         352.172         350.876         350.876 
       0.104506         320.638         321.436         321.436 
       0.110769         299.816          300.34          300.34 
       0.116806             286         284.832         284.832 
       0.122832         270.567         271.027         271.027 
       0.129052          256.53          256.11          256.11 
       0.135211         240.961         239.624         239.624 
       0.141259          222.67         222.171         222.171 
       0.147318         204.328         204.717         204.717 
       0.153489         189.033         188.456         188.456 
       0.159709         176.038         174.681         174.681 
       0.165845         163.671         163.957         163.957 
       0.171974         157.345         155.679         155.679 
       0.178125         150.444         148.956         148.956 
       0.184229         143.399         142.899         142.899 
        0.19034           138.2         136.695         136.695 
       0.196428         131.432         130.022         130.022 
       0.202534         123.113         122.896         122.896 
       0.208729         117.044         115.597         115.597 
       0.214876         110.961         108.751         108.751 
       0.220989         103.561         102.697         102.697 
       0.227147         99.7878         97.5213         97.5213 
        0.23329         95.6031         93.2168         93.2168 
       0.239377          92.156         89.5743         89.5743 
       0.245482         88.4211         86.2591         86.2591 
       0.251667         84.6818         82.9892         82.9892 
       0.257832         82.1976         79.6599         79.6599 
       0.263955         78.1348         76.2595         76.2595 
       0.270079         74.7491         72.8407         72.8407 
        0.27624         71.0832         69.5111         69.5111 
       0.282372         68.2118         66.4297         66.4297 
        0.28843         66.3106         63.6812         63.6812 
       0.294538         63.5933         61.2186         61.2186 
       0.300721         60.9137         58.9919         58.9919 
        0.30691         59.4116          56.949          56.949 
       0.313033         57.2292         55.0276         55.0276 
       0.319153         55.9579         53.1456         53.1456 
       0.325316         53.3064         51.2612         51.2612 
        0.33145          51.436         49.4037         49.4037 
       0.337538         49.7784         47.6053         47.6053 
       0.343633         48.2055         45.8859         45.8859 
       0.349808         46.4765         44.2522         44.2522 
       0.355968         44.8937         42.7441         42.7441 
       0.362074         43.8361         41.3606         41.3606 
       0.368217         42.4831         40.0622         40.0622 
       0.374374          41.547         38.8297         38.8297 
       0.380519         39.8818         37.6445         37.6445 
       0.386598         38.6514         36.5038         36.5038 
       0.392688         37.4526         35.3869         35.3869 
        0.39888         36.5829         34.2814         34.2814 
       0.405048         35.5922         33.2195         33.2195 
       0.411186         34.5224         32.2085         32.2085 
       0.417313         33.5353         31.2505         31.2505 
       0.423458         32.4842         30.3419         30.3419 
       0.429607         31.8715         29.4795         29.4795 
       0.435692         31.1955         28.6663         28.6663 
       0.441815         30.0864         27.8813         27.8813 
       0.447964          29.142         27.1196         27.1196 
       0.454126         28.6134         26.3793         26.3793 
       0.460267         28.1743         25.6644         25.6644 
       0.466387         27.3269         24.9747         24.9747 
        0.47254         26.8019         24.3054         24.3054 
       0.478662         26.0026         23.6653         23.6653 
       0.484765            25.4         23.0535         23.0535 
       0.490885         24.6715         22.4653         22.4653 
       0.497035         24.1109         21.8974         21.8974 
       0.503198         23.6093         21.3498         21.3498 
       0.509342         22.9445         20.8231         20.8231 
       0.515458         22.5873         20.3159         20.3159 
       0.521598         22.0608         19.8223         19.8223 
       0.527764         21.7138         19.3418         19.3418 
       0.533884         21.0679         18.8801         18.8801 
           0.54         20.6587         18.4342         18.4342 
       0.546137         20.0476         18.0019         18.0019 
       0.552299          19.692         17.5825         17.5825 
       0.558452         19.2608          17.178          17.178 
       0.564573         18.9636          16.789          16.789 
       0.570708         18.5173         16.4118         16.4118 
       0.576825         18.1854         16.0475         16.0475 
       0.582926         17.8008         15.6953         15.6953 
       0.589034         17.4643         15.3528         15.3528 
       0.595184         17.2092         15.0182         15.0182 
       0.601379         16.7386         14.6911         14.6911 
       0.607522         16.4402         14.3767         14.3767 
       0.613639         16.0837          14.073          14.073 
       0.619772          15.832         13.7778         13.7778 
       0.625918           15.49         13.4907         13.4907 
       0.632068          15.301         13.2119         13.2119 
       0.638161         14.9721         12.9436         12.9436 
         0.6443          14.693         12.6808         12.6808 
       0.650464         14.3399         12.4245         12.4245 
       0.656582         14.2149         12.1771         12.1771 
       0.662703         13.9952         11.9365         11.9365 
       0.668861         13.6141         11.7011         11.7011 
       0.675024         13.4019          11.472          11.472 
       0.681124         13.3406         11.2515         11.2515 
       0.687237         13.0374         11.0364         11.0364 
       0.693381         12.7084          10.826          10.826 
       0.699536         12.6205         10.6209         10.6209 
       0.705665         12.3769          10.422          10.422 
       0.711789         12.1184         10.2284         10.2284 
       0.717957         11.8695         10.0386         10.0386 
        0.72409         11.7501         9.85463         9.85463 
       0.730186          11.646         9.67648         9.67648 
       0.736317         11.3821         9.50184         9.50184 
       0.742472         11.2344         9.33092         9.33092 
       0.748622         11.0514         9.16444         9.16444 
        0.75476         10.7702         9.00243         9.00243 
       0.760888         10.6876         8.84463         8.84463 
       0.767043         10.4563         8.69005         8.69005 
       0.773185         10.3223         8.53954         8.53954 
       0.779291         10.2587          8.3935          8.3935 
       0.785407         10.0468         8.25071         8.25071 
       0.791564         9.91697         8.11039         8.11039 
       0.797719         9.72283         7.97345         7.97345 
       0.803834         9.63243         7.84057         7.84057 
       0.809972         9.45092         7.71029         7.71029 
       0.816124          9.3268         7.58272         7.58272 
       0.822261         9.20509         7.45842         7.45842 
       0.828378         9.06507         7.33731         7.33731 
       0.834502         8.95194         7.21883         7.21883 
       0.840667         8.85562         7.10223         7.10223 
       0.846816          8.6743         6.98857         6.98857 
       0.852925         8.57925         6.87814         6.87814 
       0.859047         8.46312          6.7699          6.7699 
       0.865192         8.33718         6.66366         6.66366 
       0.871341         8.21503         6.55966         6.55966 
       0.877463         8.10843         6.45838         6.45838 
       0.883569         8.02215         6.35952         6.35952 
       0.889708         7.89893         6.26225         6.26225 
       0.895864         7.79478          6.1668          6.1668 
       0.902008         7.67615         6.07356         6.07356 
       0.908149         7.57571         5.98232         5.98232 
       0.914301         7.50596         5.89284         5.89284 
       0.920448         7.40039         5.80529         5.80529 
       0.926574         7.34656         5.71985         5.71985 
       0.932687         7.21802         5.63634         5.63634 
       0.938823         7.10309         5.55421         5.55421 
       0.944975         7.04755         5.47355         5.47355 
       0.951105           6.926          5.3948          5.3948 
       0.957225          6.8769         5.31775         5.31775 
       0.963368         6.79181         5.24197         5.24197 
       0.969511          6.7078         5.16768         5.16768 
       0.975621         6.61618         5.09524         5.09524 
       0.981748         6.50308         5.02403         5.02403 
       0.987916         6.44557         4.95374         4.95374 
        0.99406         6.39761         4.88507         4.88507 
        1.00019         6.32285         4.81786         4.81786 
        1.00632         6.25707         4.75198         4.75198 
        1.01246         6.16693         4.68726         4.68726 
        1.01859         6.09138         4.62385         4.62385 
        1.02471          5.9985         4.56171         4.56171 
        1.03085         5.96656         4.50051         4.50051 
        1.03698         5.89463         4.44058         4.44058 
        1.04314         5.82936         4.38149         4.38149 
        1.04929          5.7416         4.32363         4.32363 
        1.05541         5.68475         4.26706         4.26706 
        1.06154         5.63368         4.21138         4.21138 
        1.06769         5.59902         4.15661         4.15661 
        1.07382         5.49811         4.10301         4.10301 
        1.07993         5.43259         4.05048         4.05048 
        1.08607         5.39921         3.99867         3.99867 
        1.09222         5.31887         3.94772         3.94772 
        1.09836         5.30717         3.89772         3.89772 
        1.10449          5.1897         3.84866         3.84866 
        1.11063         5.16464          3.8004          3.8004 
        1.11677         5.11285         3.75299         3.75299 
         1.1229         5.05644         3.70647         3.70647 
        1.12903         5.01728         3.66072         3.66072 
        1.13518         4.93838         3.61571         3.61571 
        1.14131         4.88906         3.57148         3.57148 
        1.14745         4.82946         3.52803         3.52803 
        1.15359          4.7885         3.48531         3.48531 
        1.15973         4.73586         3.44328         3.44328 
        1.16584         4.69564         3.40213         3.40213 
        1.17197         4.64107         3.36161         3.36161 
        1.17811          4.5928         3.32164         3.32164 
        1.18424         4.54782         3.28243         3.28243 
        1.19038         4.50658         3.24375         3.24375 
        1.19652         4.47094         3.20571         3.20571 
        1.20267          4.4294         3.16829         3.16829 
        1.20881         4.37749         3.13148         3.13148 
        1.21495         4.33829         3.09532         3.09532 
        1.22108         4.29819         3.05975         3.05975 
         1.2272         4.24118         3.02482         3.02482 
        1.23334         4.23013         2.99036         2.99036 
        1.23949         4.17432         2.95636         2.95636 
        1.24562          4.1387         2.92299         2.92299 
        1.25174          4.1085         2.89019         2.89019 
        1.25789         4.04649          2.8578          2.8578 
        1.26402         4.01634         2.82597         2.82597 
        1.27014         3.98148          2.7947          2.7947 
        1.27628         3.93835         2.76382         2.76382 
        1.28244         3.91304         2.73335         2.73335 
        1.28858         3.88291         2.70339         2.70339 
        1.29471         3.82706         2.67394         2.67394 
        1.30084         3.79444         2.64496         2.64496 
        1.30697          3.7715         2.61637         2.61637 
        1.31312         3.73644         2.58817         2.58817 
        1.31925         3.70091         2.56047         2.56047 
        1.32537         3.67342         2.53321         2.53321 
        1.33151         3.63359         2.50626         2.50626 
        1.33765         3.60438         2.47971         2.47971 
        1.34378          3.5819          2.4536          2.4536 
        1.34992         3.54766         2.42786         2.42786 
        1.35606         3.51808         2.40243         2.40243 
         1.3622         3.48843         2.37742         2.37742 
        1.36833         3.44905         2.35282         2.35282 
        1.37445         3.41595         2.32859         2.32859 
        1.38059         3.38962         2.30463         2.30463 
        1.38675         3.36227         2.28095         2.28095 
        1.39288         3.34357          2.2577          2.2577 
        1.39901         3.30156         2.23479         2.23479 
        1.40515         3.27715         2.21214         2.21214 
         1.4113         3.25569         2.18983         2.18983 
        1.41742         3.22157          2.1679          2.1679 
        1.42355          3.1942         2.14624         2.14624 
         1.4297         3.17621         2.12482         2.12482 
        1.43585         3.14856         2.10369         2.10369 
        1.44198         3.12047         2.08294         2.08294 
        1.44809         3.10209         2.06251         2.06251 
        1.45423         3.07469         2.04228         2.04228 
        1.46036         3.05178         2.02235         2.02235 
        1.46649         3.01509         2.00269         2.00269 
        1.47263         3.00561         1.98328         1.98328 
        1.47877         2.98239         1.96414         1.96414 
        1.48491          2.9516         1.94522         1.94522 
        1.49104         2.93063         1.92659         1.92659 
        1.49718         2.90951          1.9082          1.9082 
        1.50333         2.88417         1.89001         1.89001 
        1.50947         2.85874         1.87211         1.87211 
         1.5156         2.84082         1.85446         1.85446 
        1.52172         2.82103         1.83704         1.83704 
        1.52787         2.79911         1.81982         1.81982 
          1.534         2.77791         1.80283         1.80283 
        1.54013         2.75452         1.78609         1.78609 
        1.54627         2.73416         1.76953         1.76953 
        1.55241         2.70911         1.75317         1.75317 
        1.55855         2.69452         1.73705         1.73705 
        1.56467         2.67545         1.72117         1.72117 
         1.5708         2.65298         1.70545         1.70545 
        1.57695         2.62724         1.68991         1.68991 
        1.58308         2.60673         1.67459         1.67459 
        1.58922         2.59904         1.65946         1.65946 
        1.59535         2.57165         1.64452         1.64452 
         1.6015         2.55063         1.62974         1.62974 
        1.60764          2.5384         1.61516         1.61516 
        1.61376         2.51455         1.60079         1.60079 
        1.61989         2.49576         1.58659         1.58659 
        1.62604          2.4762         1.57253         1.57253 
        1.63218         2.46618         1.55865         1.55865 
        1.63831         2.45071         1.54497         1.54497 
        1.64444         2.42939         1.53146         1.53146 
        1.65059         2.41686         1.51807         1.51807 
        1.65673         2.39188         1.50486         1.50486 
        1.66285         2.37582         1.49184         1.49184 
        1.66898         2.36129         1.47898         1.47898 
        1.67512         2.34004         1.46624         1.46624 
        1.68127          2.3234         1.45364         1.45364 
         1.6874         2.31766         1.44122         1.44122 
        1.69353         2.28992         1.42895         1.42895 
        1.69967         2.27807          1.4168          1.4168 
        1.70581         2.26767          1.4048          1.4048 
        1.71193         2.24123         1.39298         1.39298 
        1.71806         2.23027         1.38127         1.38127 
        1.72421         2.21856         1.36967         1.36967 
        1.73035         2.19799         1.35822         1.35822 
        1.73649         2.18973         1.34691         1.34691 
        1.74262         2.17315         1.33573         1.33573 
        1.74876         2.15797         1.32468         1.32468 
        1.75489         2.14393         1.31377         1.31377 
        1.76101         2.12574         1.30299         1.30299 
        1.76715         2.11744         1.29232         1.29232 
        1.77329         2.09913         1.28175         1.28175 
        1.77943         2.08715          1.2713          1.2713 
        1.78557         2.07425         1.26098         1.26098 
        1.79171         2.06328         1.25078         1.25078 
        1.79785         2.04819         1.24069         1.24069 
        1.80399         2.03421         1.23071         1.23071 
        1.81012         2.01928         1.22086         1.22086 
        1.81625         2.00346         1.21111         1.21111 
        1.82239          1.9944         1.20146         1.20146 
        1.82853         1.98056         1.19193         1.19193 
        1.83466         1.96338          1.1825          1.1825 
        1.84078         1.95321         1.17319         1.17319 
        1.84692         1.94154         1.16396         1.16396 
        1.85306         1.93182         1.15483         1.15483 
         1.8592         1.91717          1.1458          1.1458 
        1.86533         1.90593         1.13688         1.13688 
        1.87147          1.8939         1.12804         1.12804 
