# k  (h/Mpc)    P(k)  (Mpc/h)^3    P_linear(k)  (Mpc/h)^3     P_NL(k)  ShotnoiseSubtracted = false
     0.00783031         12107.9         12166.6         12166.6 
       0.013688         15004.6         15379.5         15379.5 
       0.019231         15622.7         15850.9         15850.9 
      0.0249154         14936.2           14928           14928 
      0.0312784           13077         13225.2         13225.2 
      0.0375637         11320.8         11539.5         11539.5 
      0.0433917         10179.5         10265.7         10265.7 
      0.0492413         9158.18         9316.26         9316.26 
      0.0555754         8476.55         8572.08         8572.08 
      0.0619321         7653.04         7972.66         7972.66 
       0.067871         7227.06         7426.32         7426.32 
      0.0738098         6708.32         6833.76         6833.76 
      0.0800417         6076.58         6165.86         6165.86 
      0.0862327         5417.52          5506.7          5506.7 
      0.0921407         4893.03         4939.85         4939.85 
      0.0982031         4485.65         4461.98         4461.98 
       0.104506         4055.76         4087.58         4087.58 
       0.110769         3803.72          3819.3          3819.3 
       0.116806         3663.69         3622.07         3622.07 
       0.122832         3447.19         3446.51         3446.51 
       0.129052         3257.91         3256.82         3256.82 
       0.135211         3124.42         3047.16         3047.16 
       0.141259         2875.23         2825.21         2825.21 
       0.147318         2643.62         2603.27         2603.27 
       0.153489         2483.19         2396.47         2396.47 
       0.159709         2378.58          2221.3          2221.3 
       0.165845          2184.9         2084.93         2084.93 
       0.171974         2139.75         1979.66         1979.66 
       0.178125         2074.01         1894.17         1894.17 
       0.184229         1922.51         1817.14         1817.14 
        0.19034         1887.98         1738.26         1738.26 
       0.196428         1826.78         1653.39         1653.39 
       0.202534         1707.79         1562.78         1562.78 
       0.208729         1668.96         1469.96         1469.96 
       0.214876         1593.18          1382.9          1382.9 
       0.220989         1506.67         1305.92         1305.92 
       0.227147         1470.02          1240.1          1240.1 
        0.23329         1415.74         1185.37         1185.37 
       0.239377         1404.39         1139.05         1139.05 
       0.245482         1338.77         1096.89         1096.89 
       0.251667          1289.4         1055.31         1055.31 
       0.257832         1271.11         1012.97         1012.97 
       0.263955         1209.98          969.73          969.73 
       0.270079         1175.14         926.257         926.257 
        0.27624         1125.64         883.917         883.917 
       0.282372         1109.34         844.734         844.734 
        0.28843         1094.06         809.783         809.783 
       0.294538          1042.1         778.468         778.468 
       0.300721         1019.68         750.152         750.152 
        0.30691         998.719         724.175         724.175 
       0.313033          958.93         699.741         699.741 
       0.319153         946.964          675.81          675.81 
       0.325316         934.397         651.846         651.846 
        0.33145         914.379         628.226         628.226 
       0.337538         883.263         605.357         605.357 
       0.343633         860.955         583.493         583.493 
       0.349808         843.623         562.718         562.718 
       0.355968         827.829         543.542         543.542 
       0.362074         801.449         525.947         525.947 
       0.368217         798.796         509.438         509.438 
       0.374374         786.665         493.764         493.764 
       0.380519         757.888         478.693         478.693 
       0.386598         752.101          464.19          464.19 
       0.392688         735.124         449.985         449.985 
        0.39888         717.341         435.928         435.928 
       0.405048         704.575         422.424         422.424 
       0.411186         702.562         409.569         409.569 
       0.417313         697.572         397.386         397.386 
       0.423458         676.252         385.832         385.832 
       0.429607         657.806         374.865         374.865 
       0.435692         650.873         364.525         364.525 
       0.441815         639.649         354.542         354.542 
       0.447964         629.194         344.857         344.857 
       0.454126         621.929         335.444         335.444 
       0.460267         612.575         326.352         326.352 
       0.466387         602.893         317.582         317.582 
        0.47254         593.184         309.071         309.071 
       0.478662         583.481         300.931         300.931 
       0.484765         577.332         293.152         293.152 
       0.490885         571.542         285.672         285.672 
       0.497035         560.312         278.451         278.451 
       0.503198         559.696         271.487         271.487 
       0.509342         548.426         264.789         264.789 
       0.515458         538.174          258.34          258.34 
       0.521598         533.251         252.063         252.063 
       0.527764         523.064         245.952         245.952 
       0.533884         519.709         240.082         240.082 
           0.54         513.966         234.412         234.412 
       0.546137         505.056         228.914         228.914 
       0.552299         503.534         223.581         223.581 
       0.558452         496.208         218.437         218.437 
       0.564573         491.534         213.491         213.491 
       0.570708         486.664         208.694         208.694 
       0.576825         477.109         204.063         204.063 
       0.582926         475.216         199.583         199.583 
       0.589034         468.115         195.229         195.229 
       0.595184         464.413         190.973         190.973 
       0.601379         457.081         186.815         186.815 
       0.607522         449.319         182.816         182.816 
       0.613639         448.031         178.954         178.954 
       0.619772         446.046           175.2           175.2 
       0.625918         437.737          171.55          171.55 
       0.632068         434.954         168.004         168.004 
       0.638161         430.545         164.592         164.592 
         0.6443          426.01         161.251         161.251 
       0.650464         421.215         157.991         157.991 
       0.656582         417.613         154.846         154.846 
       0.662703         414.066         151.786         151.786 
       0.668861         408.319         148.793         148.793 
       0.675024         405.834          145.88          145.88 
       0.681124         400.168         143.076         143.076 
       0.687237         398.412          140.34          140.34 
       0.693381         392.817         137.665         137.665 
       0.699536         391.193         135.056         135.056 
       0.705665          386.56         132.527         132.527 
       0.711789         385.034         130.066         130.066 
       0.717957         379.783         127.652         127.652 
        0.72409         375.847         125.313         125.313 
       0.730186         377.398         123.047         123.047 
       0.736317         370.688         120.827         120.827 
       0.742472         367.234         118.653         118.653 
       0.748622         364.049         116.536         116.536 
        0.75476         362.231         114.476         114.476 
       0.760888         358.803         112.469         112.469 
       0.767043         355.753         110.504         110.504 
       0.773185         353.738          108.59          108.59 
       0.779291          348.87         106.733         106.733 
       0.785407         347.148         104.917         104.917 
       0.791564         344.417         103.133         103.133 
       0.797719         339.098         101.391         101.391 
       0.803834         341.448         99.7017         99.7017 
       0.809972         335.925          98.045          98.045 
       0.816124         332.388         96.4228         96.4228 
       0.822261         329.888         94.8421         94.8421 
       0.828378         328.741         93.3022         93.3022 
       0.834502         323.911         91.7955         91.7955 
       0.840667          324.09         90.3128         90.3128 
       0.846816         318.407         88.8675         88.8675 
       0.852925         318.839         87.4633         87.4633 
       0.859047         315.703         86.0869         86.0869 
       0.865192         314.659         84.7359         84.7359 
       0.871341         310.129         83.4134         83.4134 
       0.877463         308.121         82.1255         82.1255 
       0.883569         306.347         80.8685         80.8685 
       0.889708         303.528         79.6316         79.6316 
       0.895864         300.869         78.4177         78.4177 
       0.902008         299.198         77.2321         77.2321 
       0.908149         296.676         76.0719         76.0719 
       0.914301         295.116         74.9341         74.9341 
       0.920448          293.35         73.8208         73.8208 
       0.926574         291.005         72.7343         72.7343 
       0.932687         289.577         71.6723         71.6723 
       0.938823         286.529          70.628          70.628 
       0.944975         285.707         69.6023         69.6023 
       0.951105         282.853         68.6009         68.6009 
       0.957225           279.9         67.6212         67.6212 
       0.963368         280.192         66.6575         66.6575 
       0.969511         274.904         65.7128         65.7128 
       0.975621         274.247         64.7917         64.7917 
       0.981748         273.013         63.8861         63.8861 
       0.987916         271.572         62.9923         62.9923 
        0.99406         268.929         62.1192         62.1192 
        1.00019         266.947         61.2645         61.2645 
        1.00632         266.463         60.4268         60.4268 
        1.01246         264.105         59.6037         59.6037 
        1.01859          261.06         58.7974         58.7974 
        1.02471         259.333         58.0073         58.0073 
        1.03085          258.37          57.229          57.229 
        1.03698         256.882         56.4669         56.4669 
        1.04314         256.168         55.7156         55.7156 
        1.04929         254.288         54.9798         54.9798 
        1.05541         251.755         54.2605         54.2605 
        1.06154         250.015         53.5524         53.5524 
        1.06769         247.951         52.8559         52.8559 
        1.07382         247.425         52.1743         52.1743 
        1.07993         244.771         51.5064         51.5064 
        1.08607         243.387         50.8475         50.8475 
        1.09222          241.73         50.1996         50.1996 
        1.09836         240.961         49.5639         49.5639 
        1.10449         238.966           48.94           48.94 
        1.11063         237.129         48.3263         48.3263 
        1.11677         235.486         47.7234         47.7234 
         1.1229         234.511          47.132          47.132 
        1.12903         232.866         46.5501         46.5501 
        1.13518         231.132         45.9777         45.9777 
        1.14131         230.366         45.4154         45.4154 
        1.14745         227.639         44.8629         44.8629 
        1.15359         226.014         44.3196         44.3196 
        1.15973         225.518         43.7851         43.7851 
        1.16584         224.307         43.2619         43.2619 
        1.17197         222.742         42.7467         42.7467 
        1.17811          220.84         42.2383         42.2383 
        1.18424          219.59         41.7397         41.7397 
        1.19038         218.472         41.2479         41.2479 
        1.19652         215.956         40.7642         40.7642 
        1.20267         215.479         40.2884         40.2884 
        1.20881          213.73         39.8203         39.8203 
        1.21495         213.376         39.3605         39.3605 
        1.22108         211.697         38.9081         38.9081 
         1.2272         209.565         38.4639         38.4639 
        1.23334          208.87         38.0257         38.0257 
        1.23949         207.927         37.5934         37.5934 
        1.24562         206.333         37.1691         37.1691 
        1.25174         205.072          36.752          36.752 
        1.25789         203.258         36.3401         36.3401 
        1.26402          203.05         35.9353         35.9353 
        1.27014         202.068         35.5378         35.5378 
        1.27628         199.854         35.1451         35.1451 
        1.28244         198.898         34.7576         34.7576 
        1.28858         197.592         34.3766         34.3766 
        1.29471          196.65         34.0021         34.0021 
        1.30084         195.397         33.6336         33.6336 
        1.30697         193.708         33.2701         33.2701 
        1.31312         192.687         32.9114         32.9114 
        1.31925         191.541         32.5593         32.5593 
        1.32537         190.896         32.2126         32.2126 
        1.33151         189.508         31.8698         31.8698 
        1.33765         187.962         31.5323         31.5323 
        1.34378         187.251         31.2003         31.2003 
        1.34992         185.922         30.8729         30.8729 
        1.35606          184.91         30.5496         30.5496 
         1.3622         183.977         30.2315         30.2315 
        1.36833          182.19         29.9187         29.9187 
        1.37445         182.207         29.6106         29.6106 
        1.38059         180.305         29.3059         29.3059 
        1.38675         179.202         29.0048         29.0048 
        1.39288         178.076         28.7091         28.7091 
        1.39901         177.045         28.4178         28.4178 
        1.40515         176.415         28.1299         28.1299 
         1.4113         174.942         27.8461         27.8461 
        1.41742         173.527         27.5673         27.5673 
        1.42355         173.772         27.2919         27.2919 
         1.4297         171.991         27.0194         27.0194 
        1.43585         171.216         26.7508         26.7508 
        1.44198         169.443         26.4869         26.4869 
        1.44809         168.866         26.2271         26.2271 
        1.45423         167.972         25.9698         25.9698 
        1.46036         166.937         25.7165         25.7165 
        1.46649         165.869         25.4665         25.4665 
        1.47263          165.31         25.2196         25.2196 
        1.47877         163.915         24.9762         24.9762 
        1.48491         162.681         24.7356         24.7356 
        1.49104         161.228         24.4987         24.4987 
        1.49718         160.913         24.2648         24.2648 
        1.50333          159.84         24.0336         24.0336 
        1.50947         158.917         23.8059         23.8059 
         1.5156         157.772         23.5815         23.5815 
        1.52172         157.186           23.36           23.36 
        1.52787         156.249          23.141          23.141 
          1.534         155.234          22.925          22.925 
        1.54013         154.326         22.7121         22.7121 
        1.54627         153.369         22.5015         22.5015 
        1.55241         152.745         22.2935         22.2935 
        1.55855         152.025         22.0885         22.0885 
        1.56467         150.815         21.8866         21.8866 
         1.5708         149.584         21.6867         21.6867 
        1.57695         149.063          21.489          21.489 
        1.58308         147.982         21.2943         21.2943 
        1.58922         147.409         21.1019         21.1019 
        1.59535         146.292         20.9119         20.9119 
         1.6015         145.404          20.724          20.724 
        1.60764         144.516         20.5385         20.5385 
        1.61376         143.557         20.3558         20.3558 
        1.61989         142.927         20.1752         20.1752 
        1.62604         141.836         19.9965         19.9965 
        1.63218         141.224           19.82           19.82 
        1.63831         140.297          19.646          19.646 
        1.64444         139.383         19.4741         19.4741 
        1.65059         138.683         19.3039         19.3039 
        1.65673         137.937         19.1359         19.1359 
        1.66285         137.456         18.9704         18.9704 
        1.66898         136.277         18.8068         18.8068 
        1.67512         135.527         18.6448         18.6448 
        1.68127         134.826         18.4846         18.4846 
         1.6874         133.808         18.3267         18.3267 
        1.69353         133.461         18.1707         18.1707 
        1.69967         132.267         18.0162         18.0162 
        1.70581         131.903         17.8635         17.8635 
        1.71193         130.832         17.7132         17.7132 
        1.71806         129.721         17.5643         17.5643 
        1.72421         129.389         17.4169         17.4169 
        1.73035         128.586         17.2713         17.2713 
        1.73649         127.549         17.1274         17.1274 
        1.74262         127.256         16.9853         16.9853 
        1.74876         126.296         16.8447         16.8447 
        1.75489         125.703          16.706          16.706 
        1.76101         124.804          16.569          16.569 
        1.76715         123.848         16.4333         16.4333 
        1.77329         123.403         16.2989         16.2989 
        1.77943         122.437          16.166          16.166 
        1.78557         122.046         16.0348         16.0348 
        1.79171         121.342          15.905          15.905 
        1.79785         120.262         15.7767         15.7767 
        1.80399         119.825         15.6498         15.6498 
        1.81012          118.78         15.5245         15.5245 
        1.81625         118.485         15.4006         15.4006 
        1.82239         117.698         15.2779         15.2779 
        1.82853         117.068         15.1566         15.1566 
        1.83466         116.158         15.0368         15.0368 
        1.84078         115.775         14.9184         14.9184 
        1.84692         115.386         14.8011         14.8011 
        1.85306         114.379         14.6849         14.6849 
         1.8592         113.882         14.5701         14.5701 
        1.86533         112.915         14.4566         14.4566 
        1.87147         112.638         14.3443         14.3443 
        1.87761         111.602          14.233          14.233 
