#  k  (h/Mpc)          P(k)  (Mpc/h)^3     P_linear(k)   P_NL(k) (Mpc/h)^3
     0.00783031         24676.7         25076.2         25076.2 
       0.013688           29563         29184.8         29184.8 
       0.019231         28239.7         28140.7         28140.7 
      0.0249154           24231         24840.2         24840.2 
      0.0312784           20327           20576           20576 
      0.0375637         17051.8         16996.2         16996.2 
      0.0433917         14348.6         14597.4         14597.4 
      0.0492413         12925.9         12989.3         12989.3 
      0.0555754         11444.4         11836.9         11836.9 
      0.0619321         10976.4         10928.1         10928.1 
       0.067871         9770.05         10055.7         10055.7 
      0.0738098          8847.4         9068.03         9068.03 
      0.0800417          7712.2         7953.36         7953.36 
      0.0862327         6837.38         6892.59         6892.59 
      0.0921407         6183.11          6035.5          6035.5 
      0.0982031         5491.74         5370.56         5370.56 
       0.104506         5193.81         4901.19         4901.19 
       0.110769         4838.03         4597.84         4597.84 
       0.116806         4598.98         4379.89         4379.89 
       0.122832         4363.05         4164.29         4164.29 
       0.129052         4002.37         3898.83         3898.83 
       0.135211         3733.69         3586.83         3586.83 
       0.141259         3534.28         3258.52         3258.52 
       0.147318         3297.72         2945.62         2945.62 
       0.153489         3004.82         2675.59         2675.59 
       0.159709         2841.84         2468.26         2468.26 
       0.165845         2751.07         2323.19         2323.19 
       0.171974         2622.49         2219.42         2219.42 
       0.178125         2498.83         2133.13         2133.13 
       0.184229         2375.18          2044.7          2044.7 
        0.19034         2258.21         1941.74         1941.74 
       0.196428         2189.38         1824.19         1824.19 
       0.202534         2088.12         1699.39         1699.39 
       0.208729         1985.72         1577.64         1577.64 
       0.214876         1914.02         1471.76         1471.76 
       0.220989         1841.87         1386.09         1386.09 
       0.227147         1774.99         1318.81         1318.81 
        0.23329         1706.11         1265.58         1265.58 
       0.239377          1680.2          1219.6          1219.6 
       0.245482         1579.97         1173.87         1173.87 
       0.251667         1568.16         1124.11         1124.11 
       0.257832         1501.65         1070.41         1070.41 
       0.263955         1447.59         1015.12         1015.12 
       0.270079          1397.5         961.298         961.298 
        0.27624         1376.36         911.781         911.781 
       0.282372         1321.16         868.943         868.943 
        0.28843         1316.71         833.025         833.025 
       0.294538         1251.73         801.939         801.939 
       0.300721         1239.69         773.686         773.686 
        0.30691         1196.84         746.514         746.514 
       0.313033         1169.95         719.379         719.379 
       0.319153         1153.15         691.508         691.508 
       0.325316         1115.44         663.161         663.161 
        0.33145         1090.95         635.545         635.545 
       0.337538         1065.42         609.698         609.698 
       0.343633         1047.08         586.023         586.023 
       0.349808         1011.38         564.443         564.443 
       0.355968         1002.18         545.059         545.059 
       0.362074         993.633         527.342         527.342 
       0.368217         959.804         510.426         510.426 
       0.374374         927.435         493.844         493.844 
       0.380519          928.95         477.432         477.432 
       0.386598         898.732          461.38          461.38 
       0.392688          894.04         445.647         445.647 
        0.39888         868.252         430.315         430.315 
       0.405048           860.2         415.934         415.934 
       0.411186         847.296         402.567         402.567 
       0.417313         829.626         390.152         390.152 
       0.423458         812.237         378.471         378.471 
       0.429607         805.277         367.334         367.334 
       0.435692          787.02         356.706         356.706 
       0.441815         777.854         346.302         346.302 
       0.447964         763.834         336.084         336.084 
       0.454126         758.628         326.118         326.118 
       0.460267         738.397         316.539         316.539 
       0.466387             728           307.4           307.4 
        0.47254         728.762         298.637         298.637 
       0.478662         715.699         290.354         290.354 
       0.484765         695.783         282.503         282.503 
       0.490885         690.765          274.97          274.97 
       0.497035         676.469         267.672         267.672 
       0.503198         671.703         260.591         260.591 
       0.509342         665.013         253.748         253.748 
       0.515458         660.806         247.145         247.145 
       0.521598         643.529         240.722         240.722 
       0.527764         634.837          234.49          234.49 
       0.533884         629.625         228.535         228.535 
           0.54         624.569         222.822         222.822 
       0.546137         616.269         217.317         217.317 
       0.552299         609.869         211.993         211.993 
       0.558452         603.094          206.86          206.86 
       0.564573         597.109         201.915         201.915 
       0.570708          589.18         197.112         197.112 
       0.576825          576.55         192.473         192.473 
       0.582926         577.156         187.991         187.991 
       0.589034         569.651         183.643         183.643 
       0.595184         564.776         179.403         179.403 
       0.601379         556.278         175.269         175.269 
       0.607522          548.83         171.303         171.303 
       0.613639          545.94         167.481         167.481 
       0.619772         538.525         163.773         163.773 
       0.625918         534.195         160.174         160.174 
       0.632068           526.6         156.684         156.684 
       0.638161          522.81         153.327         153.327 
         0.6443         516.506         150.043         150.043 
       0.650464         513.809         146.839         146.839 
       0.656582         506.581         143.751         143.751 
       0.662703          505.71         140.749         140.749 
       0.668861         498.501         137.817         137.817 
       0.675024         493.547         134.967         134.967 
       0.681124          489.37         132.229         132.229 
       0.687237         486.543         129.563         129.563 
       0.693381         478.893         126.959         126.959 
       0.699536         471.335         124.424         124.424 
       0.705665           470.6         121.969         121.969 
       0.711789         467.943         119.583         119.583 
       0.717957         463.587         117.244         117.244 
        0.72409         461.245          114.98          114.98 
       0.730186         454.747          112.79          112.79 
       0.736317         452.139         110.644         110.644 
       0.742472         447.498         108.547         108.547 
       0.748622         443.375         106.506         106.506 
        0.75476         436.875         104.522         104.522 
       0.760888         433.271         102.591         102.591 
       0.767043         432.723         100.702         100.702 
       0.773185         428.709         98.8652         98.8652 
       0.779291         424.151         97.0845         97.0845 
       0.785407         420.883         95.3453         95.3453 
       0.791564         417.049          93.638          93.638 
       0.797719         415.275         91.9736         91.9736 
       0.803834         408.746         90.3603         90.3603 
       0.809972         408.341         88.7801         88.7801 
       0.816124         406.549         87.2343         87.2343 
       0.822261         401.442         85.7295         85.7295 
       0.828378         399.129         84.2649         84.2649 
       0.834502         393.993         82.8334         82.8334 
       0.840667         391.115          81.426          81.426 
       0.846816         389.372         80.0553         80.0553 
       0.852925         387.036         78.7249         78.7249 
       0.859047         384.264         77.4221         77.4221 
       0.865192         379.293         76.1446         76.1446 
       0.871341         376.439         74.8952         74.8952 
       0.877463         375.944         73.6795         73.6795 
       0.883569         371.785          72.494          72.494 
       0.889708         369.946         71.3286         71.3286 
       0.895864         369.429         70.1859         70.1859 
       0.902008         365.545         69.0707         69.0707 
       0.908149         359.895         67.9804         67.9804 
       0.914301           358.6          66.912          66.912 
       0.920448         356.643         65.8676         65.8676 
       0.926574         352.193         64.8493         64.8493 
       0.932687          350.56         63.8546         63.8546 
       0.938823         347.081         62.8773         62.8773 
       0.944975         346.818         61.9182         61.9182 
       0.951105         343.613         60.9826         60.9826 
       0.957225         341.291         60.0679         60.0679 
       0.963368         336.855         59.1689         59.1689 
       0.969511         335.827         58.2883         58.2883 
       0.975621         334.121         57.4304         57.4304 
       0.981748         331.048         56.5876         56.5876 
       0.987916         329.486         55.7564         55.7564 
        0.99406         325.887         54.9451         54.9451 
        1.00019         323.693         54.1515         54.1515 
        1.00632         322.272         53.3744         53.3744 
        1.01246         319.422         52.6113         52.6113 
        1.01859         318.242         51.8644         51.8644 
        1.02471         314.816          51.133          51.133 
        1.03085         313.391         50.4131         50.4131 
        1.03698         310.919         49.7086         49.7086 
        1.04314           309.4         49.0146         49.0146 
        1.04929         306.753         48.3354         48.3354 
        1.05541         305.996         47.6719         47.6719 
        1.06154         301.647         47.0192         47.0192 
        1.06769         300.975         46.3777         46.3777 
        1.07382         298.223         45.7503         45.7503 
        1.07993         296.907          45.136          45.136 
        1.08607         295.594         44.5304         44.5304 
        1.09222         292.229         43.9354         43.9354 
        1.09836         289.598         43.3519         43.3519 
        1.10449         288.245         42.7798         42.7798 
        1.11063         284.876         42.2173         42.2173 
        1.11677         285.165         41.6652         41.6652 
         1.1229         282.141         41.1239         41.1239 
        1.12903          280.79         40.5917         40.5917 
        1.13518         278.458         40.0686         40.0686 
        1.14131         276.811         39.5549         39.5549 
        1.14745         275.037         39.0506         39.0506 
        1.15359         273.316         38.5549         38.5549 
        1.15973         271.806         38.0677         38.0677 
        1.16584         269.338          37.591          37.591 
        1.17197         268.686         37.1219         37.1219 
        1.17811         266.291         36.6593         36.6593 
        1.18424         264.023          36.206          36.206 
        1.19038         262.785          35.759          35.759 
        1.19652         260.805         35.3198         35.3198 
        1.20267         260.609         34.8879         34.8879 
        1.20881         257.568         34.4633         34.4633 
        1.21495         256.279         34.0464         34.0464 
        1.22108         254.171         33.6365         33.6365 
         1.2272         252.728         33.2343         33.2343 
        1.23334         252.181         32.8378         32.8378 
        1.23949         248.709         32.4467         32.4467 
        1.24562         247.441         32.0631         32.0631 
        1.25174          246.75         31.6863         31.6863 
        1.25789         244.664         31.3144         31.3144 
        1.26402         242.932         30.9491         30.9491 
        1.27014         241.517         30.5905         30.5905 
        1.27628         239.037         30.2365         30.2365 
        1.28244         239.169         29.8874         29.8874 
        1.28858         236.906         29.5443         29.5443 
        1.29471         236.172         29.2074         29.2074 
        1.30084         233.614          28.876          28.876 
        1.30697         232.893         28.5493         28.5493 
        1.31312         230.535         28.2271         28.2271 
        1.31925         229.255         27.9109         27.9109 
        1.32537         228.605         27.5999         27.5999 
        1.33151         226.434         27.2925         27.2925 
        1.33765          224.32           26.99           26.99 
        1.34378         223.971         26.6927         26.6927 
        1.34992         222.816         26.3996         26.3996 
        1.35606         221.258         26.1103         26.1103 
         1.3622          218.77         25.8258         25.8258 
        1.36833         218.336         25.5462         25.5462 
        1.37445         216.431         25.2709         25.2709 
        1.38059         215.348         24.9989         24.9989 
        1.38675         214.124         24.7302         24.7302 
        1.39288         212.824         24.4665         24.4665 
        1.39901         210.846         24.2067         24.2067 
        1.40515         210.329         23.9502         23.9502 
         1.4113         208.519         23.6974         23.6974 
        1.41742         207.278         23.4493         23.4493 
        1.42355         205.838         23.2043         23.2043 
         1.4297         204.521          22.962          22.962 
        1.43585         203.219         22.7232         22.7232 
        1.44198         203.228         22.4888         22.4888 
        1.44809         200.886         22.2581         22.2581 
        1.45423         199.738         22.0298         22.0298 
        1.46036         198.259         21.8051         21.8051 
        1.46649          197.62         21.5835         21.5835 
        1.47263          196.36         21.3647         21.3647 
        1.47877         195.093         21.1491         21.1491 
        1.48491         193.153         20.9361         20.9361 
        1.49104         192.528         20.7264         20.7264 
        1.49718         190.558         20.5195         20.5195 
        1.50333         190.023         20.3151         20.3151 
        1.50947         188.464         20.1138         20.1138 
         1.5156         187.429         19.9156         19.9156 
        1.52172         186.714           19.72           19.72 
        1.52787         184.916         19.5267         19.5267 
          1.534         184.426         19.3362         19.3362 
        1.54013         182.748         19.1484         19.1484 
        1.54627         181.979         18.9628         18.9628 
        1.55241         180.705         18.7796         18.7796 
        1.55855         178.978         18.5991         18.5991 
        1.56467         178.712         18.4214         18.4214 
         1.5708         177.075         18.2456         18.2456 
        1.57695         176.454         18.0718         18.0718 
        1.58308         174.984         17.9006         17.9006 
        1.58922         173.935         17.7315         17.7315 
        1.59535         172.856         17.5647         17.5647 
         1.6015          171.36         17.3998         17.3998 
        1.60764         171.134         17.2371         17.2371 
        1.61376         169.722         17.0769         17.0769 
        1.61989         168.771         16.9186         16.9186 
        1.62604         167.642          16.762          16.762 
        1.63218         166.891         16.6074         16.6074 
        1.63831         165.242         16.4551         16.4551 
        1.64444         164.685         16.3047         16.3047 
        1.65059         163.584         16.1558         16.1558 
        1.65673         162.833         16.0089         16.0089 
        1.66285         161.497         15.8643         15.8643 
        1.66898         160.737         15.7214         15.7214 
        1.67512         159.506         15.5799         15.5799 
        1.68127         158.534         15.4401         15.4401 
         1.6874         158.075         15.3023         15.3023 
        1.69353         156.673         15.1662         15.1662 
        1.69967         155.685         15.0315         15.0315 
        1.70581         154.672         14.8985         14.8985 
        1.71193         153.381         14.7676         14.7676 
        1.71806         153.005          14.638          14.638 
        1.72421         151.922         14.5096         14.5096 
        1.73035         151.387          14.383          14.383 
        1.73649         150.208         14.2579         14.2579 
        1.74262         149.397         14.1344         14.1344 
        1.74876         147.965         14.0122         14.0122 
        1.75489         147.391         13.8918         13.8918 
        1.76101         146.429         13.7728         13.7728 
        1.76715         145.653          13.655          13.655 
        1.77329         144.599         13.5384         13.5384 
        1.77943         143.879         13.4232         13.4232 
        1.78557         143.113         13.3095         13.3095 
        1.79171         142.061          13.197          13.197 
        1.79785         141.127         13.0858         13.0858 
        1.80399         140.255          12.976          12.976 
        1.81012         139.753         12.8675         12.8675 
        1.81625         138.788         12.7603         12.7603 
        1.82239         137.827         12.6542         12.6542 
        1.82853         136.903         12.5493         12.5493 
        1.83466         136.484         12.4457         12.4457 
        1.84078         135.322         12.3434         12.3434 
        1.84692         134.365         12.2421         12.2421 
        1.85306         134.252         12.1418         12.1418 
         1.8592         133.117         12.0427         12.0427 
        1.86533         132.634         11.9448         11.9448 
        1.87147         131.547         11.8479         11.8479 
        1.87761         130.695         11.7521         11.7521 
