#  k  (h/Mpc)          P(k)  (Mpc/h)^3     P_linear(k)   P_NL(k) (Mpc/h)^3
     0.00783031         2556.22         2584.41         2584.41 
       0.013688         3012.42         3009.45         3009.45 
       0.019231         2906.51         2902.53         2902.53 
      0.0249154         2545.37         2562.49         2562.49 
      0.0312784         2122.34         2122.81         2122.81 
      0.0375637         1761.49          1753.6          1753.6 
      0.0433917         1504.07         1506.17         1506.17 
      0.0492413         1342.46         1340.29         1340.29 
      0.0555754         1213.83          1221.4          1221.4 
      0.0619321         1134.48         1127.64         1127.64 
       0.067871         1033.12         1037.64         1037.64 
      0.0738098         931.393          935.73          935.73 
      0.0800417         814.893         820.714         820.714 
      0.0862327         710.473         711.257         711.257 
      0.0921407         625.878         622.818         622.818 
      0.0982031         554.712         554.203         554.203 
       0.104506         512.314          505.77          505.77 
       0.110769         479.172         474.467         474.467 
       0.116806         453.285         451.978         451.978 
       0.122832         433.024          429.73          429.73 
       0.129052         402.297         402.337         402.337 
       0.135211         370.757         370.143         370.143 
       0.141259         340.133         336.263         336.263 
       0.147318         309.831         303.973         303.973 
       0.153489         280.747         276.106         276.106 
       0.159709         260.254         254.712         254.712 
       0.165845         247.302         239.742         239.742 
       0.171974         233.862         229.033         229.033 
       0.178125         225.113         220.129         220.129 
       0.184229         216.292         211.003         211.003 
        0.19034         202.608         200.377         200.377 
       0.196428         193.011         188.248         188.248 
       0.202534         182.405         175.371         175.371 
       0.208729         169.037         162.807         162.807 
       0.214876         157.288         151.879         151.879 
       0.220989         150.135         143.038         143.038 
       0.227147         141.622         136.096         136.096 
        0.23329         135.999         130.604         130.604 
       0.239377         131.737         125.857         125.857 
       0.245482         125.066         121.139         121.139 
       0.251667         121.479         116.005         116.005 
       0.257832         116.082         110.461         110.461 
       0.263955          110.37         104.757         104.757 
       0.270079         105.059         99.2025         99.2025 
        0.27624         101.147         94.0919         94.0919 
       0.282372         96.7262          89.673          89.673 
        0.28843         92.4512         85.9641         85.9641 
       0.294538         88.7901         82.7581         82.7581 
       0.300721         86.6794         79.8408         79.8408 
        0.30691         82.9332         77.0388         77.0388 
       0.313033          80.125         74.2361         74.2361 
       0.319153         76.1763         71.3621         71.3621 
       0.325316         74.5628         68.4351         68.4351 
        0.33145         71.2852         65.5869         65.5869 
       0.337538         69.0883         62.9179         62.9179 
       0.343633         66.3439         60.4762         60.4762 
       0.349808         64.2088         58.2484         58.2484 
       0.355968         62.3682         56.2481         56.2481 
       0.362074          60.317         54.4206         54.4206 
       0.368217         58.3875         52.6734         52.6734 
       0.374374         56.5326         50.9636         50.9636 
       0.380519         54.9988         49.2693         49.2693 
       0.386598         53.3229         47.6124         47.6124 
       0.392688         52.0065           45.99           45.99 
        0.39888         50.2817         44.4067         44.4067 
       0.405048          48.888         42.9226         42.9226 
       0.411186         47.5661         41.5444         41.5444 
       0.417313         45.9951         40.2619         40.2619 
       0.423458         44.7283         39.0566         39.0566 
       0.429607         43.4652         37.9084         37.9084 
       0.435692         42.0781         36.8109         36.8109 
       0.441815         41.2835         35.7365         35.7365 
       0.447964         40.4449         34.6831         34.6831 
       0.454126         38.7216         33.6548         33.6548 
       0.460267         37.9957         32.6653         32.6653 
       0.466387         36.8331         31.7222         31.7222 
        0.47254         36.1401          30.819          30.819 
       0.478662         35.4437          29.964          29.964 
       0.484765         34.3358         29.1529         29.1529 
       0.490885         33.5288         28.3756         28.3756 
       0.497035         32.9986         27.6232         27.6232 
       0.503198         32.0638         26.8927         26.8927 
       0.509342         31.2162         26.1859         26.1859 
       0.515458         30.4767          25.504          25.504 
       0.521598         29.9061         24.8415         24.8415 
       0.527764         29.2174          24.199          24.199 
       0.533884         28.6794         23.5846         23.5846 
           0.54         27.9742         22.9944         22.9944 
       0.546137         27.4895         22.4258         22.4258 
       0.552299         26.9804         21.8765         21.8765 
       0.558452         26.1282         21.3474         21.3474 
       0.564573         25.6997         20.8376         20.8376 
       0.570708         25.2279         20.3419         20.3419 
       0.576825         24.5846         19.8627         19.8627 
       0.582926         24.0692         19.3996         19.3996 
       0.589034          23.401         18.9508         18.9508 
       0.595184         23.0729         18.5134         18.5134 
       0.601379         22.5797         18.0873         18.0873 
       0.607522         22.1353         17.6784         17.6784 
       0.613639         21.8764         17.2841         17.2841 
       0.619772         21.2862         16.9013         16.9013 
       0.625918         21.1168         16.5295         16.5295 
       0.632068         20.7547         16.1689         16.1689 
       0.638161         20.2574         15.8224         15.8224 
         0.6443         19.8355         15.4834         15.4834 
       0.650464         19.4392         15.1531         15.1531 
       0.656582         19.2864         14.8346         14.8346 
       0.662703          18.889         14.5251         14.5251 
       0.668861         18.5067         14.2227         14.2227 
       0.675024         18.1429         13.9286         13.9286 
       0.681124         17.8186         13.6459         13.6459 
       0.687237         17.4811         13.3707         13.3707 
       0.693381         17.2852         13.1019         13.1019 
       0.699536         16.8298         12.8401         12.8401 
       0.705665         16.7194         12.5866         12.5866 
       0.711789         16.3282         12.3403         12.3403 
       0.717957          16.074         12.0989         12.0989 
        0.72409         15.8166         11.8654         11.8654 
       0.730186         15.5794         11.6394         11.6394 
       0.736317         15.3799          11.418          11.418 
       0.742472         15.0976         11.2016         11.2016 
       0.748622          14.907         10.9911         10.9911 
        0.75476         14.6026         10.7864         10.7864 
       0.760888         14.3753         10.5872         10.5872 
       0.767043         14.1814         10.3923         10.3923 
       0.773185         13.9031         10.2027         10.2027 
       0.779291         13.7985         10.0189         10.0189 
       0.785407         13.6195         9.83944         9.83944 
       0.791564         13.3542         9.66324         9.66324 
       0.797719         13.0374         9.49145         9.49145 
       0.803834              13         9.32495         9.32495 
       0.809972         12.8548         9.16187         9.16187 
       0.816124         12.5366         9.00234         9.00234 
       0.822261         12.3849         8.84705         8.84705 
       0.828378           12.25          8.6959          8.6959 
       0.834502         12.1144         8.54817         8.54817 
       0.840667         11.9101         8.40292         8.40292 
       0.846816         11.6791         8.26147         8.26147 
       0.852925         11.5597         8.12418         8.12418 
       0.859047         11.4109         7.98974         7.98974 
       0.865192         11.2851          7.8579          7.8579 
       0.871341         11.1606         7.72896         7.72896 
       0.877463         10.9558         7.60351         7.60351 
       0.883569         10.7916         7.48117         7.48117 
       0.889708         10.6042          7.3609          7.3609 
       0.895864         10.5055         7.24298         7.24298 
       0.902008          10.415         7.12789         7.12789 
       0.908149         10.2864         7.01538         7.01538 
       0.914301         10.1822         6.90513         6.90513 
       0.920448         9.98197         6.79735         6.79735 
       0.926574         9.87529         6.69225         6.69225 
       0.932687         9.74805          6.5896          6.5896 
       0.938823         9.61237         6.48875         6.48875 
       0.944975         9.48429         6.38977         6.38977 
       0.951105         9.38526         6.29322         6.29322 
       0.957225          9.2983         6.19883         6.19883 
       0.963368         9.18528         6.10606         6.10606 
       0.969511         9.08677         6.01519         6.01519 
       0.975621         8.98514         5.92665         5.92665 
       0.981748         8.85447         5.83967         5.83967 
       0.987916         8.77704         5.75389         5.75389 
        0.99406         8.64525         5.67016         5.67016 
        1.00019         8.50413         5.58827         5.58827 
        1.00632          8.4669         5.50806         5.50806 
        1.01246         8.36991         5.42932         5.42932 
        1.01859         8.22647         5.35224         5.35224 
        1.02471         8.17424         5.27676         5.27676 
        1.03085         8.08128         5.20247         5.20247 
        1.03698         7.94142         5.12977         5.12977 
        1.04314         7.89028         5.05816         5.05816 
        1.04929         7.78086         4.98807         4.98807 
        1.05541         7.67727          4.9196          4.9196 
        1.06154         7.62086         4.85224         4.85224 
        1.06769         7.57026         4.78605         4.78605 
        1.07382         7.45854         4.72131         4.72131 
        1.07993         7.37776         4.65791         4.65791 
        1.08607         7.30436         4.59542         4.59542 
        1.09222         7.23357         4.53401         4.53401 
        1.09836          7.1368          4.4738          4.4738 
        1.10449         7.07547         4.41475         4.41475 
        1.11063         6.98438          4.3567          4.3567 
        1.11677           6.943         4.29973         4.29973 
         1.1229         6.88505         4.24386         4.24386 
        1.12903         6.78853         4.18895         4.18895 
        1.13518         6.69946         4.13496         4.13496 
        1.14131         6.64642         4.08195         4.08195 
        1.14745         6.57562          4.0299          4.0299 
        1.15359          6.5264         3.97875         3.97875 
        1.15973          6.4514         3.92847         3.92847 
        1.16584         6.35253         3.87928         3.87928 
        1.17197         6.31029         3.83087         3.83087 
        1.17811         6.26914         3.78313         3.78313 
        1.18424          6.1995         3.73634         3.73634 
        1.19038         6.16248         3.69022         3.69022 
        1.19652         6.08483         3.64488         3.64488 
        1.20267         6.01729         3.60031         3.60031 
        1.20881         5.98998          3.5565          3.5565 
        1.21495          5.9308         3.51348         3.51348 
        1.22108         5.85031         3.47118         3.47118 
         1.2272         5.80208         3.42968         3.42968 
        1.23334         5.73719         3.38876         3.38876 
        1.23949         5.67967         3.34841         3.34841 
        1.24562          5.6444         3.30882         3.30882 
        1.25174         5.59697         3.26994         3.26994 
        1.25789          5.5437         3.23156         3.23156 
        1.26402         5.51358         3.19386         3.19386 
        1.27014         5.45296         3.15686         3.15686 
        1.27628         5.38204         3.12033         3.12033 
        1.28244         5.32492          3.0843          3.0843 
        1.28858         5.31846          3.0489          3.0489 
        1.29471         5.24989         3.01413         3.01413 
        1.30084          5.1907         2.97993         2.97993 
        1.30697         5.17751         2.94621         2.94621 
        1.31312           5.089         2.91296         2.91296 
        1.31925         5.04822         2.88033         2.88033 
        1.32537          5.0103         2.84824         2.84824 
        1.33151         4.98886         2.81652         2.81652 
        1.33765          4.9271         2.78529         2.78529 
        1.34378           4.886         2.75461         2.75461 
        1.34992         4.84869         2.72436         2.72436 
        1.35606         4.80441         2.69451         2.69451 
         1.3622         4.77318         2.66515         2.66515 
        1.36833         4.71788          2.6363          2.6363 
        1.37445         4.68632         2.60789         2.60789 
        1.38059         4.66284         2.57981         2.57981 
        1.38675          4.6149         2.55208         2.55208 
        1.39288         4.58941         2.52487         2.52487 
        1.39901          4.5288         2.49806         2.49806 
        1.40515         4.50356         2.47159         2.47159 
         1.4113         4.46352          2.4455          2.4455 
        1.41742           4.428          2.4199          2.4199 
        1.42355         4.38401         2.39461         2.39461 
         1.4297         4.35766          2.3696          2.3696 
        1.43585         4.33305         2.34496         2.34496 
        1.44198         4.30396         2.32077         2.32077 
        1.44809         4.25996         2.29696         2.29696 
        1.45423         4.22118          2.2734          2.2734 
        1.46036         4.18449         2.25022         2.25022 
        1.46649         4.15978         2.22734         2.22734 
        1.47263         4.11747         2.20477         2.20477 
        1.47877         4.08632         2.18252         2.18252 
        1.48491         4.06125         2.16054         2.16054 
        1.49104         4.02933          2.1389          2.1389 
        1.49718         3.99871         2.11755         2.11755 
        1.50333         3.97149         2.09646         2.09646 
        1.50947         3.93201         2.07569         2.07569 
         1.5156         3.91049         2.05523         2.05523 
        1.52172         3.88559         2.03505         2.03505 
        1.52787         3.85495          2.0151          2.0151 
          1.534         3.82115         1.99544         1.99544 
        1.54013         3.79854         1.97607         1.97607 
        1.54627         3.76092         1.95691         1.95691 
        1.55241         3.73213           1.938           1.938 
        1.55855         3.71617         1.91938         1.91938 
        1.56467          3.6834         1.90104         1.90104 
         1.5708         3.66274          1.8829          1.8829 
        1.57695          3.6288         1.86496         1.86496 
        1.58308         3.59513          1.8473          1.8473 
        1.58922         3.58427         1.82985         1.82985 
        1.59535         3.56307         1.81263         1.81263 
         1.6015         3.52588         1.79562         1.79562 
        1.60764         3.49784         1.77882         1.77882 
        1.61376         3.48129         1.76229         1.76229 
        1.61989         3.45387         1.74596         1.74596 
        1.62604         3.42911         1.72979         1.72979 
        1.63218         3.41676         1.71384         1.71384 
        1.63831         3.38571         1.69813         1.69813 
        1.64444         3.36543         1.68261         1.68261 
        1.65059         3.32433         1.66724         1.66724 
        1.65673          3.3238         1.65208         1.65208 
        1.66285         3.28459         1.63715         1.63715 
        1.66898         3.26428         1.62241         1.62241 
        1.67512         3.24673         1.60781         1.60781 
        1.68127         3.22187         1.59338         1.59338 
         1.6874         3.20683         1.57916         1.57916 
        1.69353         3.17671         1.56512         1.56512 
        1.69967         3.16364         1.55122         1.55122 
        1.70581         3.14283         1.53749         1.53749 
        1.71193         3.11602         1.52398         1.52398 
        1.71806         3.09964          1.5106          1.5106 
        1.72421         3.07819         1.49736         1.49736 
        1.73035         3.06298         1.48429         1.48429 
        1.73649         3.04039         1.47137         1.47137 
        1.74262         3.01586         1.45863         1.45863 
        1.74876         3.00169         1.44602         1.44602 
        1.75489         2.98509         1.43359         1.43359 
        1.76101         2.95771         1.42131         1.42131 
        1.76715         2.94597         1.40915         1.40915 
        1.77329         2.92629         1.39713         1.39713 
        1.77943         2.89843         1.38523         1.38523 
        1.78557         2.88773          1.3735          1.3735 
        1.79171          2.8701         1.36189         1.36189 
        1.79785         2.85083         1.35042         1.35042 
        1.80399          2.8301         1.33908         1.33908 
        1.81012         2.81276         1.32789         1.32789 
        1.81625          2.7974         1.31683         1.31683 
        1.82239          2.7823         1.30588         1.30588 
        1.82853         2.75838         1.29505         1.29505 
        1.83466         2.74722         1.28436         1.28436 
        1.84078         2.73529          1.2738          1.2738 
        1.84692          2.7203         1.26335         1.26335 
        1.85306         2.69524           1.253           1.253 
         1.8592         2.67672         1.24277         1.24277 
        1.86533         2.66078         1.23267         1.23267 
        1.87147         2.64864         1.22267         1.22267 
        1.87761         2.63129         1.21278         1.21278 
