# k  (h/Mpc)    P(k)  (Mpc/h)^3    P_linear(k)  (Mpc/h)^3     P_NL(k)  ShotnoiseSubtracted = false
     0.00783031         76.7988         77.3967         77.0416 
       0.013688         96.3474         97.0142         96.5923 
       0.019231         99.3503         99.5982         99.1303 
      0.0249154          93.091         93.2205         92.9297 
      0.0312784         81.4052         81.4285         81.3687 
      0.0375637         69.4248         69.4103         69.4159 
      0.0433917         60.1813         60.0685         60.1207 
      0.0492413          53.111         53.0518         53.1107 
      0.0555754         47.9435         47.8338         47.8575 
      0.0619321         44.2165         44.2741         44.2745 
       0.067871         41.6208         41.6278          41.599 
      0.0738098         38.9792         38.9903         38.9421 
      0.0800417         35.8683           35.86           35.82 
      0.0862327         32.3613         32.3686         32.3521 
      0.0921407         28.9199         28.9252         28.9293 
      0.0982031         25.6553         25.6178         25.6447 
       0.104506         22.7198         22.7209         22.7598 
       0.110769         20.5387         20.5327         20.5649 
       0.116806         19.0791         19.0479         19.0674 
       0.122832         18.0308         18.0337         18.0468 
       0.129052         17.2743         17.2656         17.2684 
       0.135211         16.5805         16.5689         16.5669 
       0.141259         15.7796         15.7907         15.7913 
       0.147318         14.8221         14.8512          14.862 
       0.153489         13.7435         13.7545         13.7659 
       0.159709         12.6016         12.6001         12.6225 
       0.165845         11.5028         11.5253         11.5604 
       0.171974         10.6222         10.6046         10.6384 
       0.178125         9.88978         9.87759         9.91563 
       0.184229         9.34494         9.34593         9.38093 
        0.19034         8.97825         8.96063         8.99071 
       0.196428          8.6655         8.66026           8.682 
       0.202534         8.35718         8.37803         8.39944 
       0.208729         8.05618         8.06018         8.08143 
       0.214876         7.69918         7.68944         7.71914 
       0.220989         7.25592         7.27112         7.30515 
       0.227147         6.83937         6.82665         6.86218 
        0.23329         6.41192         6.39587         6.43745 
       0.239377         6.03053          6.0123         6.05627 
       0.245482          5.7069         5.68895         5.72839 
       0.251667         5.43407         5.42734         5.46898 
       0.257832         5.23893         5.22206         5.26116 
       0.263955         5.06129         5.05363         5.08964 
       0.270079         4.90459         4.89923         4.93345 
        0.27624         4.73585         4.73981         4.77216 
       0.282372         4.56421         4.56656         4.60213 
        0.28843         4.39008            4.38         4.41716 
       0.294538         4.19089         4.18221         4.22095 
       0.300721         3.98464         3.98313         4.02457 
        0.30691         3.80776         3.79569         3.83793 
       0.313033         3.64033         3.63017          3.6711 
       0.319153         3.51068         3.48731         3.52947 
       0.325316         3.36914         3.36504         3.40771 
        0.33145         3.26392         3.25938         3.29928 
       0.337538         3.17104         3.16385         3.20211 
       0.343633          3.0814         3.07083         3.10842 
       0.349808         2.98204         2.97497          3.0142 
       0.355968         2.88035         2.87542         2.91925 
       0.362074         2.78415         2.77403         2.81577 
       0.368217          2.6812          2.6718         2.71037 
       0.374374         2.58961          2.5726         2.61391 
       0.380519         2.48982         2.48006         2.51986 
       0.386598         2.40389         2.39636         2.43711 
       0.392688         2.32608         2.32094         2.36124 
        0.39888         2.26028         2.25161         2.29156 
       0.405048         2.19705          2.1879         2.22505 
       0.411186         2.13536         2.12775         2.16834 
       0.417313         2.07772         2.06886         2.10799 
       0.423458         2.01439         2.00983         2.04947 
       0.429607         1.96058         1.95071         1.98897 
       0.435692         1.90307          1.8924         1.93201 
       0.441815         1.84366         1.83492         1.87649 
       0.447964         1.78405         1.77953         1.81951 
       0.454126         1.73653         1.72706         1.76644 
       0.460267         1.69059         1.67809         1.71846 
       0.466387          1.6437         1.63269         1.67099 
        0.47254         1.60192         1.58988         1.62842 
       0.478662         1.55996         1.54934          1.5869 
       0.484765         1.52172         1.51037         1.54791 
       0.490885         1.48165         1.47226         1.51244 
       0.497035         1.44058         1.43455         1.47518 
       0.503198          1.4066         1.39728         1.43459 
       0.509342         1.36726         1.36091         1.39903 
       0.515458         1.33503         1.32578         1.36559 
       0.521598         1.30127         1.29182         1.32856 
       0.527764         1.27139         1.25914         1.29566 
       0.533884         1.23541         1.22825          1.2646 
           0.54         1.20755          1.1989         1.23455 
       0.546137         1.17744         1.17073         1.20729 
       0.552299         1.15153         1.14347         1.17729 
       0.558452         1.12544         1.11705         1.15146 
       0.564573         1.09999         1.09145         1.12847 
       0.570708         1.07494         1.06643          1.1025 
       0.576825         1.05077         1.04208          1.0773 
       0.582926         1.02535         1.01838         1.05415 
       0.589034         1.00536        0.995309         1.03225 
       0.595184        0.983368        0.972829         1.00591 
       0.601379        0.959792        0.951017        0.986927 
       0.607522        0.938155        0.930214          0.9653 
       0.613639        0.916422        0.910236        0.944635 
       0.619772        0.899724         0.89086         0.92634 
       0.625918        0.880569         0.87202        0.905979 
       0.632068        0.862127        0.853686        0.886928 
       0.638161        0.844092        0.836012        0.869269 
         0.6443        0.826396         0.81868        0.851117 
       0.650464        0.810192        0.801746         0.83564 
       0.656582        0.794642        0.785383        0.818605 
       0.662703        0.778146        0.769453        0.801978 
       0.668861        0.760248        0.753869        0.787394 
       0.675024        0.746218        0.738713        0.771397 
       0.681124         0.73501        0.724151        0.756141 
       0.687237        0.718551        0.709987        0.740625 
       0.693381        0.702979        0.696171        0.726018 
       0.699536        0.692039        0.682722        0.712973 
       0.705665        0.678696        0.669698        0.701922 
       0.711789        0.664153        0.657026        0.688517 
       0.717957        0.652539        0.644584        0.674894 
        0.72409         0.64004        0.632516        0.663013 
       0.730186         0.62994        0.620815        0.650321 
       0.736317         0.61671        0.609338        0.638358 
       0.742472         0.60655        0.598104          0.6287 
       0.748622        0.595839        0.587166        0.617825 
        0.75476        0.584336        0.576532        0.605701 
       0.760888        0.575274        0.566189         0.59545 
       0.767043        0.561543         0.55607        0.585603 
       0.773185        0.553356        0.546228        0.576066 
       0.779291         0.54527        0.536688        0.566226 
       0.785407        0.535093        0.527367        0.556284 
       0.791564        0.525733        0.518212        0.547066 
       0.797719        0.516581        0.509278        0.536949 
       0.803834        0.507665        0.500611          0.5286 
       0.809972        0.499497        0.492113        0.520976 
       0.816124        0.490898        0.483792        0.511427 
       0.822261        0.483337        0.475685        0.502932 
       0.828378        0.474738        0.467788        0.495051 
       0.834502        0.466913        0.460064        0.486651 
       0.840667        0.460011        0.452466        0.479384 
       0.846816        0.452408        0.445061        0.473035 
       0.852925        0.444268        0.437871        0.464906 
       0.859047        0.437389        0.430827        0.458672 
       0.865192        0.430784        0.423915        0.450936 
       0.871341        0.424567        0.417153        0.443763 
       0.877463        0.416684         0.41057        0.436666 
       0.883569        0.410587        0.404148        0.430749 
       0.889708        0.404697        0.397831        0.424261 
       0.895864        0.398511        0.391634        0.417567 
       0.902008        0.391877        0.385582        0.411445 
       0.908149        0.386501        0.379663        0.405523 
       0.914301         0.38133         0.37386        0.399165 
       0.920448        0.375409        0.368183        0.393201 
       0.926574        0.370218        0.362645        0.387897 
       0.932687        0.364735        0.357234        0.381464 
       0.938823        0.358317        0.351913        0.377399 
       0.944975        0.353717         0.34669        0.370765 
       0.951105        0.347735        0.341592        0.365636 
       0.957225        0.342642        0.336606        0.361193 
       0.963368        0.338342        0.331703        0.355679 
       0.969511        0.333953        0.326898        0.350891 
       0.975621         0.32852        0.322215        0.345116 
       0.981748        0.323181        0.317613        0.340533 
       0.987916        0.318964        0.313071        0.336908 
        0.99406        0.314967        0.308636        0.332556 
        1.00019        0.310399        0.304297         0.32796 
        1.00632        0.306881        0.300045        0.323019 
        1.01246        0.302506        0.295869        0.318586 
        1.01859         0.29824         0.29178        0.314768 
        1.02471        0.293737        0.287773         0.31064 
        1.03085        0.289372        0.283828        0.305889 
        1.03698        0.286142        0.279966        0.301785 
        1.04314        0.282215         0.27616        0.298107 
        1.04929        0.278997        0.272434        0.294329 
        1.05541        0.274441        0.268792        0.290926 
        1.06154        0.271223        0.265208        0.287168 
        1.06769        0.267873        0.261685        0.283462 
        1.07382        0.264396        0.258237         0.27981 
        1.07993        0.261139        0.254859        0.276244 
        1.08607        0.257395        0.251528        0.273038 
        1.09222        0.254112        0.248253        0.269195 
        1.09836        0.250822        0.245041        0.266171 
        1.10449        0.247526         0.24189        0.262927 
        1.11063        0.244398        0.238791        0.259262 
        1.11677        0.241776        0.235748        0.256553 
         1.1229        0.238056        0.232763        0.253424 
        1.12903        0.235474        0.229827        0.250269 
        1.13518        0.232508         0.22694        0.247272 
        1.14131        0.229826        0.224105         0.24441 
        1.14745        0.227668        0.221319        0.241021 
        1.15359        0.224306        0.218581        0.238585 
        1.15973        0.221913        0.215888         0.23594 
        1.16584        0.218942        0.213252        0.232806 
        1.17197        0.216081        0.210657        0.230292 
        1.17811        0.213382        0.208097        0.227827 
        1.18424        0.210937        0.205588        0.224771 
        1.19038        0.208172        0.203113        0.222286 
        1.19652        0.206479        0.200679        0.219955 
        1.20267        0.203861        0.198286        0.216893 
        1.20881        0.200796        0.195932        0.214797 
        1.21495        0.198752        0.193621        0.212905 
        1.22108        0.196665        0.191347            0.21 
         1.2272        0.194088        0.189115         0.20743 
        1.23334        0.191966        0.186914        0.205345 
        1.23949        0.190122        0.184743        0.203348 
        1.24562        0.187854        0.182613        0.201055 
        1.25174        0.185725        0.180519        0.198609 
        1.25789        0.183122        0.178452        0.196451 
        1.26402        0.181659        0.176421        0.194356 
        1.27014        0.179132        0.174427        0.192159 
        1.27628        0.177464        0.172458        0.189999 
        1.28244        0.175517        0.170516        0.188039 
        1.28858        0.173307        0.168606        0.185787 
        1.29471        0.171511         0.16673        0.184011 
        1.30084        0.169552        0.164884        0.182478 
        1.30697        0.168072        0.163063        0.180384 
        1.31312        0.166281        0.161268         0.17839 
        1.31925        0.164322        0.159505        0.176743 
        1.32537        0.162567        0.157771        0.174938 
        1.33151         0.16084        0.156056        0.173101 
        1.33765         0.15901        0.154367        0.171311 
        1.34378        0.157174        0.152708        0.169573 
        1.34992           0.156        0.151071        0.167882 
        1.35606        0.154106        0.149455         0.16591 
         1.3622         0.15252        0.147866         0.16431 
        1.36833        0.151184        0.146303        0.162835 
        1.37445        0.149716        0.144764        0.161286 
        1.38059        0.147962        0.143243         0.15953 
        1.38675        0.146207        0.141739        0.157854 
        1.39288        0.144512        0.140264        0.156255 
        1.39901        0.143526         0.13881        0.154814 
        1.40515        0.141849        0.137373        0.153216 
         1.4113        0.140648        0.135958         0.15188 
        1.41742        0.139269        0.134567        0.150726 
        1.42355        0.137386        0.133194        0.148643 
         1.4297        0.136508        0.131836        0.147663 
        1.43585         0.13486        0.130497        0.146109 
        1.44198        0.133714        0.129182        0.144256 
        1.44809        0.132284        0.127887        0.143474 
        1.45423        0.130981        0.126606        0.141595 
        1.46036        0.129715        0.125345        0.140434 
        1.46649         0.12838          0.1241        0.139429 
        1.47263        0.126804        0.122871        0.137964 
        1.47877        0.126285         0.12166        0.136682 
        1.48491        0.124517        0.120463        0.135584 
        1.49104        0.123841        0.119284        0.133947 
        1.49718        0.122467        0.118121        0.133112 
        1.50333        0.121287        0.116971        0.131475 
        1.50947        0.120216        0.115839        0.130199 
         1.5156        0.118954        0.114724        0.129323 
        1.52172        0.117918        0.113623        0.127961 
        1.52787        0.116529        0.112535        0.126767 
          1.534        0.115729        0.111462        0.125804 
        1.54013        0.114529        0.110405        0.124639 
        1.54627        0.113652        0.109359        0.123424 
        1.55241        0.112508        0.108326        0.122317 
        1.55855        0.111507        0.107309        0.121227 
        1.56467        0.110513        0.106307        0.120271 
         1.5708        0.109409        0.105316         0.11905 
        1.57695        0.108464        0.104335        0.117885 
        1.58308        0.107134        0.103369        0.117061 
        1.58922        0.106503        0.102415        0.116095 
        1.59535        0.105413        0.101474        0.114985 
         1.6015        0.104637        0.100542        0.113849 
        1.60764        0.103525       0.0996234        0.113018 
        1.61376        0.102672       0.0987185         0.11232 
        1.61989        0.101675       0.0978241        0.111253 
        1.62604        0.100836       0.0969389         0.11023 
        1.63218        0.100021       0.0960651        0.109339 
        1.63831       0.0991144       0.0952041        0.108412 
        1.64444       0.0982079       0.0943534        0.107382 
        1.65059       0.0971542       0.0935111         0.10647 
        1.65673       0.0964917         0.09268        0.105648 
        1.66285       0.0957683       0.0918614        0.104785 
        1.66898       0.0946839       0.0910523        0.103834 
        1.67512       0.0939929       0.0902515        0.102962 
        1.68127        0.093159       0.0894595        0.102164 
         1.6874       0.0924434       0.0886788        0.101406 
        1.69353       0.0916398       0.0879079        0.100602 
        1.69967       0.0906753       0.0871444       0.0996189 
        1.70581       0.0902003       0.0863903       0.0987773 
        1.71193       0.0894446        0.085648       0.0980674 
        1.71806       0.0885383       0.0849128       0.0972173 
        1.72421       0.0877637       0.0841848        0.096542 
        1.73035       0.0871164       0.0834662       0.0957509 
        1.73649       0.0863585       0.0827562       0.0947774 
        1.74262       0.0856201        0.082055       0.0940509 
        1.74876       0.0850296       0.0813614       0.0934703 
        1.75489       0.0842042       0.0806773       0.0927604 
        1.76101       0.0835666       0.0800014       0.0919166 
        1.76715       0.0829771       0.0793322       0.0912771 
        1.77329        0.082143       0.0786699       0.0906337 
        1.77943       0.0814659       0.0780149       0.0898695 
        1.78557       0.0809729       0.0773683       0.0890649 
        1.79171       0.0802813       0.0767289        0.088291 
        1.79785       0.0794875       0.0760967       0.0876488 
        1.80399       0.0788398       0.0754717       0.0870937 
        1.81012       0.0783241       0.0748546       0.0862297 
        1.81625       0.0777112       0.0742446       0.0855078 
        1.82239       0.0772014       0.0736405       0.0850933 
        1.82853       0.0764476       0.0730435       0.0845147 
        1.83466       0.0758482       0.0724536       0.0837762 
        1.84078       0.0753293       0.0718709       0.0830709 
        1.84692       0.0747448       0.0712937       0.0825449 
        1.85306       0.0741603       0.0707221       0.0818357 
         1.8592       0.0736028       0.0701576       0.0810789 
        1.86533       0.0730417       0.0695997        0.080582 
        1.87147       0.0724455       0.0690472       0.0800352 
        1.87761       0.0718019       0.0685004       0.0794818 
