# k  (h/Mpc)    P(k)  (Mpc/h)^3    P_linear(k)  (Mpc/h)^3     P_NL(k)  ShotnoiseSubtracted = false
     0.00783031         2357.04         2371.96         2361.62 
       0.013688         2931.08         2969.94         2956.17 
       0.019231         3029.25         3047.95         3031.79 
      0.0249154         2855.35         2852.26         2840.76 
      0.0312784         2486.13         2491.18         2485.81 
      0.0375637         2113.81         2123.37         2119.89 
      0.0433917         1840.49         1837.51          1835.2 
      0.0492413         1619.65         1622.83         1621.14 
      0.0555754         1468.09         1463.19         1460.97 
      0.0619321          1339.2         1354.28         1351.68 
       0.067871         1269.15         1273.33         1270.16 
      0.0738098         1190.97         1192.64         1187.35 
      0.0800417         1098.15         1096.88         1092.36 
      0.0862327         988.298         990.078         988.392 
      0.0921407         883.741         884.747         884.266 
      0.0982031         788.459         783.577         786.287 
       0.104506         694.303         694.968         700.032 
       0.110769         629.439         628.035         631.668 
       0.116806         590.072         582.619         585.763 
       0.122832         554.369         551.596         554.896 
       0.129052          532.43         528.103          530.75 
       0.135211         513.596         506.792         509.358 
       0.141259          486.03          482.99         486.312 
       0.147318          453.76         454.252         459.432 
       0.153489         422.864         420.707         424.651 
       0.159709         391.451         385.396         391.168 
       0.165845         354.272          352.52         361.133 
       0.171974         333.853         324.361         332.638 
       0.178125         312.016         302.122         311.935 
       0.184229         292.555         285.861         295.319 
        0.19034         283.595         274.076         282.879 
       0.196428         273.919         264.889         272.147 
       0.202534         260.369         256.257         263.712 
       0.208729         253.983         246.535         253.753 
       0.214876         244.212         235.195         244.385 
       0.220989         227.427         222.399         232.352 
       0.227147         218.458         208.804         218.991 
        0.23329         206.533         195.628         207.213 
       0.239377         196.666         183.896         195.947 
       0.245482         185.625         174.005         185.038 
       0.251667         176.606         166.004          177.73 
       0.257832          172.98         159.725         170.969 
       0.263955         164.891         154.573         165.271 
       0.270079         159.581         149.851         160.286 
        0.27624         153.351         144.975         154.971 
       0.282372         148.508         139.676         150.204 
        0.28843         145.659         133.969         144.711 
       0.294538         138.679         127.919         139.119 
       0.300721           131.8          121.83         133.684 
        0.30691         128.137         116.097         128.179 
       0.313033         122.296         111.034         122.754 
       0.319153         119.544         106.665          118.61 
       0.325316         114.374         102.925          115.06 
        0.33145         110.787         99.6932         111.176 
       0.337538         107.655         96.7711         107.931 
       0.343633          104.66          93.926         105.281 
       0.349808         101.388         90.9942         102.631 
       0.355968         98.2668         87.9491         100.207 
       0.362074         96.1061         84.8479         96.8879 
       0.368217         93.1884         81.7211         93.2265 
       0.374374         90.7621         78.6867         90.5506 
       0.380519         86.6847         75.8564         87.5064 
       0.386598         84.2025         73.2963         85.0117 
       0.392688         81.6049         70.9895         82.7587 
        0.39888         80.0376         68.8687         80.3321 
       0.405048         78.1424         66.9203         78.2975 
       0.411186         76.1853         65.0803          76.838 
       0.417313         74.0806         63.2793         74.5509 
       0.423458         72.0744         61.4737         72.9013 
       0.429607         70.7263         59.6654         70.9789 
       0.435692         69.3772         57.8818         69.3134 
       0.441815         66.7845         56.1236         67.9309 
       0.447964         64.6281         54.4295         65.9305 
       0.454126         63.4328         52.8245         64.0818 
       0.460267         62.7418         51.3267         62.8586 
       0.466387         60.9687         49.9383           61.18 
        0.47254         60.0845         48.6287         59.9712 
       0.478662         58.0794         47.3889         58.6145 
       0.484765         56.9297         46.1968         57.1716 
       0.490885         55.3611         45.0312         56.3241 
       0.497035          54.578         43.8779         55.2824 
       0.503198         53.2711         42.7377         53.8236 
       0.509342         51.8185         41.6254         52.8337 
       0.515458         51.1063          40.551         52.0456 
       0.521598         49.8446         39.5121         50.5083 
       0.527764         49.1627         38.5127         49.2248 
       0.533884         48.1614         37.5678         48.3126 
           0.54         47.0697         36.6702         47.4053 
       0.546137         45.6808         35.8086         46.6831 
       0.552299         44.9111         34.9747         45.5251 
       0.558452         43.9632         34.1665         44.6269 
       0.564573         43.5748         33.3835         44.0594 
       0.570708         42.3317         32.6182         43.2338 
       0.576825         41.8216         31.8734         42.4147 
       0.582926         41.1121         31.1486         41.6667 
       0.589034         40.2761          30.443         41.0624 
       0.595184         39.7034         29.7554         40.1271 
       0.601379          38.628         29.0882          39.604 
       0.607522         38.0122         28.4519         38.6942 
       0.613639         37.4481         27.8409         38.0783 
       0.619772         36.7638         27.2482          37.469 
       0.625918         36.0521          26.672         36.9564 
       0.632068         35.7268         26.1112         36.2028 
       0.638161          34.953         25.5706         35.6375 
         0.6443         34.4516         25.0405         34.9749 
       0.650464         33.5959         24.5226         34.4994 
       0.656582         33.3676         24.0221         33.9909 
       0.662703         32.9282         23.5348         33.3464 
       0.668861         32.0778         23.0582         32.9579 
       0.675024         31.7013         22.5946          32.299 
       0.681124           31.45         22.1492         31.8065 
       0.687237         30.8007          21.716         31.2815 
       0.693381         30.2126         21.2934         30.7897 
       0.699536         30.0238          20.882          30.461 
       0.705665         29.4456         20.4837         30.0719 
       0.711789         28.9306         20.0961          29.453 
       0.717957           28.35         19.7155         29.1155 
        0.72409          28.093         19.3464         28.7602 
       0.730186         27.9292         18.9885         28.2901 
       0.736317         27.3454         18.6375         27.8694 
       0.742472         27.0059         18.2939         27.5757 
       0.748622         26.5502         17.9593         27.1064 
        0.75476         25.9159         17.6341         26.7569 
       0.760888         25.8349         17.3177         26.4349 
       0.767043         25.3673         17.0082         26.1261 
       0.773185         25.0967         16.7072         25.7533 
       0.779291         24.7993         16.4154         25.4627 
       0.785407         24.3941         16.1303         25.0791 
       0.791564         24.2431         15.8502         24.7649 
       0.797719         23.7026          15.577         24.4598 
       0.803834         23.5943         15.3119         24.0947 
       0.809972         23.1448          15.052         23.8597 
       0.816124         22.8893         14.7975         23.5184 
       0.822261         22.6193         14.5495         23.1925 
       0.828378         22.3864          14.308         22.8955 
       0.834502         22.1311         14.0717         22.7248 
       0.840667         21.8977         13.8393         22.3784 
       0.846816         21.4181         13.6128         22.1353 
       0.852925         21.3426         13.3929         22.0028 
       0.859047         21.0863         13.1774         21.6347 
       0.865192         20.7749         12.9661         21.3728 
       0.871341         20.5088         12.7592         21.1865 
       0.877463          20.283         12.5579         20.9199 
       0.883569         20.1538         12.3614         20.7049 
       0.889708         19.8255         12.1682         20.4362 
       0.895864         19.5735         11.9787         20.1848 
       0.902008         19.3372         11.7936         20.0014 
       0.908149         19.0979         11.6125         19.8036 
       0.914301         18.9936          11.435         19.6588 
       0.920448          18.697         11.2614         19.3525 
       0.926574         18.5301          11.092         19.1339 
       0.932687         18.2924         10.9265         18.8924 
       0.938823         18.0531         10.7638         18.7181 
       0.944975         17.9121          10.604         18.5312 
       0.951105         17.7149         10.4481          18.281 
       0.957225         17.5963         10.2956         18.1695 
       0.963368          17.307         10.1456         17.9449 
       0.969511         17.1427         9.99866         17.7741 
       0.975621         16.9807         9.85542         17.5918 
       0.981748         16.7589         9.71463         17.4469 
       0.987916         16.6506         9.57573         17.2289 
        0.99406         16.4393         9.44009         17.0756 
        1.00019         16.3175         9.30736         16.9205 
        1.00632         16.1637         9.17731         16.7694 
        1.01246         16.0092         9.04958         16.6616 
        1.01859          15.802          8.9245         16.4636 
        1.02471         15.6347         8.80195         16.2642 
        1.03085         15.5645          8.6813         16.1305 
        1.03698         15.4116         8.56317         15.9885 
        1.04314         15.2102         8.44676           15.81 
        1.04929         15.0185         8.33279         15.6995 
        1.05541         14.9494          8.2214         15.5902 
        1.06154          14.818         8.11178         15.3931 
        1.06769          14.664         8.00399         15.2431 
        1.07382         14.4645         7.89853         15.1378 
        1.07993          14.346         7.79522         14.9953 
        1.08607         14.2651         7.69334         14.8621 
        1.09222         14.0847         7.59318         14.7479 
        1.09836         14.0042         7.49494         14.5867 
        1.10449         13.8369         7.39855         14.4556 
        1.11063         13.7646         7.30376         14.3578 
        1.11677         13.6655         7.21067         14.2042 
         1.1229          13.525         7.11938         14.1079 
        1.12903         13.4079         7.02959         14.0147 
        1.13518         13.2495         6.94129         13.8657 
        1.14131          13.169         6.85455         13.7486 
        1.14745         12.9779         6.76936         13.6299 
        1.15359         12.8669          6.6856         13.5181 
        1.15973         12.7662         6.60323          13.406 
        1.16584         12.6594         6.52262         13.3294 
        1.17197          12.533         6.44324         13.2395 
        1.17811         12.4415         6.36495         13.0722 
        1.18424         12.3501         6.28819         12.9963 
        1.19038         12.2757         6.21249         12.8924 
        1.19652         12.1477         6.13806         12.7729 
        1.20267         12.0681         6.06486         12.6789 
        1.20881         11.9208         5.99287         12.6138 
        1.21495         11.8409         5.92217         12.5024 
        1.22108         11.7865         5.85262         12.4079 
         1.2272         11.6777         5.78436         12.2906 
        1.23334         11.6048         5.71704         12.2261 
        1.23949         11.4884         5.65063         12.1218 
        1.24562         11.3788         5.58547         12.0163 
        1.25174         11.3235         5.52144         11.9427 
        1.25789         11.1935         5.45821         11.8427 
        1.26402         11.1483          5.3961         11.7441 
        1.27014         11.0844         5.33511         11.6699 
        1.27628         10.9333         5.27488         11.5735 
        1.28244         10.9193         5.21546         11.5222 
        1.28858          10.807         5.15705         11.4167 
        1.29471         10.6646         5.09966         11.3374 
        1.30084         10.5993         5.04321          11.296 
        1.30697         10.5791         4.98752         11.1838 
        1.31312         10.4652          4.9326         11.0997 
        1.31925         10.4023         4.87869         11.0548 
        1.32537         10.3186         4.82563         10.9824 
        1.33151         10.2411         4.77318         10.8869 
        1.33765          10.165         4.72154         10.8006 
        1.34378         10.1364         4.67077         10.7352 
        1.34992         10.0238         4.62072         10.6698 
        1.35606         9.93672         4.57129         10.5833 
         1.3622         9.85909         4.52268         10.5068 
        1.36833         9.82309         4.47489         10.4748 
        1.37445         9.75581         4.42782         10.3817 
        1.38059         9.68016         4.38128          10.293 
        1.38675          9.6162          4.3353         10.2542 
        1.39288         9.51621         4.29016         10.1785 
        1.39901         9.46322         4.24569         10.1144 
        1.40515         9.39258         4.20175          10.051 
         1.4113         9.32424         4.15845         9.98787 
        1.41742         9.28446         4.11593         9.92597 
        1.42355         9.18937         4.07392         9.85132 
         1.4297          9.1476         4.03238          9.7967 
        1.43585         9.09338         3.99143         9.74803 
        1.44198         9.03413         3.95121         9.67474 
        1.44809         8.96784         3.91162         9.62105 
        1.45423         8.89612         3.87242         9.56041 
        1.46036         8.84965         3.83384         9.49425 
        1.46649         8.78623         3.79577         9.43964 
        1.47263         8.74033         3.75819         9.39408 
        1.47877         8.67618         3.72114         9.33354 
        1.48491         8.63056         3.68452         9.25989 
        1.49104         8.55311         3.64848         9.21834 
        1.49718         8.52232          3.6129         9.16557 
        1.50333         8.46192         3.57773         9.10816 
        1.50947         8.39656         3.54311         9.06071 
         1.5156          8.3702           3.509         9.01016 
        1.52172         8.29892         3.47533         8.94788 
        1.52787         8.25923         3.44204         8.88552 
          1.534         8.20292         3.40923         8.83985 
        1.54013         8.16467         3.37688         8.77895 
        1.54627          8.1025         3.34489         8.72737 
        1.55241         8.03064         3.31332         8.69248 
        1.55855         8.01396         3.28219         8.63857 
        1.56467         7.96137         3.25156         8.58916 
         1.5708         7.91471         3.22122         8.55534 
        1.57695         7.85281         3.19123         8.50464 
        1.58308         7.79326          3.1617         8.45274 
        1.58922         7.77096         3.13251         8.42083 
        1.59535         7.71991         3.10371         8.37039 
         1.6015         7.64223         3.07523         8.31493 
        1.60764         7.61182         3.04712         8.26787 
        1.61376         7.58589         3.01944         8.22723 
        1.61989         7.51405         2.99209         8.19047 
        1.62604         7.49467         2.96501         8.14622 
        1.63218          7.4542         2.93829         8.10089 
        1.63831           7.399         2.91195          8.0601 
        1.64444         7.34077         2.88593         8.01454 
        1.65059         7.29962         2.86017         7.96475 
        1.65673          7.2819         2.83475         7.92992 
        1.66285         7.23128         2.80971          7.8948 
        1.66898         7.19749         2.78496          7.8456 
        1.67512         7.15172         2.76047         7.80622 
        1.68127         7.09026         2.73624         7.76146 
         1.6874         7.07047         2.71237         7.72137 
        1.69353         7.01382         2.68879         7.69759 
        1.69967         6.99075         2.66543         7.65019 
        1.70581         6.93923         2.64237          7.6088 
        1.71193         6.91986         2.61966          7.5791 
        1.71806          6.8737         2.59718         7.53708 
        1.72421          6.8261         2.57491         7.50293 
        1.73035         6.79703         2.55293         7.46394 
        1.73649         6.76593         2.53121         7.41981 
        1.74262         6.69856         2.50977         7.39351 
        1.74876         6.70198         2.48855         7.35557 
        1.75489         6.65431         2.46763         7.30694 
        1.76101         6.60056         2.44695         7.26726 
        1.76715         6.58938         2.42649         7.24714 
        1.77329         6.54955         2.40623         7.21268 
        1.77943          6.4917         2.38619         7.16973 
        1.78557         6.49226         2.36642         7.13822 
        1.79171         6.45006         2.34686         7.10058 
        1.79785         6.42297         2.32752          7.0618 
        1.80399         6.36295         2.30841         7.03458 
        1.81012         6.34686         2.28953         7.00885 
        1.81625         6.30016         2.27087         6.97932 
        1.82239         6.27447          2.2524         6.94635 
        1.82853         6.23131         2.23414         6.91191 
        1.83466         6.18683          2.2161         6.88372 
        1.84078         6.17329         2.19827         6.85505 
        1.84692         6.14129         2.18062         6.81284 
        1.85306         6.10954         2.16313         6.78065 
         1.8592         6.09098         2.14587         6.75729 
        1.86533         6.05707          2.1288         6.72367 
        1.87147          6.0215          2.1119         6.68767 
        1.87761         5.99994         2.09518         6.65808 
