# k  (h/Mpc)    P(k)  (Mpc/h)^3    P_linear(k)  (Mpc/h)^3     P_NL(k)  ShotnoiseSubtracted = false
     0.00783031         14174.9         14236.5         14167.5 
       0.013688         17340.8         17795.6         17676.8 
       0.019231         17974.2         18253.7         18096.3 
      0.0249154         17095.9         17077.5         16913.4 
      0.0312784         14744.9         14913.4           14749 
      0.0375637         12472.8         12710.3         12566.6 
      0.0433917         10922.2         10998.6         10848.4 
      0.0492413         9576.38         9713.23         9574.86 
      0.0555754         8700.44         8757.45         8634.41 
      0.0619321         7806.92         8105.46          7984.5 
       0.067871         7443.52         7620.81         7507.86 
      0.0738098         7028.08         7137.82         6961.89 
      0.0800417         6474.21         6564.64         6409.39 
      0.0862327         5821.43         5925.39         5850.19 
      0.0921407         5245.51         5294.97         5244.71 
      0.0982031         4737.65         4689.47          4728.6 
       0.104506         4171.65         4159.15         4268.36 
       0.110769         3816.18         3758.56         3836.61 
       0.116806         3617.02         3486.75          3557.5 
       0.122832         3397.83         3301.08            3377 
       0.129052         3232.58         3160.47         3225.56 
       0.135211         3158.76         3032.93         3089.66 
       0.141259          2953.9         2890.48         2974.51 
       0.147318         2754.62         2718.49          2838.6 
       0.153489         2590.58         2517.74         2613.56 
       0.159709         2466.88         2306.41         2451.83 
       0.165845         2237.59         2109.66         2321.97 
       0.171974          2158.9         1941.14         2160.23 
       0.178125         2067.48         1808.05         2065.73 
       0.184229         1903.68         1710.73         1949.99 
        0.19034          1875.1          1640.2         1869.58 
       0.196428         1824.52         1585.22         1795.09 
       0.202534         1719.11         1533.56         1747.89 
       0.208729         1692.03         1475.38          1671.9 
       0.214876         1620.15         1407.52         1640.43 
       0.220989         1533.94         1330.94         1587.85 
       0.227147         1489.53         1249.58         1526.56 
        0.23329         1426.97         1170.73         1472.36 
       0.239377         1410.93         1100.52         1404.09 
       0.245482         1339.68         1041.33         1333.34 
       0.251667         1289.32         993.441          1295.7 
       0.257832         1269.09         955.866         1248.96 
       0.263955         1210.96         925.036         1212.82 
       0.270079         1178.39         896.774         1182.71 
        0.27624         1130.24         867.593         1150.84 
       0.282372         1115.17         835.881         1130.03 
        0.28843         1098.37         801.732         1104.85 
       0.294538         1045.63         765.526         1073.53 
       0.300721         1023.14         729.085         1039.84 
        0.30691         999.641         694.774         1019.84 
       0.313033         958.342         664.477         983.085 
       0.319153         946.315         638.329          953.19 
       0.325316         934.083         615.948         934.478 
        0.33145         913.479         596.608         901.472 
       0.337538           882.5         579.121         886.393 
       0.343633         861.307         562.094         878.333 
       0.349808         844.294         544.549         864.709 
       0.355968         827.966         526.325         850.206 
       0.362074         800.712         507.767         833.333 
       0.368217         798.439         489.054         810.568 
       0.374374         785.884         470.895         793.659 
       0.380519         756.838         453.957         775.082 
       0.386598         751.625         438.636         764.989 
       0.392688         732.904         424.832         744.434 
        0.39888         716.369          412.14         732.838 
       0.405048         702.279          400.48         721.598 
       0.411186         700.687         389.468         706.837 
       0.417313         695.516          378.69         696.814 
       0.423458         674.826         367.885         686.402 
       0.429607         656.059         357.063         674.104 
       0.435692         649.143         346.389         659.946 
       0.441815         637.149         335.868         655.911 
       0.447964          627.44         325.729         645.583 
       0.454126         619.939         316.124         627.334 
       0.460267         610.803         307.161          625.11 
       0.466387         600.363         298.852         613.549 
        0.47254         591.103         291.015         604.979 
       0.478662         581.453         283.595         594.982 
       0.484765         574.986         276.461         586.967 
       0.490885         569.022         269.486         577.281 
       0.497035         557.325         262.584          571.64 
       0.503198         556.771         255.761         564.573 
       0.509342         545.862         249.104         555.777 
       0.515458         535.236         242.674         551.591 
       0.521598         531.523         236.457         544.408 
       0.527764          520.38         230.476         538.537 
       0.533884         516.057         224.821         531.572 
           0.54         510.995          219.45         524.013 
       0.546137         502.505         214.293         517.755 
       0.552299          500.59         209.303         510.577 
       0.558452         493.091         204.467         506.249 
       0.564573         489.103         199.781          502.24 
       0.570708          483.57         195.201         496.924 
       0.576825         474.217         190.744         488.751 
       0.582926         472.641         186.406         484.661 
       0.589034         465.133         182.183         477.524 
       0.595184         461.137         178.069         472.301 
       0.601379         454.027         174.076         467.747 
       0.607522         446.157         170.268         461.348 
       0.613639         445.231         166.611         459.939 
       0.619772         442.788         163.065         458.341 
       0.625918         434.434         159.616         450.842 
       0.632068         432.184         156.261         447.387 
       0.638161         427.629         153.025         441.884 
         0.6443         422.484         149.853         438.388 
       0.650464         418.161         146.753         430.955 
       0.656582          414.65         143.758         428.407 
       0.662703         411.043         140.842         425.896 
       0.668861          404.83          137.99         423.166 
       0.675024         403.016         135.216           419.6 
       0.681124         396.268          132.55         412.758 
       0.687237         395.088         129.957         409.152 
       0.693381         389.212         127.428         405.605 
       0.699536         388.356         124.967         402.885 
       0.705665         383.177         122.583         397.997 
       0.711789         381.631         120.263         395.568 
       0.717957         376.572         117.986         394.176 
        0.72409         372.505         115.777         389.916 
       0.730186         373.681         113.635         386.144 
       0.736317         366.972         111.534         382.826 
       0.742472         364.085         109.478         379.387 
       0.748622         361.458         107.476         376.076 
        0.75476         358.787         105.529         376.542 
       0.760888         355.768         103.636           371.2 
       0.767043         352.543         101.784         367.885 
       0.773185         350.065         99.9827         365.421 
       0.779291         345.971         98.2364         361.974 
       0.785407         343.861         96.5303          359.94 
       0.791564         341.558         94.8544         357.559 
       0.797719         336.118         93.2193         354.168 
       0.803834         337.947         91.6328         352.648 
       0.809972         332.283         90.0772         350.098 
       0.816124         329.105         88.5541         345.602 
       0.822261         326.661         87.0703         344.202 
       0.828378         325.371         85.6248         341.466 
       0.834502         320.205          84.211         339.876 
       0.840667         320.524         82.8202         336.727 
       0.846816         315.268         81.4649         334.646 
       0.852925         315.702         80.1487         332.596 
       0.859047         312.604         78.8593         330.004 
       0.865192         311.253         77.5942         327.208 
       0.871341         306.979         76.3564         325.505 
       0.877463         305.362         75.1515         323.472 
       0.883569         303.169         73.9759         322.117 
       0.889708         300.276         72.8196         318.839 
       0.895864         297.161         71.6853          317.09 
       0.902008         295.822         70.5777         314.789 
       0.908149          293.12         69.4942         312.172 
       0.914301         291.587         68.4319         309.822 
       0.920448         289.463         67.3929         308.204 
       0.926574         287.479         66.3792         305.952 
       0.932687         286.398         65.3886         303.977 
       0.938823         283.174         64.4148         303.261 
       0.944975         282.493         63.4587         300.643 
       0.951105         279.503         62.5256         298.452 
       0.957225         276.614         61.6129         296.805 
       0.963368         276.953         60.7155         295.061 
       0.969511           271.8          59.836         293.018 
       0.975621          270.68         58.9788         291.321 
       0.981748         269.853         58.1363         289.711 
       0.987916         268.124         57.3051         288.218 
        0.99406         265.469         56.4933          286.28 
        1.00019          263.42          55.699         283.719 
        1.00632         262.981         54.9208         282.055 
        1.01246         260.558         54.1564         279.871 
        1.01859         257.697         53.4078         278.329 
        1.02471         256.035         52.6745         277.263 
        1.03085         255.051         51.9524         276.082 
        1.03698         253.784         51.2455          274.97 
        1.04314         252.554         50.5489         272.763 
        1.04929         250.972         49.8668         270.612 
        1.05541         248.548         49.2002         269.101 
        1.06154         246.701         48.5442         267.753 
        1.06769         244.794         47.8992         266.126 
        1.07382         243.465          47.268         264.604 
        1.07993         241.669         46.6498         263.324 
        1.08607         240.469         46.0401         261.284 
        1.09222         238.305         45.4407         259.963 
        1.09836         237.628         44.8527         258.973 
        1.10449         235.833         44.2759         257.531 
        1.11063         234.046         43.7087          255.78 
        1.11677         232.062         43.1516         254.126 
         1.1229         231.563         42.6053         252.926 
        1.12903         229.332         42.0679         251.745 
        1.13518         227.812         41.5395         250.059 
        1.14131         227.016         41.0204         248.617 
        1.14745         224.479         40.5106         247.172 
        1.15359         222.916         40.0093         246.094 
        1.15973         222.193         39.5164         244.731 
        1.16584         220.652          39.034         243.245 
        1.17197         219.481          38.559         242.413 
        1.17811         217.454         38.0905         240.933 
        1.18424          216.27         37.6311         239.543 
        1.19038         215.413          37.178         238.824 
        1.19652         212.698         36.7326         237.174 
        1.20267          212.29         36.2946         235.705 
        1.20881         210.505         35.8637         234.616 
        1.21495         210.139         35.4406         233.218 
        1.22108          208.41         35.0245         231.768 
         1.2272         206.392          34.616         230.281 
        1.23334         205.645         34.2131           229.4 
        1.23949         204.458         33.8157         228.521 
        1.24562           203.1         33.4257         226.948 
        1.25174         201.978         33.0425         225.917 
        1.25789         200.069         32.6642         224.568 
        1.26402         199.726         32.2924         223.915 
        1.27014         198.813         31.9274          222.48 
        1.27628         197.061          31.567         221.959 
        1.28244         195.546         31.2114         220.813 
        1.28858         194.473         30.8619         219.377 
        1.29471         193.292         30.5184         217.636 
        1.30084          192.43         30.1806         216.758 
        1.30697         190.671         29.8474         215.955 
        1.31312         189.614         29.5187         214.531 
        1.31925         188.395          29.196         213.534 
        1.32537         187.771         28.8785         212.473 
        1.33151         186.366         28.5647         211.429 
        1.33765         185.037         28.2556         210.433 
        1.34378         184.338         27.9518         209.536 
        1.34992         182.733         27.6523         208.101 
        1.35606         181.958         27.3565         206.896 
         1.3622         180.638         27.0655         206.221 
        1.36833         179.498         26.7795         205.329 
        1.37445         179.322         26.4978          203.68 
        1.38059         177.183         26.2193         203.013 
        1.38675         176.143         25.9442         202.276 
        1.39288         175.147         25.6741         200.455 
        1.39901         173.794         25.4079         199.847 
        1.40515         173.358          25.145         199.014 
         1.4113         172.007         24.8859         197.883 
        1.41742         170.683         24.6314         197.048 
        1.42355         170.532           24.38         195.926 
         1.4297         169.049         24.1314         195.007 
        1.43585         168.363         23.8863         194.266 
        1.44198          166.69         23.6456          193.33 
        1.44809         166.084         23.4087         192.464 
        1.45423          165.13         23.1741         190.986 
        1.46036         164.067         22.9432         190.242 
        1.46649         162.997         22.7154         189.692 
        1.47263         162.375         22.4905           188.7 
        1.47877         161.147         22.2688         187.481 
        1.48491           159.9         22.0497         186.445 
        1.49104         158.486          21.834         185.996 
        1.49718           158.2          21.621         185.045 
        1.50333         156.737         21.4106         184.076 
        1.50947         156.131         21.2034         183.395 
         1.5156         155.053         20.9992         182.429 
        1.52172         154.377         20.7978         181.135 
        1.52787         153.496         20.5986         180.614 
          1.534         152.689         20.4022          179.84 
        1.54013         151.483         20.2086         178.924 
        1.54627         150.757         20.0172         178.257 
        1.55241         150.007         19.8282         177.428 
        1.55855          149.31          19.642         176.369 
        1.56467         148.214         19.4586         175.568 
         1.5708         147.002         19.2771         174.803 
        1.57695          146.49         19.0976         173.982 
        1.58308         145.376         18.9209         173.194 
        1.58922         144.609         18.7462         172.341 
        1.59535         143.582         18.5738         171.672 
         1.6015         142.838         18.4034         170.839 
        1.60764         141.891         18.2352         169.918 
        1.61376         140.947         18.0696          169.25 
        1.61989         140.412         17.9059         168.517 
        1.62604         139.336         17.7438         167.533 
        1.63218         138.749         17.5839         166.796 
        1.63831         137.761         17.4263         166.255 
        1.64444         136.723         17.2706         165.368 
        1.65059           136.2         17.1164         164.726 
        1.65673         135.391         16.9643           163.9 
        1.66285         134.827         16.8144         163.046 
        1.66898         133.815         16.6663         162.416 
        1.67512         132.898         16.5197         161.686 
        1.68127         132.374         16.3748         161.022 
         1.6874         131.368         16.2319         160.375 
        1.69353         130.931         16.0908         159.571 
        1.69967         129.895          15.951         158.803 
        1.70581         129.407          15.813         158.188 
        1.71193         128.447         15.6771         157.506 
        1.71806         127.282         15.5425         156.514 
        1.72421         126.887         15.4093         155.912 
        1.73035         126.156         15.2778         155.346 
        1.73649         125.173         15.1478         154.569 
        1.74262         124.769         15.0194         153.912 
        1.74876          123.96         14.8925         153.283 
        1.75489          123.51         14.7673         152.609 
        1.76101         122.364         14.6435         151.941 
        1.76715         121.616         14.5211         151.357 
        1.77329         120.909         14.3998         150.587 
        1.77943         120.141         14.2799         149.783 
        1.78557         119.597         14.1616         149.193 
        1.79171         118.866         14.0445         148.602 
        1.79785          118.01         13.9288         147.941 
        1.80399         117.508         13.8144          147.28 
        1.81012         116.697         13.7015         146.703 
        1.81625         116.117         13.5898         146.084 
        1.82239           115.5         13.4792          145.37 
        1.82853          114.61           13.37         144.665 
        1.83466         113.762          13.262         143.955 
        1.84078         113.476         13.1553         143.359 
        1.84692         113.052         13.0497         142.981 
        1.85306         112.114          12.945         142.233 
         1.8592         111.596         12.8417         141.423 
        1.86533         110.719         12.7396         141.109 
        1.87147         110.269         12.6385         140.709 
        1.87761         109.446         12.5384          140.01 
