# k  (h/Mpc)    Pcb(k)  (Mpc/h)^3    Pcb_linear(k) (Mpc/h)^3    Pcb_NL(k) (Mpc/h)^3   ShotnoiseSubtracted = false
     0.00783031           18113         18185.7         18093.5 
       0.013688           22074         22719.8           22553 
       0.019231         22889.9         23301.2         23075.6 
      0.0249154         21807.9         21798.3         21551.1 
      0.0312784         18766.2         19035.1         18773.5 
      0.0375637         15858.5         16222.8           15992 
      0.0433917         13898.9         14037.9         13794.3 
      0.0492413         12180.3         12397.2         12171.8 
      0.0555754         11062.9         11177.2         10978.7 
      0.0619321         9899.16           10345         10151.4 
       0.067871         9441.08         9726.41         9546.67 
      0.0738098         8930.68         9109.94         8831.13 
      0.0800417         8218.59         8378.37         8133.08 
      0.0862327         7393.51         7562.49         7441.34 
      0.0921407         6677.65         6757.88         6676.56 
      0.0982031         6048.12         5985.08         6040.84 
       0.104506          5331.9         5308.23         5472.68 
       0.110769         4889.19         4796.97         4918.98 
       0.116806         4637.46         4450.06         4561.01 
       0.122832         4365.93         4213.09         4330.53 
       0.129052         4137.91         4033.64         4136.44 
       0.135211         4053.29         3870.85         3958.05 
       0.141259         3782.52         3689.04         3820.44 
       0.147318         3536.17         3469.54         3650.43 
       0.153489         3331.25         3213.31          3362.7 
       0.159709         3189.75         2943.61         3167.72 
       0.165845          2903.6          2692.5         3013.46 
       0.171974         2802.72         2477.42         2813.69 
       0.178125         2699.34         2307.56         2698.86 
       0.184229         2481.28         2183.36         2545.84 
        0.19034          2452.1         2093.34          2442.6 
       0.196428         2388.56         2023.17         2350.34 
       0.202534         2258.53         1957.24         2290.32 
       0.208729         2217.62         1882.98          2190.3 
       0.214876         2122.05         1796.37         2150.67 
       0.220989         2025.11         1698.64         2090.06 
       0.227147         1964.86          1594.8         2020.06 
        0.23329         1884.59         1494.16          1950.8 
       0.239377          1872.5         1404.55         1863.34 
       0.245482         1784.61         1329.02         1774.16 
       0.251667         1719.67          1267.9         1724.75 
       0.257832         1689.64         1219.94         1665.53 
       0.263955         1618.59         1180.59         1621.12 
       0.270079         1581.46         1144.52         1581.92 
        0.27624         1516.94         1107.28         1541.49 
       0.282372         1502.73         1066.81         1521.66 
        0.28843         1471.75         1023.22         1494.28 
       0.294538         1409.09         977.016         1450.96 
       0.300721          1385.4         930.509          1405.9 
        0.30691         1347.89         886.718         1383.72 
       0.313033         1299.56         848.048         1336.09 
       0.319153         1286.95         814.682         1295.08 
       0.325316         1270.63         786.115         1272.99 
        0.33145         1242.26         761.429         1229.46 
       0.337538         1204.14         739.114         1212.41 
       0.343633         1178.39         717.383         1200.58 
       0.349808         1159.32         694.985         1184.85 
       0.355968         1134.65         671.733         1165.66 
       0.362074         1103.37         648.046         1145.64 
       0.368217         1099.68         624.164         1118.78 
       0.374374         1081.95         600.991         1096.03 
       0.380519         1046.48          579.37         1073.74 
       0.386598         1042.24         559.818         1057.89 
       0.392688          1014.2         542.199         1035.52 
        0.39888          997.56         526.001         1017.79 
       0.405048         976.561         511.119         1000.63 
       0.411186         973.464         497.065         985.622 
       0.417313         967.556          483.31         975.016 
       0.423458         940.335          469.52         957.664 
       0.429607         916.793         455.706         944.069 
       0.435692         908.544         442.086         923.606 
       0.441815         891.039         428.657         920.677 
       0.447964         882.402         415.717           909.5 
       0.454126         870.807         403.458          883.02 
       0.460267         861.096         392.022         880.776 
       0.466387         845.585         381.414         865.311 
        0.47254          833.54         371.413         852.924 
       0.478662         821.818         361.943         841.483 
       0.484765          812.85         352.838         833.367 
       0.490885         804.554         343.935         817.926 
       0.497035          789.14         335.127         811.517 
       0.503198         788.319         326.419          803.02 
       0.509342         773.706         317.922         788.714 
       0.515458         758.777         309.717         783.199 
       0.521598         759.161         301.782          775.89 
       0.527764         740.959         294.149          768.58 
       0.533884         732.061         286.932         759.665 
           0.54         728.071         280.077         750.797 
       0.546137         718.697         273.495         742.772 
       0.552299         713.177         267.126         732.727 
       0.558452         704.897         260.954         727.167 
       0.564573         701.791         254.974         720.587 
       0.570708         693.138         249.129          711.21 
       0.576825         679.764          243.44         702.615 
       0.582926         678.014         237.904          698.21 
       0.589034         669.415         232.514         688.166 
       0.595184          661.62         227.263         681.233 
       0.601379         652.014         222.168         675.308 
       0.607522          643.05         217.307         665.169 
       0.613639          642.35         212.641         663.389 
       0.619772         636.136         208.114         661.023 
       0.625918         627.754         203.713         652.525 
       0.632068         624.556          199.43         649.076 
       0.638161           615.8         195.301         639.074 
         0.6443         609.575         191.252         633.765 
       0.650464         605.179         187.296         626.167 
       0.656582         600.222         183.474         622.646 
       0.662703         593.316         179.752         617.734 
       0.668861         586.526         176.112         615.261 
       0.675024         584.112         172.571         611.273 
       0.681124         572.027         169.169         602.226 
       0.687237         572.628          165.86         596.916 
       0.693381         563.412         162.633         591.256 
       0.699536         564.946         159.491         587.457 
       0.705665         555.456         156.448         580.417 
       0.711789         554.506         153.488         576.188 
       0.717957         547.456         150.581         575.574 
        0.72409         543.027         147.762         569.495 
       0.730186         541.484         145.029         563.446 
       0.736317         534.079         142.347         559.973 
       0.742472         528.297         139.723         556.687 
       0.748622         527.706         137.168         550.873 
        0.75476         519.527         134.684         551.066 
       0.760888          518.03         132.267         545.055 
       0.767043          514.93         129.903         537.851 
       0.773185         510.327         127.605         534.863 
       0.779291         505.401         125.376         530.444 
       0.785407         501.629         123.198         527.186 
       0.791564         499.317         121.059         525.869 
       0.797719         491.452         118.973         521.091 
       0.803834         491.947         116.948         517.516 
       0.809972         484.607         114.963         514.321 
       0.816124         481.455         113.019         508.816 
       0.822261         478.239         111.125         506.186 
       0.828378         476.623          109.28         502.552 
       0.834502         469.018         107.476         500.825 
       0.840667         467.322         105.701         497.144 
       0.846816         463.902         103.971          493.36 
       0.852925         462.981         102.291         490.381 
       0.859047         457.233         100.645         485.454 
       0.865192          455.08         99.0309         482.652 
       0.871341         449.931         97.4511         479.625 
       0.877463         449.328         95.9133         477.287 
       0.883569         445.191         94.4129         474.992 
       0.889708         439.974         92.9372         470.121 
       0.895864          435.47         91.4895         467.668 
       0.902008           434.8         90.0759         464.474 
       0.908149         430.503         88.6931         459.988 
       0.914301         428.916         87.3373         456.529 
       0.920448         423.535         86.0113         455.925 
       0.926574         421.718         84.7175         452.901 
       0.932687         420.129         83.4533         448.761 
       0.938823         415.737         82.2105         447.632 
       0.944975         414.306         80.9902         444.848 
       0.951105         410.798         79.7993         441.416 
       0.957225         405.824         78.6345         438.996 
       0.963368         405.737         77.4891         436.085 
       0.969511         400.937         76.3667         433.514 
       0.975621         398.112         75.2727         430.885 
       0.981748         396.659         74.1974         428.593 
       0.987916         393.881         73.1365         426.482 
        0.99406         389.654         72.1005         423.594 
        1.00019         386.256         71.0868         420.095 
        1.00632         385.177         70.0935         417.443 
        1.01246          381.73         69.1179         415.155 
        1.01859         379.138         68.1626         412.565 
        1.02471         377.303         67.2266         410.341 
        1.03085         375.091         66.3051         409.174 
        1.03698         372.603         65.4029         407.594 
        1.04314         369.543         64.5138         404.433 
        1.04929         368.586         63.6433         400.936 
        1.05541         364.462         62.7925         398.555 
        1.06154         361.905         61.9553         396.651 
        1.06769         359.245         61.1321         393.903 
        1.07382         355.992         60.3266         391.634 
        1.07993         355.976         59.5375         389.659 
        1.08607         353.749         58.7594         387.194 
        1.09222         350.176         57.9944         385.022 
        1.09836         348.104          57.244         383.543 
        1.10449         345.391         56.5079         382.125 
        1.11063         344.369         55.7839         378.586 
        1.11677         340.529         55.0729         377.024 
         1.1229         339.045         54.3756         374.543 
        1.12903         336.114         53.6899         372.429 
        1.13518         334.763         53.0154         369.766 
        1.14131         332.473          52.353         368.648 
        1.14745         329.593         51.7023         365.428 
        1.15359         326.741         51.0626         364.909 
        1.15973          325.31         50.4334          362.39 
        1.16584         323.776         49.8178         361.028 
        1.17197         321.362         49.2115         359.129 
        1.17811         317.675         48.6136         356.404 
        1.18424         317.043         48.0273         354.648 
        1.19038         315.232         47.4491          353.48 
        1.19652         312.095         46.8806         350.481 
        1.20267         310.628         46.3215         349.249 
        1.20881         309.228         45.7717           347.3 
        1.21495         306.005         45.2317          345.27 
        1.22108         305.298         44.7005         343.096 
         1.2272         301.294         44.1792         342.175 
        1.23334         299.873          43.665         339.834 
        1.23949         298.124         43.1578         337.826 
        1.24562         296.957         42.6601          335.94 
        1.25174         295.131          42.171         334.426 
        1.25789         292.286         41.6882         332.478 
        1.26402         291.037         41.2137          331.35 
        1.27014         289.203         40.7479         328.997 
        1.27628         287.408         40.2879         328.226 
        1.28244         284.349         39.8341         326.614 
        1.28858         283.488          39.388         324.733 
        1.29471         281.855         38.9497         322.811 
        1.30084         281.036         38.5185         320.521 
        1.30697          277.81         38.0932         319.404 
        1.31312         276.342         37.6737         317.964 
        1.31925         274.841         37.2619         316.144 
        1.32537         273.688         36.8567         314.218 
        1.33151         270.597         36.4561         313.081 
        1.33765         268.882         36.0617         311.773 
        1.34378         268.087         35.6739         309.447 
        1.34992         265.356         35.2916         307.991 
        1.35606         263.651         34.9141         306.218 
         1.3622         261.761         34.5428         305.362 
        1.36833         261.668         34.1778         304.148 
        1.37445         260.177         33.8183         301.842 
        1.38059         256.763         33.4628         300.781 
        1.38675         255.382         33.1117         299.521 
        1.39288         254.844         32.7669         297.802 
        1.39901          252.42         32.4273         295.955 
        1.40515         251.213         32.0917         294.206 
         1.4113         249.306          31.761         292.665 
        1.41742         247.689         31.4362         291.434 
        1.42355         246.238         31.1153         290.132 
         1.4297         244.728          30.798         288.142 
        1.43585         242.926         30.4853         287.628 
        1.44198         241.475         30.1781          285.96 
        1.44809         240.132         29.8757          284.46 
        1.45423         238.739         29.5764         282.484 
        1.46036         238.109         29.2817         281.417 
        1.46649         235.929         28.9909         280.227 
        1.47263         233.846         28.7039          278.38 
        1.47877         232.843         28.4209         276.868 
        1.48491         231.031         28.1412         275.308 
        1.49104         228.834          27.866          274.25 
        1.49718         228.116         27.5942          273.86 
        1.50333         226.591         27.3256          271.74 
        1.50947         225.031         27.0612         270.188 
         1.5156         223.778         26.8006         269.454 
        1.52172         222.132         26.5435         268.196 
        1.52787         220.924         26.2892         266.788 
          1.534         220.192         26.0386         265.375 
        1.54013         218.148         25.7916         264.266 
        1.54627         216.907         25.5473         263.241 
        1.55241         215.966         25.3061         262.069 
        1.55855         214.287         25.0684         260.807 
        1.56467         212.883         24.8344         259.128 
         1.5708          211.38         24.6027         257.732 
        1.57695         210.818         24.3736          256.54 
        1.58308         209.504          24.148          255.21 
        1.58922         207.615         23.9252         254.168 
        1.59535         206.309         23.7052           253.2 
         1.6015          205.33         23.4876         252.383 
        1.60764          203.85          23.273         251.009 
        1.61376         202.397         23.0616          249.28 
        1.61989         201.172         22.8526         248.339 
        1.62604         200.153         22.6458         247.012 
        1.63218         198.617         22.4417         245.831 
        1.63831         197.609         22.2406         244.933 
        1.64444          196.14         22.0418         243.626 
        1.65059         195.215         21.8451         242.711 
        1.65673         193.918         21.6509         241.726 
        1.66285         192.618         21.4597         240.389 
        1.66898         191.551         21.2707         238.957 
        1.67512         190.267         21.0836         238.003 
        1.68127         189.035         20.8986         236.933 
         1.6874         187.936         20.7162         235.842 
        1.69353         187.276         20.5361         235.068 
        1.69967         185.696         20.3577         233.905 
        1.70581         184.675         20.1816         232.725 
        1.71193         183.319         20.0082         231.667 
        1.71806         182.042         19.8364         230.471 
        1.72421         181.216         19.6663         229.376 
        1.73035         179.898         19.4985         228.352 
        1.73649          178.49         19.3326         227.264 
        1.74262         177.808         19.1688         226.078 
        1.74876         176.468         19.0068         225.095 
        1.75489         175.901          18.847         224.355 
        1.76101         174.734         18.6891         223.574 
        1.76715         173.587         18.5327         222.374 
        1.77329         172.316          18.378         221.461 
        1.77943         171.214          18.225         220.602 
        1.78557         170.076         18.0739         219.326 
        1.79171         169.306         17.9246         218.242 
        1.79785         167.954         17.7769         217.327 
        1.80399         167.125         17.6309         216.333 
        1.81012         166.574         17.4867         215.604 
        1.81625         164.867         17.3442         214.743 
        1.82239         164.349         17.2031         213.624 
        1.82853         163.175         17.0636         212.669 
        1.83466         161.893         16.9258         211.701 
        1.84078         161.101         16.7897         210.751 
        1.84692         160.466         16.6549         210.007 
        1.85306         159.276         16.5213         208.998 
         1.8592         158.416         16.3895         207.906 
        1.86533         156.953         16.2591         207.117 
        1.87147         156.178           16.13         206.198 
