# k  (h/Mpc)    P(k)  (Mpc/h)^3    P_linear(k)  (Mpc/h)^3     P_NL(k)  ShotnoiseSubtracted = false
     0.00783031         14616.8         14679.8         14608.2 
       0.013688         17873.2         18348.6         18224.6 
       0.019231         18527.1         18820.5         18655.9 
      0.0249154         17625.4         17607.7         17434.9 
      0.0312784         15197.4         15376.3         15201.9 
      0.0375637         12853.9         13104.8         12952.1 
      0.0433917         11257.2           11340         11180.1 
      0.0492413         9869.45         10014.7         9867.33 
      0.0555754         8966.48         9029.23         8898.39 
      0.0619321         8042.75         8357.01         8228.49 
       0.067871         7668.78         7857.31         7737.42 
      0.0738098          7242.3         7359.33          7172.7 
      0.0800417         6670.82         6768.35         6603.69 
      0.0862327         5998.47         6109.27         6029.28 
      0.0921407         5406.53         5459.28         5405.74 
      0.0982031         4884.74         4834.99         4875.87 
       0.104506         4301.72         4288.21         4403.24 
       0.110769         3936.28          3875.2         3957.72 
       0.116806         3731.28         3594.95         3669.78 
       0.122832            3506         3403.52          3483.7 
       0.129052            3334         3258.55         3327.45 
       0.135211         3258.86         3127.05         3186.89 
       0.141259         3046.67         2980.17         3069.01 
       0.147318         2841.84         2802.85          2929.3 
       0.153489         2673.19         2595.86         2697.15 
       0.159709         2547.34         2377.98         2531.56 
       0.165845         2311.45         2175.13         2398.87 
       0.171974         2230.47         2001.37         2232.71 
       0.178125         2137.54         1864.16         2135.92 
       0.184229         1967.65         1763.82         2016.04 
        0.19034         1938.93          1691.1         1933.07 
       0.196428         1886.87         1634.41         1856.46 
       0.202534         1778.46         1581.15         1807.84 
       0.208729         1750.05         1521.16         1729.09 
       0.214876         1675.49         1451.19         1696.82 
       0.220989         1587.87         1372.24         1643.25 
       0.227147         1541.73         1288.36         1580.86 
        0.23329         1477.23         1207.06         1525.06 
       0.239377         1461.65         1134.67         1454.59 
       0.245482         1388.44         1073.64         1381.74 
       0.251667         1336.48         1024.27         1342.86 
       0.257832         1315.21         985.528         1294.66 
       0.263955         1255.56         953.741         1257.52 
       0.270079         1222.38         924.602         1226.42 
        0.27624         1172.42         894.515         1193.62 
       0.282372         1157.36         861.819         1172.75 
        0.28843         1139.18          826.61         1147.26 
       0.294538         1085.14         789.281         1114.67 
       0.300721         1062.49         751.709         1079.66 
        0.30691         1037.59         716.334         1059.43 
       0.313033         995.328         685.096         1021.47 
       0.319153         983.203         658.136         990.387 
       0.325316         970.639         635.061         971.251 
        0.33145         949.213         615.121         937.057 
       0.337538         917.325         597.091         921.726 
       0.343633         895.636         579.536         913.307 
       0.349808         878.308         561.446         899.401 
       0.355968          861.18         542.658          884.38 
       0.362074         833.221         523.523          867.15 
       0.368217         830.891          504.23         843.862 
       0.374374         817.926         485.507         826.361 
       0.380519          788.04         468.044         807.259 
       0.386598         782.909         452.248         796.681 
       0.392688         763.216         438.014         775.705 
        0.39888         746.479         424.929          763.56 
       0.405048         731.673         412.907         751.676 
       0.411186         730.047         401.554         736.801 
       0.417313         724.905         390.441         726.721 
       0.423458         703.378           379.3          715.66 
       0.429607         683.934         368.143         703.108 
       0.435692         676.993         357.138          688.31 
       0.441815         664.367          346.29         684.354 
       0.447964         654.714         335.837         673.851 
       0.454126         646.792         325.934         654.694 
       0.460267         637.542         316.692         652.523 
       0.466387         626.572         308.126         640.532 
        0.47254         616.932         300.045         631.562 
       0.478662         607.147         292.396         621.362 
       0.484765         600.403          285.04         613.346 
       0.490885         594.182         277.848         603.025 
       0.497035         582.081         270.732         597.252 
       0.503198         581.447         263.697         590.031 
       0.509342          570.26         256.833         580.618 
       0.515458          559.08         250.205         576.338 
       0.521598         555.787         243.794         569.184 
       0.527764           543.8         237.628         563.123 
       0.533884         539.061         231.798         555.893 
           0.54         534.052          226.26         548.162 
       0.546137         525.486         220.943         541.642 
       0.552299          523.26         215.798          534.13 
       0.558452         515.624         210.811          529.71 
       0.564573         511.627          205.98         525.475 
       0.570708         505.887         201.258         519.782 
       0.576825         496.056         196.663         511.491 
       0.582926         494.516          192.19         507.361 
       0.589034         486.777         187.837         499.811 
       0.595184         482.455         183.594         494.484 
       0.601379         475.073         179.478         489.742 
       0.607522         466.995         175.552         482.931 
       0.613639         466.148         171.782         481.597 
       0.619772         463.398         168.125         479.971 
       0.625918         454.786         164.569          472.25 
       0.632068          452.61         161.109          468.88 
       0.638161         447.636         157.774         462.793 
         0.6443         442.282         154.503         459.193 
       0.650464          437.98         151.307         451.587 
       0.656582         434.367         148.219         449.022 
       0.662703         430.403         145.213         446.248 
       0.668861         424.121         142.272          443.58 
       0.675024         422.258         139.411         439.958 
       0.681124         414.857         136.663         432.805 
       0.687237         413.948          133.99         428.996 
       0.693381         407.677         131.383         425.271 
       0.699536         407.063         128.844         422.427 
       0.705665         401.461         126.387         417.269 
       0.711789         400.045         123.995          414.67 
       0.717957         394.678         121.647         413.426 
        0.72409         390.577          119.37         408.879 
       0.730186         391.488         117.161         404.899 
       0.736317         384.625         114.995         401.561 
       0.742472          381.54         112.875         398.066 
       0.748622           379.1         110.811         394.541 
        0.75476         375.883         108.804         395.111 
       0.760888          373.02         106.852         389.554 
       0.767043          369.78         104.942         385.855 
       0.773185         367.068         103.085         383.374 
       0.779291         362.943         101.285         379.836 
       0.785407         360.597         99.5257         377.701 
       0.791564         358.332         97.7978          375.37 
       0.797719         352.646         96.1119         371.727 
       0.803834         354.367         94.4762         370.093 
       0.809972         348.432         92.8724           367.5 
       0.816124         345.302          91.302         362.753 
       0.822261         342.814         89.7721         361.308 
       0.828378         341.376         88.2818         358.466 
       0.834502         335.879         86.8241         356.921 
       0.840667         336.125         85.3901         353.622 
       0.846816         330.928         83.9927         351.343 
       0.852925         331.351         82.6358         349.254 
       0.859047         328.055         81.3063         346.413 
       0.865192         326.499          80.002         343.545 
       0.871341         322.083         78.7258          341.81 
       0.877463         320.609         77.4835         339.678 
       0.883569         318.115         76.2714          338.27 
       0.889708         315.046         75.0793         334.818 
       0.895864         311.738         73.9097         333.023 
       0.902008         310.502         72.7677           330.6 
       0.908149         307.606         71.6507         327.848 
       0.914301         306.127         70.5554         325.335 
       0.920448         303.592         69.4842         323.827 
       0.926574         301.655          68.439         321.418 
       0.932687         300.578         67.4177           319.3 
       0.938823         297.155         66.4137         318.614 
       0.944975          296.45         65.4279         315.804 
       0.951105         293.377         64.4658         313.506 
       0.957225         290.214         63.5248          311.85 
       0.963368         290.614         62.5995          310.03 
       0.969511         285.318         61.6928         307.957 
       0.975621         284.151          60.809         306.054 
       0.981748         283.253         59.9403         304.363 
       0.987916          281.38         59.0833          302.86 
        0.99406         278.558         58.2464         300.812 
        1.00019         276.309         57.4274         298.099 
        1.00632         275.922          56.625          296.36 
        1.01246         273.382         55.8369         294.111 
        1.01859         270.438         55.0651          292.45 
        1.02471         268.733          54.309         291.318 
        1.03085          267.75         53.5645         290.116 
        1.03698         266.352         52.8357         288.935 
        1.04314         264.965         52.1174         286.672 
        1.04929         263.383         51.4142         284.357 
        1.05541         260.746         50.7269         282.755 
        1.06154         258.874         50.0505         281.374 
        1.06769         256.827         49.3855         279.598 
        1.07382         255.276         48.7348         278.045 
        1.07993          253.69         48.0973           276.7 
        1.08607         252.403         47.4687         274.538 
        1.09222         250.065         46.8507          273.16 
        1.09836         249.276         46.2445         272.136 
        1.10449          247.49         45.6498         270.599 
        1.11063         245.653          45.065         268.682 
        1.11677         243.392         44.4906         267.059 
         1.1229         243.003         43.9273         265.736 
        1.12903           240.6         43.3733         264.487 
        1.13518         239.004         42.8285         262.714 
        1.14131         238.144         42.2933         261.227 
        1.14745         235.501         41.7677         259.639 
        1.15359          233.86         41.2509         258.618 
        1.15973         233.006         40.7426          257.15 
        1.16584         231.396         40.2452         255.733 
        1.17197         230.193         39.7555         254.743 
        1.17811          227.99         39.2724         253.133 
        1.18424         226.788         38.7988         251.748 
        1.19038           225.9         38.3317         250.975 
        1.19652         223.099         37.8725          249.17 
        1.20267         222.678         37.4208         247.722 
        1.20881         220.816         36.9766         246.531 
        1.21495         220.287         36.5404         245.043 
        1.22108         218.528         36.1113         243.519 
         1.2272         216.333         35.6901         242.071 
        1.23334         215.561         35.2747         241.042 
        1.23949         214.285          34.865          240.07 
        1.24562         212.921         34.4629         238.479 
        1.25174         211.751         34.0678         237.365 
        1.25789         209.726         33.6777         235.965 
        1.26402         209.338         33.2945         235.313 
        1.27014         208.323         32.9182         233.712 
        1.27628         206.573         32.5465         233.191 
        1.28244         204.906           32.18         232.041 
        1.28858         203.859         31.8195          230.53 
        1.29471         202.597         31.4655         228.687 
        1.30084         201.805         31.1171         227.741 
        1.30697         199.847         30.7735         226.903 
        1.31312          198.73         30.4347         225.456 
        1.31925          197.47          30.102         224.405 
        1.32537         196.802         29.7747         223.179 
        1.33151         195.265          29.451         222.125 
        1.33765         193.869         29.1324         221.137 
        1.34378         193.156         28.8192         220.115 
        1.34992         191.366         28.5103         218.662 
        1.35606          190.62         28.2053         217.382 
         1.3622          189.16         27.9054         216.687 
        1.36833         188.173         27.6105         215.785 
        1.37445          187.87         27.3201          213.99 
        1.38059         185.569         27.0329         213.351 
        1.38675          184.43         26.7492          212.59 
        1.39288         183.484         26.4707         210.725 
        1.39901         181.987         26.1963         209.971 
        1.40515         181.507         25.9252          209.02 
         1.4113         180.142         25.6581         207.852 
        1.41742         178.738         25.3957         207.006 
        1.42355         178.482         25.1365         205.795 
         1.4297         177.025         24.8802         204.805 
        1.43585         176.283         24.6275         204.155 
        1.44198          174.59         24.3793         203.083 
        1.44809         173.913         24.1351         202.195 
        1.45423         172.887         23.8933         200.621 
        1.46036         171.825         23.6552         199.859 
        1.46649          170.68         23.4203         199.255 
        1.47263             170         23.1884         198.139 
        1.47877         168.751         22.9598         196.887 
        1.48491         167.414         22.7339         195.793 
        1.49104         165.936         22.5115         195.277 
        1.49718         165.618          22.292         194.408 
        1.50333         164.014          22.075         193.372 
        1.50947         163.406         21.8613         192.597 
         1.5156         162.337         21.6509         191.594 
        1.52172         161.556         21.4431         190.258 
        1.52787         160.631         21.2377         189.694 
          1.534         159.865         21.0353         188.865 
        1.54013         158.534         20.8357         187.906 
        1.54627         157.843         20.6383         187.203 
        1.55241         156.999         20.4435         186.339 
        1.55855         156.205         20.2515         185.245 
        1.56467         155.108         20.0624         184.358 
         1.5708         153.835         19.8753         183.536 
        1.57695         153.266         19.6902         182.681 
        1.58308         152.148          19.508         181.824 
        1.58922         151.282         19.3279         180.924 
        1.59535         150.179         19.1502         180.247 
         1.6015         149.483         18.9745         179.411 
        1.60764         148.434          18.801          178.44 
        1.61376         147.431         18.6303         177.679 
        1.61989         146.836         18.4615         176.889 
        1.62604         145.817         18.2944         175.876 
        1.63218          145.13         18.1295         175.102 
        1.63831         144.182          17.967         174.527 
        1.64444         143.018         17.8065         173.629 
        1.65059         142.442         17.6475         172.916 
        1.65673         141.561         17.4907         172.059 
        1.66285         140.948         17.3362         171.172 
        1.66898         139.963         17.1835         170.469 
        1.67512         138.978         17.0324         169.724 
        1.68127         138.403         16.8829         169.005 
         1.6874         137.392         16.7356         168.286 
        1.69353          136.91         16.5901         167.478 
        1.69967         135.839          16.446         166.683 
        1.70581         135.322         16.3037         166.032 
        1.71193         134.309         16.1636         165.315 
        1.71806         133.135         16.0248         164.277 
        1.72421         132.648         15.8874         163.627 
        1.73035         131.873         15.7518         163.018 
        1.73649         130.881         15.6178         162.206 
        1.74262         130.395         15.4855         161.516 
        1.74876         129.619         15.3546         160.839 
        1.75489         129.138         15.2255         160.133 
        1.76101         127.887         15.0979         159.458 
        1.76715         127.153         14.9717         158.849 
        1.77329         126.345         14.8467         158.059 
        1.77943         125.557          14.723         157.221 
        1.78557         124.925          14.601         156.565 
        1.79171         124.202         14.4804         155.935 
        1.79785         123.331          14.361         155.241 
        1.80399         122.777         14.2431         154.528 
        1.81012         122.064         14.1266         153.974 
        1.81625          121.31         14.0115         153.325 
        1.82239         120.719         13.8975         152.514 
        1.82853         119.744         13.7848         151.795 
        1.83466         118.832         13.6735         151.058 
        1.84078          118.53         13.5636         150.409 
        1.84692         118.046         13.4546         150.025 
        1.85306         117.098         13.3467          149.23 
         1.8592         116.548         13.2402         148.364 
        1.86533         115.615         13.1349          148.06 
        1.87147         115.074         13.0306         147.648 
        1.87761         114.301         12.9275         146.899 
