# k  (h/Mpc)    Pcb(k)  (Mpc/h)^3    Pcb_linear(k) (Mpc/h)^3    Pcb_NL(k) (Mpc/h)^3   ShotnoiseSubtracted = false
     0.00783031         137.264          138.32         137.685 
       0.013688         172.078         173.346         172.592 
       0.019231         177.466         177.952         177.116 
      0.0249154         166.357         166.552         166.033 
      0.0312784         145.428         145.481         145.374 
      0.0375637         123.995         124.008         124.018 
      0.0433917         107.522         107.317         107.411 
      0.0492413         94.8668         94.7811         94.8864 
      0.0555754         85.6662         85.4586          85.501 
      0.0619321         78.9399         79.0989         79.0996 
       0.067871         74.3465         74.3711         74.3197 
      0.0738098         69.6342          69.659         69.5729 
      0.0800417          64.088         64.0663          63.995 
      0.0862327         57.8075         57.8285         57.7991 
      0.0921407         51.6549         51.6766          51.684 
      0.0982031         45.8399         45.7677         45.8158 
       0.104506         40.5706         40.5922         40.6617 
       0.110769         36.6798         36.6829         36.7403 
       0.116806         34.0937         34.0302         34.0649 
       0.122832         32.2043         32.2182         32.2417 
       0.129052         30.8632          30.846         30.8511 
       0.135211         29.6304         29.6013         29.5979 
       0.141259         28.1875          28.211         28.2122 
       0.147318         26.4647         26.5325         26.5518 
       0.153489         24.5466         24.5732         24.5935 
       0.159709          22.514         22.5107         22.5507 
       0.165845         20.5346         20.5905         20.6532 
       0.171974          18.986         18.9458         19.0061 
       0.178125         17.6758         17.6468         17.7148 
       0.184229         16.6947          16.697         16.7595 
        0.19034          16.051         16.0087         16.0624 
       0.196428         15.4879          15.472         15.5109 
       0.202534         14.9218         14.9678         15.0061 
       0.208729         14.3951            14.4         14.4379 
       0.214876         13.7649         13.7376         13.7907 
       0.220989         12.9574         12.9903         13.0511 
       0.227147         12.2296         12.1962         12.2597 
        0.23329         11.4684         11.4266         11.5009 
       0.239377         10.7898         10.7413         10.8199 
       0.245482         10.2096         10.1636         10.2341 
       0.251667         9.71671         9.69629         9.77067 
       0.257832          9.3761          9.3295         9.39937 
       0.263955         9.05175         9.02859         9.09292 
       0.270079         8.77064         8.75272         8.81387 
        0.27624         8.46395         8.46792         8.52571 
       0.282372         8.15836         8.15842         8.22197 
        0.28843         7.85563         7.82509         7.89147 
       0.294538         7.49827         7.47174         7.54097 
       0.300721         7.12554         7.11609         7.19013 
        0.30691          6.8163          6.7812         6.85667 
       0.313033         6.51565         6.48548          6.5586 
       0.319153         6.29158         6.23031         6.30561 
       0.325316         6.02842         6.01184         6.08806 
        0.33145         5.83995         5.82306         5.89433 
       0.337538         5.67567          5.6524         5.72075 
       0.343633         5.51718         5.48621         5.55337 
       0.349808         5.33782         5.31492         5.38499 
       0.355968          5.1547         5.13711         5.21542 
       0.362074         4.98667         4.95596         5.03053 
       0.368217         4.80227         4.77332         4.84223 
       0.374374         4.64307         4.59611         4.66992 
       0.380519         4.46019         4.43076         4.50186 
       0.386598         4.30543         4.28123         4.35404 
       0.392688         4.16527         4.14649         4.21849 
        0.39888         4.05003         4.02262           4.094 
       0.405048          3.9377         3.90881         3.97518 
       0.411186         3.82632         3.80133         3.87386 
       0.417313         3.72328         3.69614         3.76605 
       0.423458         3.60772         3.59068         3.66149 
       0.429607         3.51491         3.48503         3.55339 
       0.435692         3.41325         3.38088         3.45165 
       0.441815         3.30483         3.27818         3.35245 
       0.447964         3.19611         3.17923         3.25065 
       0.454126         3.11415         3.08547         3.15584 
       0.460267         3.03463         2.99801         3.07014 
       0.466387         2.94917         2.91689         2.98531 
        0.47254         2.87576         2.84041         2.90926 
       0.478662         2.79969         2.76798         2.83509 
       0.484765         2.73135         2.69835         2.76543 
       0.490885         2.65829         2.63027         2.70205 
       0.497035         2.58375         2.56291         2.63548 
       0.503198         2.52476         2.49631         2.56298 
       0.509342         2.45261         2.43133         2.49944 
       0.515458         2.39678         2.36859         2.43971 
       0.521598         2.33663          2.3079         2.37354 
       0.527764         2.28486         2.24952         2.31477 
       0.533884         2.21758         2.19433         2.25927 
           0.54         2.16868         2.14191          2.2056 
       0.546137         2.11331         2.09158         2.15688 
       0.552299         2.06786         2.04287         2.10328 
       0.558452           2.021         1.99567         2.05715 
       0.564573         1.97608         1.94993         2.01607 
       0.570708         1.93122         1.90523         1.96968 
       0.576825         1.88804         1.86172         1.92464 
       0.582926         1.84193         1.81939          1.8833 
       0.589034         1.80711         1.77817         1.84416 
       0.595184         1.76872         1.73801         1.79711 
       0.601379         1.72512         1.69905          1.7632 
       0.607522         1.68641         1.66188         1.72456 
       0.613639         1.64662         1.62619         1.68764 
       0.619772         1.61788         1.59157         1.65496 
       0.625918         1.58337         1.55791         1.61858 
       0.632068         1.55095         1.52516         1.58455 
       0.638161         1.51814         1.49358           1.553 
         0.6443         1.48621         1.46262         1.52057 
       0.650464         1.45702         1.43236         1.49292 
       0.656582         1.43045         1.40313         1.46248 
       0.662703         1.40072         1.37467         1.43278 
       0.668861         1.36732         1.34683         1.40672 
       0.675024         1.34261         1.31975         1.37814 
       0.681124         1.32488         1.29373         1.35089 
       0.687237         1.29415         1.26843         1.32317 
       0.693381         1.26487         1.24375         1.29707 
       0.699536          1.2466         1.21972         1.27376 
       0.705665         1.22262         1.19645         1.25402 
       0.711789         1.19557         1.17381         1.23007 
       0.717957         1.17477         1.15158         1.20573 
        0.72409         1.15272         1.13003         1.18451 
       0.730186          1.1356         1.10912         1.16183 
       0.736317         1.11103         1.08861         1.14046 
       0.742472         1.09348         1.06855         1.12321 
       0.748622         1.07443           1.049         1.10378 
        0.75476         1.05271         1.03001         1.08212 
       0.760888         1.03731         1.01153          1.0638 
       0.767043         1.01101        0.993449         1.04621 
       0.773185        0.997053        0.975867         1.02917 
       0.779291        0.983868        0.958823         1.01159 
       0.785407        0.964928         0.94217        0.993833 
       0.791564        0.948121        0.925813        0.977364 
       0.797719        0.931692        0.909853        0.959288 
       0.803834        0.915655        0.894369        0.944372 
       0.809972        0.900916        0.879186        0.930752 
       0.816124        0.885454        0.864321        0.913692 
       0.822261        0.872149        0.849837        0.898515 
       0.828378        0.856444        0.835729        0.884435 
       0.834502        0.842476         0.82193        0.869428 
       0.840667         0.83044        0.808355        0.856445 
       0.846816         0.81657        0.795127        0.845102 
       0.852925        0.801733        0.782281         0.83058 
       0.859047        0.789455        0.769695        0.819442 
       0.865192        0.777533        0.757348        0.805622 
       0.871341        0.766607        0.745267        0.792807 
       0.877463        0.752119        0.733506        0.780127 
       0.883569        0.741243        0.722032        0.769557 
       0.889708        0.731048        0.710746        0.757965 
       0.895864        0.719889        0.699675        0.746006 
       0.902008        0.707452        0.688864        0.735069 
       0.908149        0.698143        0.678289         0.72449 
       0.914301        0.689002        0.667921        0.713129 
       0.920448        0.678521         0.65778        0.702476 
       0.926574        0.669584        0.647886        0.692999 
       0.932687        0.659458        0.638217        0.681506 
       0.938823        0.647451        0.628712        0.674244 
       0.944975        0.639625        0.619381        0.662391 
       0.951105         0.62823        0.610273        0.653228 
       0.957225        0.619357        0.601365        0.645291 
       0.963368        0.611968        0.592606        0.635439 
       0.969511        0.604183        0.584022        0.626885 
       0.975621        0.593982        0.575655        0.616569 
       0.981748        0.583989        0.567432        0.608381 
       0.987916        0.576677        0.559319        0.601905 
        0.99406        0.569845        0.551396        0.594129 
        1.00019        0.561546        0.543643        0.585918 
        1.00632         0.55555        0.536047        0.577092 
        1.01246        0.547465        0.528586        0.569171 
        1.01859        0.539907         0.52128         0.56235 
        1.02471        0.531325        0.514122        0.554974 
        1.03085        0.523589        0.507075        0.546487 
        1.03698        0.517968        0.500175        0.539154 
        1.04314        0.510921        0.493376        0.532585 
        1.04929        0.505372        0.486719        0.525835 
        1.05541        0.496733        0.480212        0.519755 
        1.06154        0.491212        0.473809         0.51304 
        1.06769        0.485244        0.467514         0.50642 
        1.07382        0.478834        0.461354        0.499895 
        1.07993        0.472987        0.455319        0.493524 
        1.08607        0.466488        0.449368        0.487797 
        1.09222         0.46024        0.443518        0.480932 
        1.09836        0.454687         0.43778        0.475528 
        1.10449        0.448381         0.43215        0.469734 
        1.11063          0.4427        0.426613        0.463186 
        1.11677        0.438164        0.421176        0.458346 
         1.1229        0.431178        0.415843        0.452756 
        1.12903        0.426867        0.410599        0.447119 
        1.13518        0.421309        0.405441        0.441764 
        1.14131        0.416635        0.400375        0.436652 
        1.14745        0.412884        0.395399        0.430597 
        1.15359        0.406653        0.390506        0.426245 
        1.15973        0.402448        0.385695        0.421519 
        1.16584        0.396893        0.380986        0.415921 
        1.17197         0.39177         0.37635        0.411429 
        1.17811         0.38689        0.371777        0.407025 
        1.18424        0.382546        0.367294        0.401566 
        1.19038        0.377411        0.362872        0.397126 
        1.19652        0.374591        0.358524        0.392962 
        1.20267        0.370083        0.354249        0.387491 
        1.20881        0.364113        0.350044        0.383747 
        1.21495        0.360715        0.345914        0.380366 
        1.22108        0.356892        0.341852        0.375177 
         1.2272        0.352044        0.337865        0.370585 
        1.23334        0.348339        0.333933         0.36686 
        1.23949         0.34516        0.330054        0.363292 
        1.24562        0.340992        0.326248        0.359196 
        1.25174        0.337193        0.322507        0.354825 
        1.25789        0.332341        0.318815        0.350971 
        1.26402        0.329696        0.315186        0.347228 
        1.27014        0.324989        0.311624        0.343302 
        1.27628        0.322265        0.308106        0.339443 
        1.28244        0.318696        0.304636        0.335942 
        1.28858        0.314581        0.301224        0.331919 
        1.29471        0.311392        0.297872        0.328746 
        1.30084        0.307889        0.294574        0.326007 
        1.30697        0.305444        0.291322        0.322266 
        1.31312        0.302006        0.288114        0.318703 
        1.31925         0.29849        0.284964        0.315761 
        1.32537        0.295368        0.281866        0.312536 
        1.33151        0.292218        0.278802        0.309255 
        1.33765        0.288899        0.275786        0.306056 
        1.34378        0.285462         0.27282        0.302951 
        1.34992         0.28357        0.269896        0.299931 
        1.35606        0.280029        0.267009        0.296407 
         1.3622        0.277219         0.26417        0.293549 
        1.36833        0.274863        0.261379        0.290914 
        1.37445        0.272159        0.258629        0.288146 
        1.38059        0.269013        0.255911        0.285008 
        1.38675        0.265854        0.253225        0.282015 
        1.39288        0.262701        0.250589        0.279158 
        1.39901        0.260983        0.247991        0.276584 
        1.40515        0.257975        0.245425        0.273728 
         1.4113        0.255986        0.242895        0.271342 
        1.41742        0.253338        0.240412        0.269281 
        1.42355        0.249742        0.237958        0.265558 
         1.4297        0.248404        0.235531        0.263808 
        1.43585        0.245279         0.23314        0.261032 
        1.44198        0.243289         0.23079        0.257722 
        1.44809        0.240582        0.228478        0.256325 
        1.45423        0.238372        0.226189        0.252966 
        1.46036        0.236012        0.223935        0.250893 
        1.46649        0.233699        0.221711        0.249098 
        1.47263        0.230723        0.219516        0.246481 
        1.47877        0.229968        0.217352         0.24419 
        1.48491        0.226525        0.215213        0.242228 
        1.49104        0.225568        0.213108        0.239303 
        1.49718        0.222817         0.21103        0.237811 
        1.50333        0.220883        0.208976        0.234887 
        1.50947         0.21895        0.206953        0.232608 
         1.5156        0.216618        0.204961        0.231043 
        1.52172         0.21482        0.202994         0.22861 
        1.52787        0.212147         0.20105        0.226477 
          1.534        0.210822        0.199133        0.224756 
        1.54013        0.208677        0.197244        0.222675 
        1.54627        0.207045        0.195375        0.220503 
        1.55241        0.204915        0.193531        0.218525 
        1.55855        0.203105        0.191713        0.216578 
        1.56467        0.201408        0.189924         0.21487 
         1.5708         0.19933        0.188152        0.212689 
        1.57695        0.197572          0.1864        0.210608 
        1.58308        0.195131        0.184675        0.209137 
        1.58922        0.194104         0.18297         0.20741 
        1.59535        0.192071        0.181288        0.205427 
         1.6015        0.190628        0.179624        0.203397 
        1.60764        0.188685        0.177983        0.201912 
        1.61376        0.187134        0.176366        0.200666 
        1.61989        0.185288        0.174768        0.198759 
        1.62604        0.183765        0.173186        0.196931 
        1.63218        0.182386        0.171625        0.195339 
        1.63831        0.180609        0.170087        0.193685 
        1.64444        0.179096        0.168568        0.191844 
        1.65059        0.177124        0.167063        0.190215 
        1.65673        0.175925        0.165578        0.188746 
        1.66285        0.174641        0.164115        0.187204 
        1.66898          0.1727         0.16267        0.185504 
        1.67512        0.171335        0.161239        0.183947 
        1.68127        0.169779        0.159824        0.182521 
         1.6874        0.168603         0.15843        0.181167 
        1.69353        0.167063        0.157052        0.179731 
        1.69967        0.165391        0.155688        0.177974 
        1.70581         0.16449        0.154341        0.176471 
        1.71193        0.163211        0.153015        0.175203 
        1.71806        0.161526        0.151701        0.173684 
        1.72421        0.160125        0.150401        0.172478 
        1.73035        0.158869        0.149117        0.171064 
        1.73649        0.157663        0.147848        0.169325 
        1.74262        0.156166        0.146596        0.168027 
        1.74876        0.155178        0.145357         0.16699 
        1.75489        0.153734        0.144134        0.165721 
        1.76101        0.152504        0.142927        0.164214 
        1.76715        0.151401        0.141731        0.163072 
        1.77329        0.149881        0.140548        0.161922 
        1.77943         0.14868        0.139378        0.160557 
        1.78557        0.147888        0.138223        0.159119 
        1.79171        0.146608         0.13708        0.157737 
        1.79785        0.145142        0.135951        0.156589 
        1.80399        0.143827        0.134834        0.155598 
        1.81012        0.143035        0.133732        0.154054 
        1.81625        0.141972        0.132642        0.152764 
        1.82239        0.141066        0.131563        0.152024 
        1.82853        0.139604        0.130496         0.15099 
        1.83466        0.138504        0.129442        0.149671 
        1.84078        0.137505        0.128401        0.148411 
        1.84692         0.13647         0.12737        0.147471 
        1.85306        0.135435        0.126349        0.146204 
         1.8592        0.134443         0.12534        0.144852 
        1.86533        0.133461        0.124344        0.143964 
        1.87147        0.132305        0.123356        0.142987 
