# k  (h/Mpc)    Pcb(k)  (Mpc/h)^3    Pcb_linear(k) (Mpc/h)^3    Pcb_NL(k) (Mpc/h)^3   ShotnoiseSubtracted = false
     0.00783031         5305.95          5335.5         5312.06 
       0.013688         6563.08          6677.4         6643.26 
       0.019231         6790.98         6851.72         6809.85 
      0.0249154         6422.29         6411.32         6376.79 
      0.0312784         5575.37         5599.43          5575.2 
      0.0375637            4732         4772.55         4753.24 
      0.0433917         4129.48         4129.99         4111.98 
      0.0492413         3628.74         3647.42          3631.7 
      0.0555754         3294.25         3288.58         3273.43 
      0.0619321         2986.76         3043.79         3028.19 
       0.067871         2838.95         2861.82         2846.17 
      0.0738098         2668.63         2680.47         2655.28 
      0.0800417         2461.61         2465.24         2443.26 
      0.0862327         2213.63         2225.19         2215.92 
      0.0921407         1983.12         1988.46          1983.5 
      0.0982031         1776.34         1761.08          1770.6 
       0.104506          1562.2         1561.93         1582.44 
       0.110769         1420.05          1411.5         1425.72 
       0.116806         1338.01         1309.42         1322.19 
       0.122832         1254.56          1239.7         1253.54 
       0.129052         1203.44          1186.9         1198.35 
       0.135211          1165.8            1139         1149.95 
       0.141259         1098.93          1085.5         1100.25 
       0.147318         1023.41         1020.92         1043.48 
       0.153489         956.865         945.524         962.475 
       0.159709          894.09         866.163         891.454 
       0.165845          807.47         792.277         830.206 
       0.171974         769.846         728.988         766.158 
       0.178125         724.347         679.007          723.34 
       0.184229         674.623         642.461         684.672 
        0.19034         657.386         615.974         655.639 
       0.196428         636.686         595.327          628.97 
       0.202534          600.89         575.926         610.554 
       0.208729         589.949         554.076         586.641 
       0.214876         567.386         528.591         569.615 
       0.220989         528.283         499.833         544.536 
       0.227147         511.495         469.279         515.759 
        0.23329         486.661         439.665         492.044 
       0.239377         469.385         413.298         467.093 
       0.245482         442.912          391.07         441.033 
       0.251667         423.085         373.088         425.925 
       0.257832         417.083         358.975         409.723 
       0.263955         395.512         347.397         396.239 
       0.270079         382.525         336.782         384.896 
        0.27624         367.333         325.823          372.42 
       0.282372         357.719         313.915         362.137 
        0.28843         353.948         301.089         350.067 
       0.294538         335.925         287.493         338.669 
       0.300721         321.922         273.808         327.438 
        0.30691         315.303         260.922         316.077 
       0.313033         300.645         249.544         303.161 
       0.319153          294.63         239.725         293.717 
       0.325316         285.736         231.319         286.071 
        0.33145         277.963         224.055         275.946 
       0.337538          268.89         217.489         268.525 
       0.343633         260.664         211.095         264.054 
       0.349808         253.463         204.504         258.385 
       0.355968         247.369         197.662         252.928 
       0.362074         241.099         190.692          245.71 
       0.368217         236.638         183.664         237.171 
       0.374374         230.611         176.846         230.994 
       0.380519         220.771         170.484         224.154 
       0.386598         216.514          164.73         218.924 
       0.392688         210.545         159.546         213.383 
        0.39888         206.094         154.779          207.72 
       0.405048         201.719           150.4         204.268 
       0.411186         198.853         146.265         199.623 
       0.417313         194.161         142.217         194.147 
       0.423458         189.289         138.159          190.48 
       0.429607         185.113         134.095         186.567 
       0.435692         181.667         130.087         182.454 
       0.441815         177.152         126.135         179.909 
       0.447964         171.794         122.328         175.433 
       0.454126         168.703          118.72         170.429 
       0.460267         167.034         115.355         168.334 
       0.466387         163.248         112.234         164.438 
        0.47254           161.3         109.291         161.501 
       0.478662         155.904         106.504         158.384 
       0.484765          153.77         103.825         154.427 
       0.490885         150.814         101.205         152.482 
       0.497035         149.315         98.6135         150.336 
       0.503198         146.381         96.0511          147.46 
       0.509342         142.518         93.5509          145.18 
       0.515458         140.723         91.1366         143.479 
       0.521598         137.266         88.8015          139.85 
       0.527764         135.833         86.5554         136.877 
       0.533884         134.913         84.4318         134.935 
           0.54         131.246         82.4146         132.791 
       0.546137         128.211          80.478         131.192 
       0.552299         126.547         78.6038         128.323 
       0.558452         124.203         76.7877         126.173 
       0.564573         123.586         75.0278          124.91 
       0.570708         120.129         73.3079         122.983 
       0.576825         118.798         71.6339         120.723 
       0.582926         117.468          70.005         118.896 
       0.589034         115.461          68.419         117.691 
       0.595184         114.092         66.8739         115.592 
       0.601379          111.41         65.3745         114.453 
       0.607522         109.572         63.9443         112.056 
       0.613639         108.589         62.5711         110.892 
       0.619772         106.837         61.2391         109.042 
       0.625918         105.832         59.9439         108.005 
       0.632068         103.813         58.6838         106.161 
       0.638161         102.192         57.4688         105.242 
         0.6443         101.625         56.2773          103.52 
       0.650464         99.5088         55.1132          101.56 
       0.656582         99.0554         53.9885         100.874 
       0.662703         97.6874         52.8934         99.2068 
       0.668861         95.5892         51.8221         98.1795 
       0.675024         95.4507         50.7803         96.7045 
       0.681124         93.9085         49.7792         95.5527 
       0.687237         92.1673         48.8056         94.3149 
       0.693381         91.5514         47.8559          93.019 
       0.699536         90.4104         46.9313         92.3974 
       0.705665         89.0656         46.0361         91.5462 
       0.711789          87.844          45.165         89.6986 
       0.717957          86.739         44.3097         88.9981 
        0.72409           86.05         43.4802         88.4279 
       0.730186         85.4687         42.6758         87.3127 
       0.736317         83.9311         41.8868         86.0076 
       0.742472         82.8998         41.1146         85.1338 
       0.748622         81.6136         40.3627         84.0954 
        0.75476         81.1308         39.6317         83.1142 
       0.760888         80.6853         38.9207         82.0587 
       0.767043         79.0791         38.2251         81.6634 
       0.773185         78.1306         37.5486         80.9824 
       0.779291         77.2551         36.8928          80.035 
       0.785407         76.2472          36.252         78.8894 
       0.791564         76.1456         35.6227         78.1552 
       0.797719         75.0824         35.0086         77.6422 
       0.803834         74.3991         34.4128         76.5279 
       0.809972         73.7794         33.8286         75.8364 
       0.816124          72.899         33.2566         75.3206 
       0.822261         71.8883         32.6993         74.3569 
       0.828378         71.6801         32.1565         73.3479 
       0.834502         70.6297         31.6255         73.0698 
       0.840667         70.1505         31.1032          72.518 
       0.846816         69.3818         30.5942         71.7211 
       0.852925         68.6638         30.0999           71.04 
       0.859047         68.3901         29.6157         70.2266 
       0.865192         67.2809         29.1406         69.7562 
       0.871341         66.5659         28.6757         69.0199 
       0.877463         66.1373         28.2232         68.4991 
       0.883569         65.8914         27.7817         68.0299 
       0.889708         65.2035         27.3475         67.3321 
       0.895864         64.6044         26.9215         66.7778 
       0.902008         63.9263         26.5055         66.1101 
       0.908149         63.2362         26.0986         65.6441 
       0.914301         62.8711         25.6997         65.2083 
       0.920448         62.5987         25.3095         64.5496 
       0.926574         61.3595         24.9288         63.8324 
       0.932687         61.0588         24.5568         63.4515 
       0.938823           60.51         24.1911         62.7774 
       0.944975         59.8127          23.832         62.2815 
       0.951105         59.3659         23.4816         61.9556 
       0.957225         59.1491         23.1388         61.4413 
       0.963368         58.5377         22.8018         60.7384 
       0.969511         58.0337         22.4715         60.2992 
       0.975621         57.5922         22.1496         60.1933 
       0.981748         56.9904         21.8332         59.5524 
       0.987916         56.5524          21.521         59.2168 
        0.99406         56.1991         21.2161          58.664 
        1.00019         55.6113         20.9178         58.1789 
        1.00632         55.1906         20.6256         57.7646 
        1.01246         54.7811         20.3385         57.2671 
        1.01859          54.486         20.0574         56.9476 
        1.02471         53.8484          19.782         56.6036 
        1.03085         53.5282         19.5108          56.083 
        1.03698         53.1746         19.2453         55.6377 
        1.04314         52.7725         18.9837         55.1674 
        1.04929         52.2104         18.7275         54.9407 
        1.05541         51.9917         18.4772         54.7252 
        1.06154         51.6651         18.2308         54.2065 
        1.06769         50.9544         17.9886         53.8372 
        1.07382         50.7082         17.7516         53.4529 
        1.07993         50.4189         17.5194         53.0387 
        1.08607         50.0293         17.2904         52.7002 
        1.09222         49.7627         17.0653          52.306 
        1.09836         49.3165         16.8445         51.9855 
        1.10449         49.0701         16.6279         51.5945 
        1.11063         48.5783         16.4148         51.1763 
        1.11677          48.464         16.2056         50.8337 
         1.1229          47.951         16.0005          50.627 
        1.12903         47.7475         15.7987         50.2731 
        1.13518         47.5946         15.6002         49.9086 
        1.14131         47.0498         15.4053         49.6364 
        1.14745         46.6363         15.2138         49.3148 
        1.15359         46.1678         15.0256         49.0673 
        1.15973         46.1075         14.8404         48.7245 
        1.16584         45.7577         14.6593         48.3291 
        1.17197         45.2136         14.4809         48.0908 
        1.17811          45.051         14.3049         47.6889 
        1.18424         44.4615         14.1324         47.4024 
        1.19038         44.3736         13.9623         47.2755 
        1.19652         44.1567          13.795         46.8394 
        1.20267          43.858         13.6305         46.6785 
        1.20881         43.5298         13.4687          46.334 
        1.21495         43.3634         13.3098         46.1416 
        1.22108         43.2009         13.1535         45.8064 
         1.2272         42.7739         13.0001          45.605 
        1.23334         42.5162         12.8488         45.2832 
        1.23949         42.2454         12.6995         44.9361 
        1.24562         41.9085         12.5531         44.7332 
        1.25174         41.6415         12.4092         44.5286 
        1.25789          41.602         12.2671          44.211 
        1.26402         41.2509         12.1275         43.9269 
        1.27014         41.0366         11.9904         43.7501 
        1.27628         40.6116          11.855         43.4789 
        1.28244         40.5571         11.7215         43.2717 
        1.28858         40.2074         11.5902         43.0181 
        1.29471         39.9538         11.4612         42.8239 
        1.30084          39.641         11.3344         42.4641 
        1.30697         39.5707         11.2092          42.194 
        1.31312         39.1985         11.0858         42.0912 
        1.31925         38.9029         10.9646         41.8131 
        1.32537         38.7122         10.8454         41.5953 
        1.33151          38.452         10.7275         41.3967 
        1.33765         38.3222         10.6114         41.1684 
        1.34378         38.1622         10.4973         40.9372 
        1.34992         37.8305         10.3848           40.75 
        1.35606         37.6117         10.2738         40.5932 
         1.3622         37.3824         10.1645         40.3615 
        1.36833         37.2377         10.0571         40.1443 
        1.37445         36.9038          9.9513         39.9103 
        1.38059         36.7783          9.8467          39.813 
        1.38675         36.4192         9.74337         39.5508 
        1.39288         36.3756         9.64193         39.3853 
        1.39901         36.0917         9.54198         39.1717 
        1.40515         35.9227         9.44323         38.9317 
         1.4113         35.8899         9.34591         38.7294 
        1.41742         35.6178         9.25034         38.5759 
        1.42355         35.2871         9.15594         38.3585 
         1.4297         35.1344         9.06256         38.1153 
        1.43585         34.8936         8.97054         38.0018 
        1.44198         34.7151         8.88014         37.8337 
        1.44809         34.5004         8.79116         37.5691 
        1.45423         34.3895         8.70308         37.3585 
        1.46036         34.2155         8.61637         37.2119 
        1.46649         34.0077         8.53081         37.0782 
        1.47263         33.7737         8.44635         36.9222 
        1.47877         33.6437         8.36307          36.734 
        1.48491          33.501         8.28078         36.5281 
        1.49104         33.2174         8.19978         36.3436 
        1.49718          33.148         8.11981         36.1761 
        1.50333         33.0198         8.04078         36.0419 
        1.50947         32.7322         7.96296         35.8944 
         1.5156         32.6006         7.88629         35.7198 
        1.52172         32.3587         7.81063         35.5385 
        1.52787         32.2454         7.73582         35.3649 
          1.534         32.0467         7.66207         35.2217 
        1.54013         31.9957         7.58937         35.0446 
        1.54627         31.6855         7.51748         34.8558 
        1.55241         31.5405         7.44651         34.7051 
        1.55855         31.4651         7.37656         34.5749 
        1.56467         31.2981         7.30771         34.4287 
         1.5708         31.1163         7.23954          34.283 
        1.57695         30.9774         7.17214         34.1137 
        1.58308         30.6951         7.10575         33.9398 
        1.58922         30.5501         7.04017         33.8103 
        1.59535          30.455         6.97543         33.6725 
         1.6015         30.3658         6.91143         33.5007 
        1.60764         30.1699         6.84825         33.3385 
        1.61376          29.977         6.78605         33.2102 
        1.61989         29.7789         6.72457         33.0706 
        1.62604         29.6601         6.66371         32.9497 
        1.63218         29.5328         6.60365         32.8374 
        1.63831         29.4181         6.54447          32.702 
        1.64444         29.2431         6.48599         32.5428 
        1.65059           29.09         6.42809         32.3948 
        1.65673         28.9695         6.37095         32.2443 
        1.66285         28.8768         6.31468         32.1206 
        1.66898          28.649         6.25906         32.0266 
        1.67512          28.603         6.20401         31.8821 
        1.68127         28.4275         6.14957         31.7275 
         1.6874         28.2669          6.0959         31.5664 
        1.69353         28.1773         6.04291         31.3965 
        1.69967         28.0442         5.99043         31.3028 
        1.70581         27.8137         5.93859          31.237 
        1.71193         27.6774         5.88756         31.1182 
        1.71806         27.6152         5.83702         30.9163 
        1.72421          27.496         5.78698         30.7756 
        1.73035         27.3163         5.73758         30.7101 
        1.73649         27.1508         5.68877         30.6214 
        1.74262         26.9896         5.64057         30.4047 
        1.74876         26.9294          5.5929         30.2627 
        1.75489         26.7863         5.54587          30.193 
        1.76101         26.6876          5.4994         30.1013 
        1.76715         26.5864          5.4534         29.9655 
        1.77329         26.3641         5.40788         29.8284 
        1.77943         26.3279         5.36285          29.709 
        1.78557         26.1963          5.3184         29.5958 
        1.79171         26.0794         5.27445         29.4768 
        1.79785         25.9419         5.23099         29.3861 
        1.80399         25.8149         5.18803         29.3199 
        1.81012         25.7492          5.1456           29.13 
        1.81625         25.5271         5.10367         28.9635 
        1.82239         25.4395         5.06215         28.8979 
        1.82853         25.3218         5.02111         28.8053 
        1.83466         25.2009         4.98056         28.7001 
        1.84078         25.0771         4.94051         28.5984 
        1.84692         25.0008         4.90082         28.4913 
        1.85306          24.825         4.86153          28.386 
         1.8592         24.7975         4.82273         28.2803 
        1.86533           24.61         4.78438         28.1672 
        1.87147         24.4876          4.7464         28.0539 
