# k  (h/Mpc)    Pcb(k)  (Mpc/h)^3    Pcb_linear(k) (Mpc/h)^3    Pcb_NL(k) (Mpc/h)^3   ShotnoiseSubtracted = false
     0.00783031         8846.83         8890.85          8850.4 
       0.013688         10889.6         11121.6           11058 
       0.019231         11277.7         11410.3         11329.3 
      0.0249154         10694.3         10676.1         10600.7 
      0.0312784          9257.7         9323.74         9258.47 
      0.0375637         7845.19         7946.68         7891.34 
      0.0433917            6858         6876.65         6820.85 
      0.0492413         6019.65         6073.08         6022.61 
      0.0555754         5468.63         5475.55         5429.49 
      0.0619321         4933.51         5067.94         5021.85 
       0.067871         4697.94         4764.94         4720.94 
      0.0738098         4424.08         4462.97         4393.58 
      0.0800417         4079.75          4104.6         4043.51 
      0.0862327          3667.7         3704.92         3676.99 
      0.0921407         3293.42         3310.75          3293.2 
      0.0982031         2960.86         2932.16         2952.21 
       0.104506         2603.98         2600.57         2649.57 
       0.110769         2373.46         2350.11            2384 
       0.116806         2243.98         2180.15         2210.77 
       0.122832         2103.69         2064.06         2097.32 
       0.129052         2012.07         1976.15         2003.98 
       0.135211         1957.06          1896.4         1922.02 
       0.141259         1838.02         1807.33          1843.6 
       0.147318         1710.69         1699.79         1754.08 
       0.153489          1603.9         1574.27         1615.69 
       0.159709         1511.85         1442.13         1504.94 
       0.165845         1366.24         1319.11         1412.78 
       0.171974         1312.24         1213.74         1307.66 
       0.178125         1244.27         1130.52          1242.3 
       0.184229          1151.9         1069.67         1174.65 
        0.19034         1127.87         1025.58         1125.14 
       0.196428         1095.05         991.197         1078.47 
       0.202534         1030.21         958.896         1048.44 
       0.208729          1014.6         922.516         1005.19 
       0.214876         974.036         880.084         982.021 
       0.220989         911.732         832.204         944.049 
       0.227147         885.427         781.331         899.641 
        0.23329         845.811         732.025         863.563 
       0.239377         825.891         688.124         821.718 
       0.245482         780.532         651.117         777.268 
       0.251667         748.611         621.177         753.502 
       0.257832         738.843         597.679         725.139 
       0.263955         701.095         578.402         702.184 
       0.270079         678.943         560.728         683.425 
        0.27624          651.52         542.483         662.801 
       0.282372         638.247         522.655         646.504 
        0.28843          632.32         501.301         627.548 
       0.294538          599.33         478.664         609.404 
       0.300721         580.197         455.879         590.512 
        0.30691         569.176         434.425         574.235 
       0.313033          543.01          415.48         551.908 
       0.319153         533.461         399.133         535.135 
       0.325316         523.179         385.137         522.721 
        0.33145         511.029         373.043         503.871 
       0.337538          492.93          362.11         492.477 
       0.343633         478.486         351.464         487.126 
       0.349808         466.868          340.49         477.944 
       0.355968         457.582         329.099         468.886 
       0.362074         442.895         317.494         457.296 
       0.368217         439.288         305.794         442.691 
       0.374374         429.953         294.441         432.204 
       0.380519         412.534         283.848          420.75 
       0.386598         407.337         274.269         413.801 
       0.392688         397.456         265.637         402.038 
        0.39888         387.261         257.701         394.188 
       0.405048         379.929          250.41         388.939 
       0.411186         377.773         243.525         378.851 
       0.417313         371.569         236.786         370.576 
       0.423458         361.379          230.03         364.781 
       0.429607          351.91         223.262         357.714 
       0.435692         345.849         216.589          350.06 
       0.441815         339.956          210.01         346.496 
       0.447964         331.454         203.671         339.485 
       0.454126         326.992         197.665         330.016 
       0.460267         322.129         192.062         327.448 
       0.466387         316.063         186.864         320.746 
        0.47254         311.763         181.965          315.75 
       0.478662          303.72         177.325         309.743 
       0.484765         300.139         172.864          303.05 
       0.490885         296.487         168.503         299.279 
       0.497035         291.276         164.187         295.632 
       0.503198         289.489         159.921          291.04 
       0.509342         281.961         155.758         287.287 
       0.515458         278.026         151.739          284.31 
       0.521598         272.374         147.851         278.416 
       0.527764         269.073         144.111         274.448 
       0.533884          267.92         140.575         270.787 
           0.54         262.683         137.217         266.459 
       0.546137         256.849         133.993         263.448 
       0.552299         255.511         130.872         258.937 
       0.558452          251.06         127.848         255.727 
       0.564573         249.121         124.918         253.508 
       0.570708         244.246         122.055         250.606 
       0.576825           240.5         119.267          245.64 
       0.582926          238.25         116.555          242.85 
       0.589034         234.697         113.915         240.252 
       0.595184         232.892         111.342         235.888 
       0.601379         228.747         108.846         234.376 
       0.607522         224.257         106.465         231.043 
       0.613639         222.854         104.178         228.925 
       0.619772         221.156          101.96          226.55 
       0.625918         218.459         99.8041         223.626 
       0.632068         214.326          97.706         220.195 
       0.638161         212.545          95.683         219.051 
         0.6443         210.928         93.6994         216.443 
       0.650464         207.077         91.7612          212.45 
       0.656582         205.503         89.8885         210.806 
       0.662703         203.727         88.0653          208.98 
       0.668861         199.797         86.2816         206.687 
       0.675024         199.458         84.5471         204.234 
       0.681124         196.759         82.8803         201.937 
       0.687237         194.601         81.2593         199.739 
       0.693381         192.295          79.678         197.509 
       0.699536         190.443         78.1387         195.782 
       0.705665         188.332         76.6481         194.557 
       0.711789         186.197         75.1977         192.093 
       0.717957         184.161         73.7738         190.308 
        0.72409         182.255         72.3926         189.157 
       0.730186          182.65         71.0534         187.365 
       0.736317         179.552         69.7397         184.978 
       0.742472         177.135          68.454         183.278 
       0.748622         174.536         67.2021         181.244 
        0.75476         175.221         65.9851         180.034 
       0.760888          172.95         64.8013         177.628 
       0.767043         170.213         63.6431         176.621 
       0.773185         168.726         62.5168         175.463 
       0.779291         166.632         61.4249         173.484 
       0.785407         165.597         60.3581         171.667 
       0.791564         164.178         59.3102         170.544 
       0.797719         161.823         58.2878         169.583 
       0.803834         162.104         57.2958         167.729 
       0.809972         160.547         56.3232         166.346 
       0.816124         158.087         55.3708         165.112 
       0.822261          156.75          54.443          163.62 
       0.828378         156.531         53.5392         161.788 
       0.834502         154.171         52.6552         160.773 
       0.840667         153.751         51.7855         159.804 
       0.846816         151.792          50.938         158.402 
       0.852925         150.551         50.1151         157.126 
       0.859047         149.053         49.3088         155.939 
       0.865192         148.452         48.5178         154.719 
       0.871341         146.736         47.7439         153.276 
       0.877463         145.556         46.9905         152.437 
       0.883569         145.343         46.2554         151.531 
       0.889708         143.896         45.5324         150.206 
       0.895864         142.543         44.8231         149.424 
       0.902008         141.062         44.1305         147.849 
       0.908149         139.492         43.4531         146.602 
       0.914301         139.253         42.7889         145.804 
       0.920448         138.826         42.1392         144.759 
       0.926574         136.463         41.5054         143.348 
       0.932687         136.215          40.886         142.382 
       0.938823          135.17         40.2771         141.637 
       0.944975         133.903         39.6793         140.753 
       0.951105           132.7         39.0958         139.552 
       0.957225         132.305         38.5251         138.583 
       0.963368         130.943          37.964         137.237 
       0.969511          129.78         37.4141         136.441 
       0.975621         128.617         36.8781         136.475 
       0.981748         127.764         36.3513         135.191 
       0.987916         127.059         35.8315         134.352 
        0.99406          126.39          35.324          133.29 
        1.00019         125.273         34.8273         132.206 
        1.00632         124.402         34.3407         131.219 
        1.01246         123.497         33.8627         130.135 
        1.01859         122.762         33.3947         129.856 
        1.02471         121.877         32.9361         129.393 
        1.03085         120.852         32.4846         128.304 
        1.03698         119.921         32.0426         127.314 
        1.04314         119.347          31.607         126.594 
        1.04929         118.764         31.1806         125.972 
        1.05541         117.891         30.7637         125.288 
        1.06154         116.966         30.3535         124.577 
        1.06769         116.187         29.9502         123.853 
        1.07382         115.461         29.5556         123.091 
        1.07993         114.728          29.169         122.262 
        1.08607         113.886         28.7878         121.646 
        1.09222         113.246          28.413         120.979 
        1.09836         112.298         28.0454         120.079 
        1.10449         111.556         27.6847         119.387 
        1.11063         110.837           27.33          118.37 
        1.11677         110.152         26.9817         117.811 
         1.1229         109.288         26.6401         117.324 
        1.12903         108.782         26.3041         116.528 
        1.13518         107.971         25.9737         115.895 
        1.14131         107.344         25.6491         115.058 
        1.14745         106.765         25.3303         114.565 
        1.15359         105.553         25.0169          113.79 
        1.15973         105.284         24.7087         113.519 
        1.16584         104.606          24.407         112.443 
        1.17197         104.042           24.11         112.038 
        1.17811         103.116         23.8171         111.545 
        1.18424         102.566         23.5298         110.881 
        1.19038         102.222         23.2466         110.273 
        1.19652         101.424         22.9681         109.644 
        1.20267          100.73         22.6941         109.046 
        1.20881         100.059         22.4248          108.52 
        1.21495         99.5464         22.1602         107.699 
        1.22108         99.0444            21.9         107.471 
         1.2272         98.1841         21.6445         106.671 
        1.23334         97.9569         21.3926         106.361 
        1.23949         97.3268         21.1441         105.473 
        1.24562         96.4748         20.9003         104.897 
        1.25174          95.945         20.6607         104.452 
        1.25789         95.5203         20.4241         103.931 
        1.26402         95.0474         20.1917          103.41 
        1.27014         94.4233         19.9635         103.277 
        1.27628         93.5561         19.7381         102.795 
        1.28244         93.4634         19.5158         101.749 
        1.28858         92.5526         19.2972         101.211 
        1.29471          92.043         19.0825         100.896 
        1.30084         91.3881         18.8712         100.218 
        1.30697         91.2156         18.6629         99.8552 
        1.31312          90.506         18.4573         99.3143 
        1.31925         89.9148         18.2556         98.7747 
        1.32537         89.5059         18.0571         98.4011 
        1.33151          89.254         17.8608          97.812 
        1.33765         88.4606         17.6676         97.4088 
        1.34378         88.1392         17.4776         96.9146 
        1.34992           87.77         17.2903         96.4085 
        1.35606         87.0825         17.1054         95.8785 
         1.3622         86.8927         16.9234         95.4702 
        1.36833         86.0172         16.7446         94.9132 
        1.37445         85.6124         16.5685         94.4399 
        1.38059         85.2436         16.3943         94.0791 
        1.38675         84.4341         16.2223          93.442 
        1.39288         84.2181         16.0534         93.1184 
        1.39901         83.5093          15.887         92.7519 
        1.40515         83.1852         15.7226         92.4102 
         1.4113         82.8288         15.5605         92.0169 
        1.41742         82.1978         15.4014         91.4613 
        1.42355         81.9664         15.2442         90.9469 
         1.4297         81.3868         15.0888         90.5673 
        1.43585         80.8864         14.9356         90.0758 
        1.44198          80.439          14.785         89.7566 
        1.44809         79.8142         14.6369         89.2598 
        1.45423         79.6781         14.4903          88.808 
        1.46036         79.0403         14.3459         88.4619 
        1.46649         78.5404         14.2034         88.1786 
        1.47263         78.2771         14.0628         87.7751 
        1.47877         77.8332         13.9241         87.1061 
        1.48491         77.3472         13.7871          86.921 
        1.49104         76.7053         13.6523         86.5799 
        1.49718         76.5314         13.5191          86.014 
        1.50333         76.1386         13.3875         85.6112 
        1.50947         75.8409          13.258          85.239 
         1.5156         75.5213         13.1303         84.8827 
        1.52172         74.8364         13.0044         84.5751 
        1.52787         74.4287         12.8798         84.1254 
          1.534         74.0522          12.757         83.7919 
        1.54013         73.8389          12.636         83.3754 
        1.54627          73.149         12.5163         83.0005 
        1.55241         72.9287         12.3981         82.7069 
        1.55855         72.4261         12.2817         82.2271 
        1.56467         71.8034          12.167         81.8987 
         1.5708          71.629         12.0535         81.5965 
        1.57695          71.265         11.9413         81.2431 
        1.58308         70.9208         11.8308         80.9033 
        1.58922         70.6265         11.7216          80.493 
        1.59535         70.3812         11.6138         80.1374 
         1.6015         69.9888         11.5072         79.7428 
        1.60764         69.5355          11.402         79.4777 
        1.61376         69.1237         11.2985         79.3314 
        1.61989         68.6205         11.1961         78.9033 
        1.62604         68.4121         11.0948         78.3937 
        1.63218         68.1245         10.9948         78.0532 
        1.63831         67.7491         10.8963         77.8815 
        1.64444         67.4708         10.7989         77.5249 
        1.65059         66.9906         10.7025         76.9931 
        1.65673         66.5732         10.6074          76.758 
        1.66285           66.15         10.5137         76.5684 
        1.66898         65.7634         10.4211         76.1343 
        1.67512         65.5408         10.3294         75.8638 
        1.68127         65.2896         10.2388         75.4888 
         1.6874         64.8518         10.1494         75.0932 
        1.69353         64.4837         10.0612         74.9142 
        1.69967         64.2617          9.9738         74.6229 
        1.70581         63.8749         9.88749         74.2341 
        1.71193         63.4972         9.80253         73.9202 
        1.71806         63.1456         9.71839         73.7674 
        1.72421         62.9299         9.63507         73.4294 
        1.73035         62.6549         9.55282         73.0248 
        1.73649         62.2014         9.47156         72.7225 
        1.74262         61.7345          9.3913         72.4961 
        1.74876         61.6482         9.31193         72.1807 
        1.75489         61.1909         9.23363         71.8398 
        1.76101         60.8593         9.15627          71.538 
        1.76715         60.6959         9.07968         71.1977 
        1.77329         60.2171         9.00388         70.9565 
        1.77943         60.0724         8.92891         70.7012 
        1.78557         59.7478         8.85491         70.3099 
        1.79171         59.4266         8.78173         70.0223 
        1.79785         59.0909         8.70937         69.8116 
        1.80399         58.7905         8.63784         69.5361 
        1.81012         58.4947         8.56721         69.2488 
        1.81625         58.2366          8.4974         68.9426 
        1.82239         57.9294         8.42826         68.6706 
        1.82853          57.529         8.35993          68.498 
        1.83466         57.3085         8.29242           68.19 
        1.84078         57.0219         8.22573         67.8315 
        1.84692          56.844         8.15966           67.71 
        1.85306         56.4903         8.09424         67.4434 
         1.8592         56.2082         8.02964         67.0643 
        1.86533         55.8855         7.96578         66.8259 
        1.87147         55.6083         7.90254           66.48 
