# k  (h/Mpc)    Pcb(k)  (Mpc/h)^3    Pcb_linear(k) (Mpc/h)^3    Pcb_NL(k) (Mpc/h)^3   ShotnoiseSubtracted = false
     0.00783031         12471.9         12528.4           12469 
       0.013688         15287.1         15664.4         15564.8 
       0.019231         15841.7         16068.7         15938.3 
      0.0249154         15053.9         15033.8           14902 
      0.0312784         12998.9         13128.9         13001.6 
      0.0375637         11001.8         11189.6           11079 
      0.0433917         9629.26         9682.77         9568.05 
      0.0492413         8445.42          8551.2         8445.97 
      0.0555754          7673.4         7709.79         7615.65 
      0.0619321         6896.25         7135.82         7042.84 
       0.067871         6573.35         6709.16         6621.92 
      0.0738098         6201.09         6283.96         6147.69 
      0.0800417         5714.79         5779.35         5659.07 
      0.0862327         5137.86         5216.58         5159.14 
      0.0921407         4624.31         4661.57         4623.57 
      0.0982031         4170.55         4128.51         4161.04 
       0.104506         3670.53         3661.62         3749.13 
       0.110769         3353.83         3308.96         3370.59 
       0.116806         3176.94         3069.66         3125.48 
       0.122832         2981.76          2906.2          2966.4 
       0.129052         2841.91         2782.42         2833.57 
       0.135211         2773.27         2670.13         2715.45 
       0.141259         2596.65         2544.72         2611.11 
       0.147318         2419.27         2393.31         2489.77 
       0.153489         2273.09         2216.57          2292.3 
       0.159709         2157.95         2030.52          2145.7 
       0.165845         1954.54         1857.31         2026.85 
       0.171974         1884.11         1708.94          1882.4 
       0.178125         1798.84         1591.77         1796.72 
       0.184229          1658.6          1506.1         1696.88 
        0.19034         1630.71         1444.01         1626.35 
       0.196428          1585.8          1395.6         1560.28 
       0.202534         1492.54         1350.12         1518.54 
       0.208729         1470.01          1298.9         1453.31 
       0.214876         1408.54         1239.15         1424.64 
       0.220989         1328.33         1171.74         1376.08 
       0.227147         1290.32         1100.11         1319.26 
        0.23329         1235.17         1030.69         1270.98 
       0.239377         1217.22         968.875         1211.22 
       0.245482         1153.78         916.769         1148.68 
       0.251667         1109.46         874.613         1115.69 
       0.257832         1093.13         841.529          1074.7 
       0.263955         1041.01         814.386         1042.53 
       0.270079         1011.09         789.502         1016.14 
        0.27624          969.89         763.813         987.831 
       0.282372          954.88         735.895         967.606 
        0.28843         942.859         705.829         943.803 
       0.294538         895.609         673.956         917.208 
       0.300721          873.77         641.875         888.606 
        0.30691         855.273         611.668         869.455 
       0.313033         818.109         584.993          837.32 
       0.319153         806.528         561.976         811.916 
       0.325316         795.233          542.27         794.961 
        0.33145         777.663         525.242         766.564 
       0.337538         750.486         509.849         752.467 
       0.343633         731.196         494.859         745.606 
       0.349808         715.589         479.408         733.189 
       0.355968         702.034         463.369          720.58 
       0.362074         678.107         447.029         705.147 
       0.368217         675.798         430.555         684.615 
       0.374374         664.434          414.57         669.869 
       0.380519         638.873         399.656         653.469 
       0.386598         633.417         386.168         644.872 
       0.392688         618.155         374.015         626.462 
        0.39888         602.894         362.841         616.603 
       0.405048         591.393         352.575         607.742 
       0.411186         589.766         342.881         593.717 
       0.417313         584.184         333.393         583.961 
       0.423458         566.969          323.88         575.605 
       0.429607         551.072         314.351         564.629 
       0.435692         544.104         304.956         552.791 
       0.441815         534.541         295.692         548.613 
       0.447964         524.745         286.767         539.146 
       0.454126         518.631          278.31         524.205 
       0.460267         510.298         270.421         521.761 
       0.466387         501.682         263.104         511.802 
        0.47254         494.041         256.205         504.654 
       0.478662          484.74         249.673         495.607 
       0.484765          479.31         243.392          487.63 
       0.490885          474.28         237.251         480.314 
       0.497035         464.345         231.174         475.242 
       0.503198         463.936         225.168          468.82 
       0.509342         453.881         219.307          462.25 
       0.515458         445.578         213.647         458.348 
       0.521598         440.446         208.173         451.133 
       0.527764         432.532         202.907         445.997 
       0.533884         429.628         197.929         440.109 
           0.54         424.408           193.2         433.373 
       0.546137           416.3          188.66         428.222 
       0.552299         415.225         184.267         422.205 
       0.558452         408.446         180.009         418.181 
       0.564573         404.794         175.884         414.884 
       0.570708         399.721         171.852         410.757 
       0.576825         392.236         167.928         403.266 
       0.582926          390.35         164.109         399.457 
       0.589034         384.017         160.391         393.995 
       0.595184         381.092         156.769         388.928 
       0.601379         375.082         153.254         385.298 
       0.607522         368.084         149.901         380.343 
       0.613639         366.863         146.682         378.499 
       0.619772         365.257         143.559         376.787 
       0.625918          358.38         140.523         370.528 
       0.632068         355.496         137.569         366.711 
       0.638161         352.336         134.721         363.327 
         0.6443         348.212         131.928         360.099 
       0.650464         343.812         129.199          353.64 
       0.656582         340.677         126.562          351.16 
       0.662703         338.228         123.995         349.421 
       0.668861         332.439         121.484         346.483 
       0.675024         330.946         119.042         343.245 
       0.681124         326.413         116.695         337.766 
       0.687237         324.415         114.412         334.855 
       0.693381         319.874         112.186         331.815 
       0.699536         318.276         110.019         329.526 
       0.705665         314.579          107.92         325.839 
       0.711789         312.475         105.878         323.776 
       0.717957         308.671         103.873         321.898 
        0.72409         304.972         101.928          318.79 
       0.730186           306.7         100.043         315.771 
       0.736317         300.939          98.193         312.613 
       0.742472         298.319         96.3827         309.579 
       0.748622         295.246           94.62         306.896 
        0.75476         294.407         92.9064         306.773 
       0.760888         291.063         91.2396         302.413 
       0.767043         287.903          89.609         300.275 
       0.773185         286.145         88.0231         297.997 
       0.779291          282.29         86.4857          294.91 
       0.785407         280.977         84.9837         293.075 
       0.791564         278.607         83.5083         290.829 
       0.797719         274.125         82.0687         288.514 
       0.803834          276.04          80.672         287.059 
       0.809972         271.692         79.3025         284.744 
       0.816124         268.276         77.9616         281.467 
       0.822261         266.158         76.6552         280.029 
       0.828378          265.54         75.3827         277.664 
       0.834502         261.556          74.138         275.989 
       0.840667         261.851         72.9135         273.535 
       0.846816         256.952         71.7203         272.056 
       0.852925         257.038         70.5616         270.122 
       0.859047         254.508         69.4264         268.245 
       0.865192         253.875         68.3127         265.908 
       0.871341         250.339         67.2229         264.219 
       0.877463          248.42         66.1622         262.672 
       0.883569         247.419         65.1272         261.468 
       0.889708         244.948         64.1092         258.786 
       0.895864         242.645         63.1106         257.266 
       0.902008         240.855         62.1354         255.416 
       0.908149         238.866         61.1816         253.249 
       0.914301         237.308         60.2463         251.516 
       0.920448         236.435         59.3316         249.688 
       0.926574         234.243         58.4392         248.011 
       0.932687          233.21         57.5671         246.451 
       0.938823          230.91         56.7098         245.567 
       0.944975         230.116          55.868         243.865 
       0.951105          227.53         55.0465         242.024 
       0.957225         225.674          54.243         240.362 
       0.963368         225.471         53.4529          238.76 
       0.969511         221.469         52.6787         236.987 
       0.975621         220.281          51.924         236.096 
       0.981748         219.568         51.1823         234.732 
       0.987916         218.363         50.4505         233.276 
        0.99406         216.332         49.7358         231.735 
        1.00019         214.949         49.0365         229.845 
        1.00632         214.174         48.3514         228.301 
        1.01246         212.223         47.6784         226.492 
        1.01859         210.092         47.0194         225.516 
        1.02471         208.549         46.3737          224.61 
        1.03085         207.523         45.7381         223.425 
        1.03698          206.44         45.1157         222.512 
        1.04314         205.763         44.5024         220.628 
        1.04929         204.346         43.9019         219.063 
        1.05541         202.702         43.3151         217.867 
        1.06154         200.847         42.7375         216.631 
        1.06769         199.651         42.1696         215.554 
        1.07382         198.872          41.614         214.158 
        1.07993         196.743         41.0697         213.021 
        1.08607         195.856         40.5329         211.629 
        1.09222         194.262         40.0052         210.528 
        1.09836         193.691         39.4876         209.656 
        1.10449         191.947         38.9798         208.541 
        1.11063          190.58         38.4804         207.167 
        1.11677         189.513           37.99         205.629 
         1.1229         188.413          37.509         204.724 
        1.12903         187.044         37.0359         203.769 
        1.13518         185.691         36.5707         202.461 
        1.14131         184.977         36.1137           201.2 
        1.14745         183.084         35.6649         200.247 
        1.15359         181.671         35.2236         199.112 
        1.15973         181.285         34.7896         198.011 
        1.16584         180.128         34.3649         196.415 
        1.17197          179.05         33.9467          196.04 
        1.17811         177.455         33.5342         194.964 
        1.18424         176.587         33.1298          193.61 
        1.19038         175.624         32.7309         193.074 
        1.19652         173.779         32.3388         191.996 
        1.20267         173.113         31.9531         190.585 
        1.20881         171.737         31.5739         189.811 
        1.21495         171.559         31.2014         188.705 
        1.22108         170.103          30.835         187.699 
         1.2272         168.667         30.4753         186.154 
        1.23334         167.985         30.1206         185.717 
        1.23949         167.189         29.7708         185.031 
        1.24562          165.91         29.4274          183.53 
        1.25174         165.053         29.0901         182.844 
        1.25789          163.56          28.757         181.749 
        1.26402         163.315         28.4297         180.967 
        1.27014         162.493         28.1084         180.216 
        1.27628          160.88         27.7911          179.72 
        1.28244         159.972          27.478         178.514 
        1.28858         158.965         27.1703         177.413 
        1.29471         158.019         26.8679         176.268 
        1.30084         157.025         26.5705         175.428 
        1.30697         155.883         26.2771         174.748 
        1.31312          154.99         25.9878         173.515 
        1.31925         153.974         25.7037         172.707 
        1.32537         153.439         25.4242         172.191 
        1.33151         152.442         25.1479         171.187 
        1.33765         151.214         24.8758          170.26 
        1.34378         150.879         24.6083         169.621 
        1.34992         149.803         24.3446         168.413 
        1.35606         148.947         24.0842         167.488 
         1.3622          148.17          23.828         166.913 
        1.36833         146.726         23.5763         166.005 
        1.37445         146.664         23.3283         165.011 
        1.38059          145.24         23.0831         164.223 
        1.38675         144.505         22.8408         163.552 
        1.39288         143.437          22.603         162.123 
        1.39901         142.588         22.3687         161.835 
        1.40515         142.145         22.1372         161.347 
         1.4113         140.985         21.9091          160.45 
        1.41742         140.043         21.6851         159.704 
        1.42355         139.953         21.4637         158.969 
         1.4297         138.587         21.2449           158.2 
        1.43585         137.935         21.0291           157.2 
        1.44198         136.582         20.8172         156.675 
        1.44809         136.099         20.6086         155.891 
        1.45423         135.585         20.4021         154.909 
        1.46036         134.448         20.1989         154.216 
        1.46649         133.689         19.9983          153.78 
        1.47263         133.064         19.8003         153.213 
        1.47877         131.996         19.6051         152.138 
        1.48491         131.383         19.4122         151.387 
        1.49104          129.97         19.2223         151.097 
        1.49718         129.809         19.0348         149.966 
        1.50333         129.116         18.8495         149.179 
        1.50947          128.31         18.6671          148.71 
         1.5156         127.367         18.4874         147.979 
        1.52172         126.788           18.31         147.065 
        1.52787          126.12         18.1346         146.537 
          1.534         125.403         17.9618         145.915 
        1.54013         124.601         17.7913         145.276 
        1.54627         123.786         17.6228         144.699 
        1.55241         123.376         17.4564         143.973 
        1.55855         122.682         17.2925         143.164 
        1.56467         121.826          17.131         142.525 
         1.5708         120.733         16.9712         141.986 
        1.57695         120.498         16.8132         141.358 
        1.58308         119.558         16.6576         140.676 
        1.58922         119.245         16.5039         140.028 
        1.59535         118.554         16.3521         139.449 
         1.6015         117.492         16.2021         138.694 
        1.60764         116.802          16.054         137.977 
        1.61376         116.213         15.9081         137.596 
        1.61989          115.75          15.764         137.096 
        1.62604         114.829         15.6214           136.2 
        1.63218         114.343         15.4806         135.551 
        1.63831          113.53         15.3418         135.128 
        1.64444         112.782         15.2047         134.322 
        1.65059          112.21          15.069         133.903 
        1.65673         111.925         14.9351          133.25 
        1.66285         111.326         14.8031         132.568 
        1.66898         110.373         14.6728         132.172 
        1.67512         109.777         14.5437         131.546 
        1.68127         109.294         14.4161         131.004 
         1.6874         108.334         14.2903         130.541 
        1.69353         107.913         14.1661         129.901 
        1.69967         107.198          14.043         129.214 
        1.70581         106.903         13.9215         128.678 
        1.71193         106.059         13.8019         128.158 
        1.71806         105.292         13.6834         127.412 
        1.72421         104.809         13.5661         126.921 
        1.73035         104.272         13.4503          126.44 
        1.73649         103.463         13.3359         125.822 
        1.74262         103.227         13.2229         125.332 
        1.74876         102.394         13.1111         124.809 
        1.75489          102.03         13.0009          124.22 
        1.76101         101.337         12.8919         123.659 
        1.76715         100.575         12.7841         123.189 
        1.77329         100.121         12.6774         122.568 
        1.77943         99.5028         12.5718         121.939 
        1.78557         99.1388         12.4676         121.521 
        1.79171         98.5488         12.3646         121.099 
        1.79785         97.6913         12.2627         120.582 
        1.80399         97.5202          12.162         119.996 
        1.81012         96.5668         12.0625         119.395 
        1.81625         96.2043         11.9643         118.927 
        1.82239         95.7048         11.8669         118.513 
        1.82853          95.117         11.7707         117.942 
        1.83466         94.4209         11.6756         117.357 
        1.84078         94.1829         11.5817         116.901 
        1.84692         93.8436         11.4887         116.561 
        1.85306         93.1193         11.3966         116.002 
         1.8592         92.7363         11.3057         115.403 
        1.86533         91.9686         11.2157         115.043 
        1.87147         91.6801         11.1267         114.559 
