# k  (h/Mpc)    Pcb(k)  (Mpc/h)^3    Pcb_linear(k) (Mpc/h)^3    Pcb_NL(k) (Mpc/h)^3   ShotnoiseSubtracted = false
     0.00783031         2934.72         2952.77          2939.9 
       0.013688         3645.12         3696.78          3679.3 
       0.019231         3768.29         3793.74         3773.03 
      0.0249154         3554.67         3550.11         3534.89 
      0.0312784         3093.06         3100.66          3092.7 
      0.0375637         2628.79         2642.84          2637.3 
      0.0433917         2290.12         2287.04         2282.82 
      0.0492413         2014.65         2019.83         2016.49 
      0.0555754         1826.88         1821.13         1817.32 
      0.0619321         1664.15         1685.58         1681.34 
       0.067871         1578.29         1584.82         1580.01 
      0.0738098         1481.59          1484.4         1476.45 
      0.0800417         1366.33         1365.21         1358.37 
      0.0862327         1229.38         1232.28         1229.66 
      0.0921407         1099.69         1101.18         1100.23 
      0.0982031         981.987         975.261         979.081 
       0.104506          864.36         864.974         872.344 
       0.110769         784.045         781.669         786.901 
       0.116806         735.912         725.142         729.733 
       0.122832          690.98          686.53         691.406 
       0.129052         663.584          657.29         661.249 
       0.135211         640.688         630.766         634.609 
       0.141259         605.794         601.141         606.146 
       0.147318         565.181         565.373         573.128 
       0.153489         527.092         523.622         529.489 
       0.159709         488.901         479.672         488.283 
       0.165845         442.148         438.755         451.623 
       0.171974         417.849         403.707         416.118 
       0.178125         391.011         376.028         390.774 
       0.184229          366.11         355.789         369.971 
        0.19034         355.307         341.121         354.354 
       0.196428         343.378         329.686         340.659 
       0.202534         325.794         318.943         330.224 
       0.208729         318.317         306.842         317.696 
       0.214876         306.172         292.729         306.523 
       0.220989         284.955         276.803         291.753 
       0.227147         274.312         259.882          275.23 
        0.23329         259.733         243.483         260.908 
       0.239377         247.989         228.881         246.959 
       0.245482         234.011         216.571         233.169 
       0.251667         222.803         206.613         224.241 
       0.257832         218.645         198.797         215.707 
       0.263955         208.074         192.385         208.516 
       0.270079         201.332         186.507          202.28 
        0.27624         193.433         180.438         195.576 
       0.282372         187.528         173.843         189.712 
        0.28843         184.401         166.741         182.905 
       0.294538         175.446         159.211          176.09 
       0.300721         166.968         151.633         169.475 
        0.30691          162.67         144.497         162.713 
       0.313033         155.218         138.195         155.868 
       0.319153         151.852         132.758         150.724 
       0.325316         145.659         128.103         146.351 
        0.33145         141.181          124.08         141.353 
       0.337538         137.067         120.444         137.267 
       0.343633         133.159         116.902         134.115 
       0.349808         129.094         113.253         130.858 
       0.355968         125.308         109.464         127.868 
       0.362074         122.571         105.604         123.757 
       0.368217          119.13         101.712         119.142 
       0.374374          116.03         97.9357         115.817 
       0.380519         110.844         94.4124         112.017 
       0.386598         107.902         91.2262         108.918 
       0.392688         104.635         88.3551         106.117 
        0.39888         102.658         85.7156         103.016 
       0.405048         100.273         83.2904         100.607 
       0.411186         97.9651         81.0003         98.7074 
       0.417313         95.3068         78.7589         95.7707 
       0.423458         92.8283         76.5116         93.7319 
       0.429607         91.0569         74.2605          91.382 
       0.435692         89.3702         72.0412         89.2845 
       0.441815          86.202         69.8527         87.6383 
       0.447964         83.4571         67.7442         85.1194 
       0.454126         81.8978         65.7465         82.7243 
       0.460267         81.0983         63.8828           81.28 
       0.466387         78.9071         62.1541         79.1688 
        0.47254         77.8504         60.5245         77.6626 
       0.478662         75.1844         58.9813         75.9719 
       0.484765         73.8138         57.4975         74.0761 
       0.490885         71.8728         56.0468         73.0298 
       0.497035         71.0341         54.6114         71.7645 
       0.503198         69.2999         53.1924         69.9808 
       0.509342         67.4585         51.8078         68.7468 
       0.515458         66.5551         50.4707         67.7929 
       0.521598         64.9037         49.1776         65.8325 
       0.527764         64.0735         47.9337         64.1701 
       0.533884         63.0211         46.7577         63.0613 
           0.54         61.4833         45.6406         61.9475 
       0.546137         59.7553         44.5681         61.0581 
       0.552299         58.7726         43.5302         59.5802 
       0.558452         57.5719         42.5244         58.4225 
       0.564573         57.1668         41.5498         57.7131 
       0.570708         55.4699         40.5974         56.6829 
       0.576825         54.8765         39.6703         55.6447 
       0.582926         54.0428         38.7682         54.6773 
       0.589034         52.9687         37.8899         53.9475 
       0.595184          52.212         37.0342         52.8301 
       0.601379          50.831         36.2039         52.1324 
       0.607522         50.0362         35.4119         50.9256 
       0.613639         49.4055         34.6514         50.2069 
       0.619772         48.4783         33.9137         49.3753 
       0.625918          47.642         33.1965         48.8035 
       0.632068         47.1697         32.4986         47.8285 
       0.638161         46.1754         31.8258         47.1491 
         0.6443         45.6189          31.166         46.2843 
       0.650464         44.5249         30.5213         45.6033 
       0.656582         44.2495         29.8984         45.0337 
       0.662703         43.6565          29.292         44.1842 
       0.668861         42.5788         28.6987         43.6919 
       0.675024         42.1861         28.1218         42.8768 
       0.681124          41.764         27.5674         42.2406 
       0.687237          40.908         27.0282         41.6001 
       0.693381         40.2722         26.5022         40.9562 
       0.699536         39.9734         25.9902         40.6038 
       0.705665         39.2397         25.4944         40.0712 
       0.711789         38.5882          25.012         39.2328 
       0.717957         37.8851         24.5384         38.8763 
        0.72409         37.5294          24.079         38.4343 
       0.730186         37.3069         23.6335         37.8361 
       0.736317         36.5668         23.1966         37.2804 
       0.742472         36.1286          22.769         36.8672 
       0.748622         35.5331         22.3525         36.2854 
        0.75476         34.7807         21.9477         35.8624 
       0.760888         34.7046          21.554         35.4352 
       0.767043          34.054         21.1688         35.0706 
       0.773185          33.711         20.7941         34.6019 
       0.779291          33.274         20.4309         34.2224 
       0.785407         32.7643         20.0761         33.7133 
       0.791564         32.6492         19.7276         33.3017 
       0.797719          31.962         19.3875         32.9659 
       0.803834         31.7787         19.0575         32.4849 
       0.809972         31.2364          18.734         32.1488 
       0.816124         30.9066         18.4173         31.7526 
       0.822261         30.5317         18.1086         31.3122 
       0.828378         30.2759          17.808          30.903 
       0.834502          29.921          17.514         30.7339 
       0.840667         29.6241         17.2247         30.2909 
       0.846816         29.0209         16.9428         29.9712 
       0.852925         28.9203         16.6691         29.7978 
       0.859047         28.6324         16.4009         29.3143 
       0.865192         28.1903         16.1378          28.986 
       0.871341         27.8531         15.8804         28.7434 
       0.877463         27.5748         15.6298         28.4138 
       0.883569         27.4165         15.3853         28.1586 
       0.889708         27.0149         15.1448          27.788 
       0.895864         26.6777         14.9089         27.4672 
       0.902008         26.3688         14.6786          27.228 
       0.908149         26.0935         14.4532         27.0025 
       0.914301         25.9296         14.2323         26.7994 
       0.920448         25.5699         14.0162         26.4158 
       0.926574         25.2801         13.8054         26.1145 
       0.932687         25.0182         13.5994         25.8546 
       0.938823         24.6982         13.3968         25.5882 
       0.944975         24.5042          13.198         25.3357 
       0.951105         24.2707         13.0039         25.0646 
       0.957225         24.1111         12.8141         24.8685 
       0.963368           23.74         12.6275         24.5964 
       0.969511         23.5401         12.4445           24.36 
       0.975621         23.3301         12.2663         24.1608 
       0.981748         23.0397          12.091         23.9665 
       0.987916         22.9012         11.9182         23.6796 
        0.99406         22.6005         11.7493         23.4821 
        1.00019         22.4584         11.5841         23.2632 
        1.00632         22.2497         11.4223         23.0852 
        1.01246         22.0559         11.2633         22.9219 
        1.01859         21.7842         11.1076         22.6925 
        1.02471         21.5816         10.9551         22.4552 
        1.03085         21.4846         10.8049           22.26 
        1.03698         21.2911         10.6579         22.0638 
        1.04314         21.0357          10.513         21.8282 
        1.04929         20.7842         10.3712         21.7021 
        1.05541         20.7001         10.2325         21.5785 
        1.06154         20.5419         10.0961         21.2936 
        1.06769         20.2721         9.96194         21.0941 
        1.07382         20.0786         9.83069          20.973 
        1.07993         19.9066          9.7021         20.7721 
        1.08607         19.7893          9.5753         20.6122 
        1.09222         19.5775         9.45064         20.4803 
        1.09836         19.4212         9.32836         20.2796 
        1.10449         19.2776          9.2084          20.089 
        1.11063         19.1347         9.09042         19.9662 
        1.11677         19.0352         8.97456         19.7686 
         1.1229          18.832         8.86093         19.6321 
        1.12903         18.6681         8.74918         19.4903 
        1.13518         18.5171         8.63928         19.2903 
        1.14131         18.3907         8.53133         19.1569 
        1.14745         18.1423         8.42529         19.0268 
        1.15359         17.9774         8.32104         18.8665 
        1.15973         17.8556         8.21852         18.7337 
        1.16584         17.7127         8.11819         18.6137 
        1.17197         17.5272          8.0194         18.5029 
        1.17811         17.4307         7.92196         18.2618 
        1.18424         17.2818         7.82642         18.1774 
        1.19038         17.1977          7.7322         18.0676 
        1.19652         17.0107         7.63956          17.888 
        1.20267         16.9241         7.54845         17.7736 
        1.20881         16.7401         7.45885         17.6745 
        1.21495         16.6362         7.37086         17.5482 
        1.22108         16.5818          7.2843         17.4076 
         1.2272         16.4361         7.19934         17.2742 
        1.23334         16.3165         7.11555         17.1872 
        1.23949         16.1709          7.0329         17.0284 
        1.24562         16.0026         6.95179         16.9067 
        1.25174         15.9456          6.8721         16.8078 
        1.25789          15.815         6.79341           16.68 
        1.26402           15.73          6.7161         16.5471 
        1.27014         15.6343         6.64019         16.4508 
        1.27628         15.4463         6.56522          16.316 
        1.28244         15.4359         6.49128         16.2638 
        1.28858         15.2601         6.41857         16.1172 
        1.29471         15.0861         6.34715         16.0049 
        1.30084         15.0013         6.27688         15.9563 
        1.30697         14.9588         6.20758         15.8127 
        1.31312         14.8147         6.13922         15.6925 
        1.31925         14.7342         6.07212         15.6321 
        1.32537          14.609         6.00609         15.5436 
        1.33151         14.5124          5.9408         15.4208 
        1.33765          14.442         5.87654         15.3149 
        1.34378         14.3667         5.81335         15.2228 
        1.34992         14.2333         5.75105         15.1391 
        1.35606         14.1075         5.68953         15.0211 
         1.3622          14.003         5.62902         14.9278 
        1.36833         13.9728         5.56954          14.874 
        1.37445         13.8815         5.51095         14.7456 
        1.38059         13.7779         5.45303         14.6321 
        1.38675         13.6864         5.39581         14.5797 
        1.39288         13.5594         5.33963         14.4769 
        1.39901         13.4945         5.28428          14.395 
        1.40515         13.4003         5.22959         14.3124 
         1.4113         13.3141          5.1757         14.2326 
        1.41742         13.2553         5.12277          14.155 
        1.42355         13.1261         5.07049         14.0438 
         1.4297         13.0608         5.01878         13.9717 
        1.43585         12.9886         4.96782         13.9142 
        1.44198         12.9262         4.91776         13.8246 
        1.44809         12.8295         4.86848         13.7527 
        1.45423         12.7419          4.8197         13.6585 
        1.46036         12.6653         4.77168         13.5675 
        1.46649         12.5812          4.7243            13.5 
        1.47263         12.5229         4.67753         13.4479 
        1.47877         12.4432         4.63141         13.3754 
        1.48491         12.3665         4.58584          13.255 
        1.49104         12.2783         4.54098         13.2012 
        1.49718         12.2268         4.49669         13.1446 
        1.50333         12.1587         4.45292         13.0665 
        1.50947         12.0799         4.40983         13.0023 
         1.5156         12.0263         4.36737         12.9327 
        1.52172         11.9265         4.32547         12.8429 
        1.52787         11.8808         4.28404          12.771 
          1.534          11.815          4.2432          12.707 
        1.54013          11.752         4.20294         12.6124 
        1.54627         11.6555         4.16313         12.5406 
        1.55241         11.5673         4.12383         12.4994 
        1.55855         11.5371         4.08509         12.4348 
        1.56467         11.4799         4.04696         12.3656 
         1.5708         11.4239          4.0092          12.317 
        1.57695         11.3413         3.97188         12.2537 
        1.58308         11.2554         3.93512         12.1866 
        1.58922         11.2194         3.89879         12.1427 
        1.59535         11.1501         3.86294         12.0744 
         1.6015         11.0426          3.8275          12.004 
        1.60764         11.0024         3.79251         11.9354 
        1.61376         10.9686         3.75806         11.8691 
        1.61989         10.8765         3.72402         11.8287 
        1.62604         10.8514         3.69032         11.7821 
        1.63218          10.796         3.65705          11.717 
        1.63831         10.7078         3.62428         11.6543 
        1.64444         10.6382         3.59189         11.6036 
        1.65059         10.5782         3.55983         11.5302 
        1.65673         10.5543         3.52819         11.4847 
        1.66285         10.4696         3.49702         11.4389 
        1.66898         10.4477         3.46622         11.3612 
        1.67512         10.3957         3.43574         11.3057 
        1.68127         10.2965         3.40559          11.251 
         1.6874         10.2792         3.37587         11.1948 
        1.69353          10.184         3.34652         11.1503 
        1.69967         10.1509         3.31746         11.1026 
        1.70581            10.1         3.28875         11.0556 
        1.71193         10.0538         3.26049         11.0061 
        1.71806         10.0054          3.2325         10.9478 
        1.72421         9.93905         3.20479         10.9071 
        1.73035          9.8953         3.17743          10.856 
        1.73649         9.86441          3.1504         10.7924 
        1.74262         9.75645         3.12371          10.755 
        1.74876         9.76008         3.09731         10.7008 
        1.75489          9.7044         3.07126          10.634 
        1.76101          9.6289         3.04553         10.5837 
        1.76715         9.60726         3.02006          10.559 
        1.77329         9.54873         2.99484         10.5066 
        1.77943         9.47843         2.96991         10.4476 
        1.78557         9.47472         2.94529         10.4162 
        1.79171         9.40975         2.92095         10.3643 
        1.79785         9.38066         2.89688         10.3064 
        1.80399          9.3059         2.87309         10.2739 
        1.81012         9.27785          2.8496         10.2305 
        1.81625            9.21         2.82638         10.1902 
        1.82239         9.17358         2.80338         10.1561 
        1.82853         9.11631         2.78065         10.1023 
        1.83466         9.05706          2.7582         10.0575 
        1.84078          9.0387         2.73602         10.0211 
        1.84692         9.00921         2.71404         9.96686 
        1.85306          8.9604         2.69228         9.92433 
         1.8592         8.92567         2.67079          9.8908 
        1.86533         8.86522         2.64955         9.84321 
        1.87147         8.82209         2.62852         9.79874 
