# k  (h/Mpc)    Pcb(k)  (Mpc/h)^3    Pcb_linear(k) (Mpc/h)^3    Pcb_NL(k) (Mpc/h)^3   ShotnoiseSubtracted = false
     0.00783031         14291.4         14353.5         14283.9 
       0.013688         17483.3         17941.9         17822.1 
       0.019231           18122         18403.7           18245 
      0.0249154         17236.3         17217.9         17052.4 
      0.0312784         14866.1         15035.9         14870.2 
      0.0375637         12575.3         12814.8         12669.9 
      0.0433917         11011.9           11089         10937.5 
      0.0492413         9655.09         9793.06         9653.55 
      0.0555754         8771.94         8829.42         8705.37 
      0.0619321         7871.08         8172.08         8050.11 
       0.067871          7504.7         7683.44         7569.56 
      0.0738098         7085.83         7196.48         7019.11 
      0.0800417         6527.42         6618.59         6462.06 
      0.0862327         5869.27         5974.08         5898.27 
      0.0921407         5288.62         5338.48         5287.81 
      0.0982031         4776.58         4728.01         4767.46 
       0.104506         4205.93         4193.33         4303.44 
       0.110769         3847.54         3789.45         3868.14 
       0.116806         3646.75          3515.4         3586.73 
       0.122832         3425.75         3328.21         3404.75 
       0.129052         3259.15         3186.45         3252.07 
       0.135211         3184.71         3057.86         3115.06 
       0.141259         2978.17         2914.23         2998.96 
       0.147318         2777.25         2740.83         2861.93 
       0.153489         2611.87         2538.43         2635.04 
       0.159709         2487.16         2325.36         2471.98 
       0.165845         2255.98            2127         2341.06 
       0.171974         2176.64         1957.09         2177.98 
       0.178125         2084.47         1822.91          2082.7 
       0.184229         1919.33         1724.79         1966.01 
        0.19034         1890.51         1653.68         1884.94 
       0.196428         1839.51         1598.25         1809.84 
       0.202534         1733.24         1546.17         1762.25 
       0.208729         1705.93          1487.5         1685.64 
       0.214876         1633.47         1419.08         1653.91 
       0.220989         1546.55         1341.88          1600.9 
       0.227147         1501.77         1259.85         1539.11 
        0.23329          1438.7         1180.35         1484.46 
       0.239377         1422.53         1109.56         1415.63 
       0.245482         1350.69         1049.89          1344.3 
       0.251667         1299.92         1001.61         1306.36 
       0.257832         1279.52         963.722         1259.23 
       0.263955         1220.92         932.638         1222.79 
       0.270079         1188.08         904.141         1192.42 
        0.27624         1139.53         874.722         1160.29 
       0.282372         1124.34         842.751         1139.31 
        0.28843          1107.4         808.318         1113.93 
       0.294538         1054.22         771.817         1082.35 
       0.300721         1031.55         735.078         1048.39 
        0.30691         1007.86         700.484         1028.22 
       0.313033         966.218         669.936         991.162 
       0.319153         954.092         643.578         961.028 
       0.325316         941.759          621.01         942.159 
        0.33145         920.986          601.51         908.879 
       0.337538         889.753         583.881         893.679 
       0.343633         868.385         566.714         885.552 
       0.349808         851.232          549.02         871.809 
       0.355968         834.771         530.652         857.195 
       0.362074         807.293         511.939         840.181 
       0.368217         805.001         493.073         817.229 
       0.374374         792.342         474.767         800.185 
       0.380519         763.058         457.687          781.45 
       0.386598         757.803         442.242         771.277 
       0.392688         738.928         428.323         750.552 
        0.39888         722.256         415.527          738.86 
       0.405048         708.051         403.771         727.528 
       0.411186         706.445         392.669         712.646 
       0.417313         701.232         381.803         702.541 
       0.423458         680.372         370.909         692.044 
       0.429607         661.451         359.996          679.64 
       0.435692         654.478         349.237         665.371 
       0.441815         642.385         338.628         661.302 
       0.447964         632.596         328.406         650.889 
       0.454126         625.034         318.722         632.488 
       0.460267         615.823         309.687         630.252 
       0.466387         605.297         301.307         618.589 
        0.47254         595.961         293.407         609.952 
       0.478662         586.232         285.926         599.872 
       0.484765         579.712         278.733         591.792 
       0.490885         573.699           271.7         582.025 
       0.497035         561.905         264.742         576.338 
       0.503198         561.347         257.863         569.213 
       0.509342         550.348         251.151         560.344 
       0.515458         539.635         244.669         556.125 
       0.521598         535.891           238.4         548.882 
       0.527764         524.657          232.37         542.962 
       0.533884         520.298         226.669         535.941 
           0.54         515.195         221.253         528.319 
       0.546137         506.635         216.055          522.01 
       0.552299         504.704         211.023         514.773 
       0.558452         497.144         206.147          510.41 
       0.564573         493.122         201.423         506.368 
       0.570708         487.544         196.805         501.008 
       0.576825         478.114         192.311         492.767 
       0.582926         476.525         187.938         488.644 
       0.589034         468.956          183.68         481.448 
       0.595184         464.926         179.532         476.183 
       0.601379         457.758         175.507         471.592 
       0.607522         449.824         171.667         465.139 
       0.613639          448.89         167.981         463.719 
       0.619772         446.427         164.405         462.107 
       0.625918         438.004         160.928         454.546 
       0.632068         435.736         157.545         451.064 
       0.638161         431.143         154.283         445.515 
         0.6443         425.957         151.084          441.99 
       0.650464         421.598         147.959         434.496 
       0.656582         418.057          144.94         431.928 
       0.662703         414.421             142         429.396 
       0.668861         408.157         139.124         426.644 
       0.675024         406.328         136.327         423.049 
       0.681124         399.524         133.639          416.15 
       0.687237         398.334         131.026         412.515 
       0.693381         392.411         128.476         408.938 
       0.699536         391.547         125.994         406.196 
       0.705665         386.326          123.59         401.268 
       0.711789         384.768         121.252         398.819 
       0.717957         379.667         118.956         397.415 
        0.72409         375.566         116.729          393.12 
       0.730186         376.752         114.569         389.317 
       0.736317         369.988         112.451         385.972 
       0.742472         367.078         110.378         382.505 
       0.748622         364.429         108.359         379.167 
        0.75476         361.736         106.397         379.637 
       0.760888         358.692         104.488         374.251 
       0.767043          355.44          102.62         370.908 
       0.773185         352.942         100.804         368.425 
       0.779291         348.814         99.0438         364.949 
       0.785407         346.687         97.3236         362.898 
       0.791564         344.365         95.6339         360.497 
       0.797719         338.881         93.9853         357.079 
       0.803834         340.725         92.3858         355.546 
       0.809972         335.014         90.8175         352.976 
       0.816124         331.809         89.2819         348.442 
       0.822261         329.346         87.7858         347.031 
       0.828378         328.045         86.3285         344.272 
       0.834502         322.837         84.9031          342.67 
       0.840667         323.158         83.5008         339.495 
       0.846816         317.859         82.1344         337.397 
       0.852925         318.297         80.8074         335.329 
       0.859047         315.173         79.5073         332.716 
       0.865192         313.811         78.2319         329.897 
       0.871341         309.502         76.9839         328.181 
       0.877463         307.871         75.7691         326.131 
       0.883569          305.66         74.5838         324.765 
       0.889708         302.744         73.4181         321.459 
       0.895864         299.603         72.2744         319.695 
       0.902008         298.253         71.1577         317.376 
       0.908149         295.529         70.0654         314.738 
       0.914301         293.984         68.9943         312.368 
       0.920448         291.842         67.9468         310.737 
       0.926574         289.841         66.9247         308.466 
       0.932687         288.751          65.926         306.476 
       0.938823         285.501         64.9442         305.753 
       0.944975         284.815         63.9803         303.114 
       0.951105           281.8         63.0395         300.905 
       0.957225         278.887         62.1193         299.244 
       0.963368         279.229         61.2145         297.486 
       0.969511         274.034         60.3278         295.426 
       0.975621         272.905         59.4635         293.715 
       0.981748         272.071         58.6141         292.092 
       0.987916         270.328          57.776         290.586 
        0.99406         267.651         56.9576         288.633 
        1.00019         265.585         56.1568         286.051 
        1.00632         265.142         55.3721         284.373 
        1.01246         262.699         54.6014         282.171 
        1.01859         259.815         53.8468         280.617 
        1.02471         258.139         53.1074         279.542 
        1.03085         257.147         52.3794         278.351 
        1.03698         255.869         51.6667          277.23 
        1.04314          254.63         50.9643         275.005 
        1.04929         253.035         50.2767         272.836 
        1.05541         250.591         49.6045         271.312 
        1.06154         248.728         48.9431         269.953 
        1.06769         246.805         48.2928         268.313 
        1.07382         245.465         47.6565         266.779 
        1.07993         243.655         47.0332         265.488 
        1.08607         242.446         46.4184         263.431 
        1.09222         240.264         45.8141           262.1 
        1.09836          239.58         45.2214         261.101 
        1.10449         237.771         44.6398         259.647 
        1.11063         235.969         44.0679         257.882 
        1.11677         233.969         43.5062         256.214 
         1.1229         233.466         42.9554         255.004 
        1.12903         231.217         42.4137         253.814 
        1.13518         229.685         41.8809         252.114 
        1.14131         228.882         41.3576          250.66 
        1.14745         226.324         40.8435         249.204 
        1.15359         224.748         40.3381         248.116 
        1.15973         224.019         39.8412         246.742 
        1.16584         222.466         39.3548         245.244 
        1.17197         221.285         38.8759         244.406 
        1.17811         219.242         38.4035         242.913 
        1.18424         218.047         37.9404         241.512 
        1.19038         217.183         37.4836         240.786 
        1.19652         214.446         37.0345         239.123 
        1.20267         214.035         36.5928         237.642 
        1.20881         212.235         36.1585         236.544 
        1.21495         211.866         35.7319         235.135 
        1.22108         210.122         35.3123         233.673 
         1.2272         208.088         34.9004         232.173 
        1.23334         207.335         34.4942         231.285 
        1.23949         206.138         34.0936         230.399 
        1.24562         204.769         33.7004         228.813 
        1.25174         203.638         33.3141         227.773 
        1.25789         201.714         32.9326         226.414 
        1.26402         201.367         32.5578         225.756 
        1.27014         200.447         32.1898         224.308 
        1.27628          198.68         31.8264         223.783 
        1.28244         197.153          31.468         222.628 
        1.28858         196.071         31.1155          221.18 
        1.29471         194.881         30.7693         219.424 
        1.30084         194.012         30.4286          218.54 
        1.30697         192.238         30.0927          217.73 
        1.31312         191.172         29.7613         216.294 
        1.31925         189.943          29.436         215.289 
        1.32537         189.315         29.1159          214.22 
        1.33151         187.897         28.7994         213.166 
        1.33765         186.557         28.4878         212.163 
        1.34378         185.853         28.1815         211.258 
        1.34992         184.235         27.8795         209.811 
        1.35606         183.454         27.5813         208.597 
         1.3622         182.122          27.288         207.916 
        1.36833         180.973         26.9996         207.017 
        1.37445         180.795         26.7156         205.354 
        1.38059         178.639         26.4348         204.681 
        1.38675         177.591         26.1574         203.938 
        1.39288         176.586         25.8851         202.103 
        1.39901         175.222         25.6167          201.49 
        1.40515         174.783         25.3516          200.65 
         1.4113          173.42         25.0904         199.509 
        1.41742         172.086         24.8338         198.667 
        1.42355         171.934         24.5803         197.536 
         1.4297         170.439         24.3297          196.61 
        1.43585         169.747         24.0826         195.863 
        1.44198          168.06         23.8399         194.918 
        1.44809         167.449         23.6011         194.046 
        1.45423         166.487         23.3646         192.555 
        1.46036         165.415         23.1318         191.805 
        1.46649         164.337         22.9021         191.251 
        1.47263         163.709         22.6754         190.251 
        1.47877         162.471         22.4518         189.022 
        1.48491         161.214         22.2309         187.977 
        1.49104         159.788         22.0134         187.525 
        1.49718           159.5         21.7987         186.566 
        1.50333         158.025         21.5866         185.589 
        1.50947         157.414         21.3776         184.902 
         1.5156         156.327         21.1718         183.928 
        1.52172         155.646         20.9687         182.624 
        1.52787         154.758         20.7679         182.099 
          1.534         153.944         20.5699         181.318 
        1.54013         152.728         20.3747         180.395 
        1.54627         151.996         20.1817         179.722 
        1.55241          151.24         19.9912         178.886 
        1.55855         150.537         19.8034         177.818 
        1.56467         149.432         19.6185         177.011 
         1.5708          148.21         19.4355          176.24 
        1.57695         147.694         19.2546         175.412 
        1.58308         146.571         19.0764         174.618 
        1.58922         145.798         18.9003         173.757 
        1.59535         144.762         18.7265         173.083 
         1.6015         144.012         18.5547         172.243 
        1.60764         143.057         18.3851         171.315 
        1.61376         142.106         18.2181         170.641 
        1.61989         141.566          18.053         169.902 
        1.62604         140.481         17.8896         168.909 
        1.63218         139.889         17.7284         168.167 
        1.63831         138.893         17.5695         167.621 
        1.64444         137.846         17.4125         166.727 
        1.65059         137.319         17.2571          166.08 
        1.65673         136.503         17.1037         165.247 
        1.66285         135.935         16.9526         164.386 
        1.66898         134.914         16.8033         163.751 
        1.67512          133.99         16.6555         163.015 
        1.68127         133.462         16.5093         162.346 
         1.6874         132.447         16.3653         161.693 
        1.69353         132.007          16.223         160.883 
        1.69967         130.963         16.0821         160.108 
        1.70581         130.471         15.9429         159.488 
        1.71193         129.503         15.8059           158.8 
        1.71806         128.328         15.6703           157.8 
        1.72421          127.93         15.5359         157.193 
        1.73035         127.192         15.4033         156.622 
        1.73649         126.201         15.2723         155.839 
        1.74262         125.795         15.1429         155.176 
        1.74876         124.979         15.0149         154.542 
        1.75489         124.525         14.8886         153.863 
        1.76101          123.37         14.7639          153.19 
        1.76715         122.616         14.6404         152.601 
        1.77329         121.903         14.5182         151.824 
        1.77943         121.128         14.3973         151.014 
        1.78557          120.58          14.278         150.419 
        1.79171         119.842           14.16         149.823 
        1.79785          118.98         14.0433         149.157 
        1.80399         118.474          13.928          148.49 
        1.81012         117.656         13.8141         147.909 
        1.81625         117.071         13.7015         147.285 
        1.82239         116.449           13.59         146.565 
        1.82853         115.552         13.4798         145.854 
        1.83466         114.696          13.371         145.138 
        1.84078         114.409         13.2634         144.537 
        1.84692         113.981         13.1569         144.156 
        1.85306         113.035         13.0514         143.402 
         1.8592         112.514         12.9473         142.585 
        1.86533         111.628         12.8443         142.269 
        1.87147         111.176         12.7423         141.865 
