# k  (h/Mpc)    P(k)  (Mpc/h)^3    P_linear(k)  (Mpc/h)^3     P_NL(k)  ShotnoiseSubtracted = false
     0.00783031         17171.7         17241.7         17155.2 
       0.013688         20943.1           21543         21387.8 
       0.019231         21715.4         22094.9           21886 
      0.0249154         20681.9         20670.1         20443.2 
      0.0312784         17805.4         18050.1         17812.3 
      0.0375637         15049.5         15383.4           15174 
      0.0433917         13187.6         13311.6         13090.9 
      0.0492413         11557.9         11755.8         11551.7 
      0.0555754         10498.3         10598.9         10418.9 
      0.0619321         9398.93         9809.82         9633.92 
       0.067871         8963.67         9223.22         9059.81 
      0.0738098         8475.63         8638.66         8384.96 
      0.0800417         7801.53         7944.93         7721.54 
      0.0862327         7017.43         7171.26         7061.28 
      0.0921407         6334.86         6408.28         6334.44 
      0.0982031          5734.3         5675.46         5727.14 
       0.104506         5053.86         5033.63         5184.63 
       0.110769         4631.94         4548.82         4659.91 
       0.116806         4392.91         4219.85         4320.77 
       0.122832          4133.7         3995.14         4102.31 
       0.129052         3920.82         3824.97         3918.36 
       0.135211          3838.8         3670.61          3750.2 
       0.141259         3583.71         3498.21         3617.78 
       0.147318         3348.34         3290.06         3456.03 
       0.153489         3153.24         3047.09         3183.15 
       0.159709         3016.05         2791.33         2996.11 
       0.165845         2743.27         2553.22         2847.73 
       0.171974         2648.03         2349.26          2656.9 
       0.178125          2547.5         2188.19         2547.03 
       0.184229         2342.23         2070.41          2402.9 
        0.19034         2313.19         1985.06         2305.12 
       0.196428         2252.72         1918.51         2216.93 
       0.202534          2128.3         1855.99         2160.02 
       0.208729         2090.93         1785.58         2065.56 
       0.214876         2000.88         1703.45         2028.09 
       0.220989         1906.46         1610.77         1969.36 
       0.227147         1849.98          1512.3         1901.38 
        0.23329         1774.02         1416.87          1835.9 
       0.239377          1761.2          1331.9         1752.93 
       0.245482         1677.18         1260.26         1668.12 
       0.251667         1615.77         1202.31         1621.63 
       0.257832          1588.1         1156.84         1565.32 
       0.263955          1520.1         1119.52          1522.8 
       0.270079            1484         1085.32         1485.78 
        0.27624         1423.37            1050         1447.45 
       0.282372          1408.9         1011.62         1427.24 
        0.28843         1381.49         970.294         1400.38 
       0.294538         1320.98         926.476         1359.98 
       0.300721         1297.63         882.374         1317.52 
        0.30691         1263.61         840.849         1295.95 
       0.313033         1216.75         804.181         1250.93 
       0.319153         1204.28         772.536         1212.61 
       0.325316         1189.13         745.449         1191.31 
        0.33145         1162.65         722.043         1150.26 
       0.337538         1126.12         700.879         1133.65 
       0.343633         1101.52         680.272          1122.8 
       0.349808         1082.87         659.038         1107.53 
       0.355968         1060.33         636.984         1089.45 
       0.362074         1029.63         614.523         1070.22 
       0.368217         1026.47         591.876         1044.27 
       0.374374         1010.23         569.899         1023.02 
       0.380519         976.129         549.401         1001.44 
       0.386598         971.645         530.858         987.169 
       0.392688         945.827         514.151         964.956 
        0.39888         929.011         498.791         948.852 
       0.405048         909.684         484.679         933.084 
       0.411186         907.174         471.353         918.065 
       0.417313         901.663         458.309          907.68 
       0.423458         875.824         445.231         892.069 
       0.429607         853.177         432.135         878.682 
       0.435692         845.498         419.217          859.78 
       0.441815         829.243         406.483         856.579 
       0.447964         820.292         394.213         845.517 
       0.454126         809.651         382.589         820.944 
       0.460267         800.148          371.74          818.83 
       0.466387         785.811         361.685         804.288 
        0.47254          774.33           352.2          792.81 
       0.478662         763.272          343.22         781.686 
       0.484765         754.895         334.586         773.661 
       0.490885          747.12         326.144         759.545 
       0.497035         732.671         317.791         753.257 
       0.503198         731.775         309.533         745.152 
       0.509342          718.26         301.477          732.06 
       0.515458         704.241         293.696         726.962 
       0.521598         703.692         286.171         719.843 
       0.527764         687.021         278.933         712.806 
       0.533884          679.27         272.089          704.26 
           0.54         674.976         265.588         695.716 
       0.546137         665.894         259.348         688.016 
       0.552299         661.321         253.308         678.576 
       0.558452         653.191         247.455         673.381 
       0.564573         649.727         241.784         667.469 
       0.570708         642.049         236.241         659.125 
       0.576825         629.517         230.847          650.59 
       0.582926         627.907         225.597         646.299 
       0.589034          619.42         220.487         636.755 
       0.595184          612.68         215.507         630.338 
       0.601379         603.672         210.675         624.719 
       0.607522         594.843         206.067         615.432 
       0.613639          594.21         201.641         613.944 
       0.619772         589.048         197.349         611.832 
       0.625918         580.246         193.175          603.46 
       0.632068         577.601         189.114         600.191 
       0.638161         569.838         185.198         590.989 
         0.6443          563.74         181.359         586.296 
       0.650464         559.462         177.607         578.511 
       0.656582         554.939         173.983         575.425 
       0.662703         548.741         170.454         571.013 
       0.668861         542.143         167.001         568.575 
       0.675024         539.971         163.644         564.737 
       0.681124         528.861         160.418         556.092 
       0.687237         529.345          157.28         551.133 
       0.693381         520.831          154.22         546.024 
       0.699536         521.815          151.24         542.459 
       0.705665         513.376         148.355         535.893 
       0.711789         512.416         145.548         532.089 
       0.717957         505.708         142.792         531.484 
        0.72409         501.511         140.119         525.618 
       0.730186         500.447         137.527         520.185 
       0.736317         493.185         134.984         516.786 
       0.742472         488.165         132.495         513.391 
       0.748622         487.133         130.072          508.25 
        0.75476         480.286         127.717         508.735 
       0.760888         478.468         125.425         502.665 
       0.767043         475.367         123.184         496.337 
       0.773185         471.208         121.004         493.576 
       0.779291         466.621          118.89         489.443 
       0.785407         463.139         116.825         486.472 
       0.791564         460.935         114.797         484.882 
       0.797719         453.693         112.818         480.276 
       0.803834         454.474         110.898         477.298 
       0.809972         447.412         109.016          474.35 
       0.816124         444.361         107.172         468.876 
       0.822261          441.47         105.376         466.645 
       0.828378          439.71         103.627         463.204 
       0.834502         432.558         101.916         461.659 
       0.840667         431.585         100.233         457.982 
       0.846816         427.599         98.5925         454.524 
       0.852925         427.206         96.9997         451.871 
       0.859047         422.133         95.4391         447.392 
       0.865192         419.972         93.9081         444.529 
       0.871341          414.96         92.4101         442.003 
       0.877463         414.334         90.9518         439.667 
       0.883569         410.423          89.529         437.677 
       0.889708         405.878         88.1297         433.108 
       0.895864          401.61         86.7568         430.887 
       0.902008         400.852         85.4163         427.894 
       0.908149         396.915         84.1051         423.973 
       0.914301         395.522         82.8195         420.685 
       0.920448         390.623          81.562         419.904 
       0.926574         388.875         80.3352         416.942 
       0.932687         387.602         79.1363         413.419 
       0.938823         383.313         77.9578         412.534 
       0.944975         382.156         76.8007         409.545 
       0.951105         378.729         75.6714         406.415 
       0.957225         374.134         74.5668         404.317 
       0.963368         374.326         73.4807         401.726 
       0.969511         369.256         72.4163         399.423 
       0.975621         366.973         71.3789         396.775 
       0.981748         365.687         70.3593          394.66 
       0.987916         363.142         69.3533         392.809 
        0.99406         359.255         68.3708         390.107 
        1.00019         355.997         67.4095         386.781 
        1.00632         355.317         66.4677         384.353 
        1.01246         352.116         65.5425         382.033 
        1.01859         349.349         64.6366         379.717 
        1.02471          347.48         63.7491         377.859 
        1.03085         345.836         62.8752         376.663 
        1.03698          343.55         62.0197         375.139 
        1.04314         340.966         61.1765         372.313 
        1.04929         339.777         60.3511         369.083 
        1.05541         336.015         59.5443         366.897 
        1.06154         333.674         58.7504         365.164 
        1.06769         331.171         57.9698         362.644 
        1.07382         328.254          57.206         360.648 
        1.07993         327.952         56.4577         358.822 
        1.08607         326.046         55.7198         356.389 
        1.09222         322.772         54.9944         354.457 
        1.09836         320.996         54.2829         353.153 
        1.10449         318.662         53.5848         351.534 
        1.11063         317.433         52.8983         348.376 
        1.11677         313.804         52.2241         346.923 
         1.1229         312.828         51.5629         344.734 
        1.12903         310.003         50.9126         342.885 
        1.13518         308.392          50.273         340.504 
        1.14131         306.582         49.6448         339.159 
        1.14745         303.738         49.0278         336.422 
        1.15359         301.237         48.4211         335.857 
        1.15973         299.854         47.8246         333.532 
        1.16584         298.257         47.2407         332.355 
        1.17197         296.239         46.6659         330.612 
        1.17811         292.922         46.0988         328.125 
        1.18424          292.15         45.5429         326.556 
        1.19038         290.547         44.9946         325.489 
        1.19652          287.64         44.4555         322.793 
        1.20267         286.476         43.9253         321.525 
        1.20881         284.849          43.404         319.762 
        1.21495         282.429         42.8919         317.844 
        1.22108         281.269         42.3882         315.861 
         1.2272           277.7         41.8938         314.816 
        1.23334         276.525         41.4062         312.811 
        1.23949         274.896         40.9253         311.097 
        1.24562         273.714         40.4533         309.276 
        1.25174           272.1         39.9896         307.845 
        1.25789         269.427         39.5317         306.082 
        1.26402         268.385         39.0818          305.14 
        1.27014         266.803           38.64         302.896 
        1.27628         265.067         38.2038          302.25 
        1.28244         262.289         37.7735         300.789 
        1.28858         261.521         37.3505         298.999 
        1.29471         259.874         36.9348         297.067 
        1.30084          259.27         36.5259         295.172 
        1.30697         256.222         36.1226         294.128 
        1.31312         254.881         35.7249         292.692 
        1.31925         253.522         35.3344         291.103 
        1.32537         252.462         34.9501         289.245 
        1.33151         249.737         34.5703          288.14 
        1.33765         248.011         34.1963         286.989 
        1.34378         247.378         33.8286         284.998 
        1.34992         244.707          33.466         283.532 
        1.35606         243.409          33.108         281.859 
         1.3622         241.548         32.7559         281.076 
        1.36833         241.414         32.4098         279.981 
        1.37445         240.107         32.0689         277.753 
        1.38059         236.952         31.7318         276.871 
        1.38675         235.586         31.3988          275.81 
        1.39288         235.072         31.0719         274.016 
        1.39901         232.773         30.7498         272.359 
        1.40515         231.702         30.4316         270.771 
         1.4113         230.027          30.118         269.395 
        1.41742         228.417           29.81         268.336 
        1.42355         227.291         29.5058         266.919 
         1.4297         225.812         29.2049         265.248 
        1.43585         224.342         28.9083         264.845 
        1.44198         222.901          28.617         263.224 
        1.44809         221.684         28.3303         261.917 
        1.45423         220.383         28.0464         260.041 
        1.46036         219.625          27.767         259.079 
        1.46649         217.752         27.4913         258.046 
        1.47263         216.014         27.2191          256.35 
        1.47877         214.925         26.9507         254.911 
        1.48491         213.307         26.6855         253.488 
        1.49104         211.281         26.4245         252.551 
        1.49718         210.707         26.1668          252.14 
        1.50333          209.11         25.9121         250.354 
        1.50947         207.758         25.6613         248.964 
         1.5156         206.629         25.4142         248.107 
        1.52172         205.234         25.1704         246.814 
        1.52787         204.033         24.9293         245.687 
          1.534         203.413         24.6917         244.398 
        1.54013         201.491         24.4574         243.333 
        1.54627         200.526         24.2257         242.414 
        1.55241          199.48          23.997         241.314 
        1.55855         198.024         23.7716         240.137 
        1.56467         196.851         23.5497         238.616 
         1.5708         195.319           23.33         237.372 
        1.57695         194.727         23.1128         236.307 
        1.58308          193.53         22.8989         235.047 
        1.58922         191.837         22.6875         234.024 
        1.59535         190.609         22.4789         233.202 
         1.6015         189.751         22.2727         232.392 
        1.60764         188.268         22.0691         231.109 
        1.61376         187.009         21.8686         229.648 
        1.61989         185.871         21.6705         228.694 
        1.62604         185.025         21.4744         227.477 
        1.63218         183.603         21.2808         226.435 
        1.63831         182.774         21.0901         225.609 
        1.64444         181.269         20.9016         224.407 
        1.65059         180.381          20.715         223.499 
        1.65673         179.272         20.5309         222.569 
        1.66285         178.074         20.3496         221.378 
        1.66898         177.175         20.1704         220.114 
        1.67512         175.929         19.9929         219.255 
        1.68127         174.881         19.8175         218.238 
         1.6874         173.811         19.6446         217.192 
        1.69353         173.156         19.4738         216.473 
        1.69967         171.684         19.3047         215.421 
        1.70581         170.912         19.1376         214.391 
        1.71193         169.595         18.9732         213.441 
        1.71806         168.506         18.8103         212.261 
        1.72421         167.589          18.649         211.307 
        1.73035         166.453         18.4898          210.37 
        1.73649         165.147         18.3325         209.309 
        1.74262         164.415         18.1772         208.358 
        1.74876         163.488         18.0236          207.44 
        1.75489         162.887          17.872         206.645 
        1.76101         161.707         17.7223         205.927 
        1.76715          160.59          17.574         204.945 
        1.77329         159.455         17.4273         204.075 
        1.77943         158.476         17.2822         203.188 
        1.78557          157.38          17.139         202.052 
        1.79171         156.782         16.9974         201.123 
        1.79785         155.513         16.8573         200.278 
        1.80399         154.742         16.7188         199.296 
        1.81012         154.276         16.5821         198.684 
        1.81625         152.568          16.447         197.893 
        1.82239         152.275         16.3132         196.769 
        1.82853         151.099         16.1809         195.916 
        1.83466          149.84         16.0503         195.021 
        1.84078         149.219         15.9212         194.116 
        1.84692         148.573         15.7933         193.514 
        1.85306         147.464         15.6667          192.56 
         1.8592         146.726         15.5417         191.497 
        1.86533         145.331         15.4181         190.877 
        1.87147         144.552         15.2957         190.112 
        1.87761         143.975         15.1745         189.221 
