# k  (h/Mpc)    P(k)  (Mpc/h)^3    P_linear(k)  (Mpc/h)^3     P_NL(k)  ShotnoiseSubtracted = false
     0.00783031         2627.94         2644.34         2632.81 
       0.013688         3266.01         3310.81         3295.31 
       0.019231          3375.9         3397.71         3379.43 
      0.0249154         3183.32         3179.54         3166.32 
      0.0312784         2770.81         2777.02         2770.47 
      0.0375637         2355.38         2366.99         2362.58 
      0.0433917         2051.39         2048.34         2045.17 
      0.0492413         1804.93         1809.02          1806.6 
      0.0555754         1636.39         1631.06         1628.13 
      0.0619321         1491.67         1509.66         1506.32 
       0.067871         1414.18         1419.41          1415.5 
      0.0738098          1327.3         1329.47         1322.98 
      0.0800417         1223.95         1222.72         1217.16 
      0.0862327         1101.39         1103.67         1101.56 
      0.0921407         985.033          986.25         985.566 
      0.0982031         879.215         873.474         876.696 
       0.104506         774.052         774.698         780.817 
       0.110769          701.93         700.087         704.453 
       0.116806         658.439          649.46         653.267 
       0.122832         618.412         614.878         618.899 
       0.129052         593.924          588.69         591.937 
       0.135211         573.172         564.934         568.086 
       0.141259         542.182         538.401         542.492 
       0.147318         506.004         506.366         512.723 
       0.153489         471.728         468.973         473.796 
       0.159709         437.113          429.61         436.678 
       0.165845         395.448         392.963         403.517 
       0.171974         373.191         361.573         371.734 
       0.178125         348.995         336.783         348.843 
       0.184229         327.001         318.656         330.268 
        0.19034          317.17         305.519         316.341 
       0.196428         306.434         295.278         304.226 
       0.202534         291.003         285.655         294.851 
       0.208729         284.098         274.818         283.693 
       0.214876          273.22         262.177         273.467 
       0.220989         254.353         247.914         260.144 
       0.227147         244.595         232.759         245.296 
        0.23329          231.42         218.071         232.316 
       0.239377         220.658         204.993         219.792 
       0.245482         208.242         193.968         207.535 
       0.251667         198.193         185.048         199.464 
       0.257832         194.316         178.049         191.875 
       0.263955         185.069         172.306         185.478 
       0.270079         179.091         167.042         179.906 
        0.27624          172.08         161.607          173.94 
       0.282372         166.735           155.7         168.659 
        0.28843         163.752         149.339          162.55 
       0.294538         155.853         142.595          156.38 
       0.300721         148.216         135.807         150.389 
        0.30691         144.253         129.416         144.291 
       0.313033         137.661         123.772         138.202 
       0.319153         134.624         118.902          133.59 
       0.325316          128.96         114.733         129.653 
        0.33145         124.952          111.13         125.252 
       0.337538         121.367         107.873         121.612 
       0.343633          117.95         104.702          118.72 
       0.349808         114.305         101.433         115.785 
       0.355968         110.868         98.0389         113.097 
       0.362074         108.447          94.582         109.405 
       0.368217         105.274         91.0965         105.296 
       0.374374         102.536         87.7139         102.317 
       0.380519         97.9376          84.559         98.9183 
       0.386598         95.2346         81.7051         96.1385 
       0.392688         92.3235         79.1337         93.6315 
        0.39888         90.5696         76.7696         90.8883 
       0.405048         88.4452         74.5977         88.6722 
       0.411186         86.3161         72.5465         87.0145 
       0.417313           83.95          70.539         84.4221 
       0.423458         81.7251         68.5262         82.5909 
       0.429607         80.1841         66.5105         80.4654 
       0.435692         78.6809         64.5223         78.5991 
       0.441815         75.8075         62.5623         77.0919 
       0.447964         73.3775         60.6739         74.8467 
       0.454126         72.0143         58.8848         72.7451 
       0.460267          71.275         57.2151         71.4156 
       0.466387          69.304         55.6674         69.5343 
        0.47254           68.34         54.2076         68.1878 
       0.478662         66.0264         52.8256         66.6743 
       0.484765         64.7709         51.4966         65.0213 
       0.490885         63.0233         50.1974         64.0816 
       0.497035         62.2156         48.9117         62.9344 
       0.503198         60.7064         47.6408         61.3203 
       0.509342          59.074         46.4008          60.217 
       0.515458          58.274         45.2032         59.3518 
       0.521598         56.8313          44.045         57.6151 
       0.527764         56.0794          42.931         56.1529 
       0.533884         55.0499         41.8777         55.1479 
           0.54         53.7544         40.8772         54.1444 
       0.546137         52.2028         39.9166         53.3441 
       0.552299         51.3333         38.9871          52.037 
       0.558452         50.2671         38.0862         51.0169 
       0.564573         49.8716         37.2134         50.3829 
       0.570708         48.4159         36.3603         49.4621 
       0.576825         47.8696         35.5301         48.5422 
       0.582926         47.1008          34.722         47.6919 
       0.589034         46.1523         33.9355         47.0278 
       0.595184         45.4936          33.169         46.0066 
       0.601379         44.2752         32.4253         45.4012 
       0.607522         43.5779         31.7161         44.3533 
       0.613639         42.9826         31.0349         43.6876 
       0.619772         42.1846         30.3743         42.9765 
       0.625918         41.4101         29.7319         42.4369 
       0.632068          41.024         29.1068         41.5786 
       0.638161         40.1455         28.5042         40.9578 
         0.6443          39.615         27.9132         40.2016 
       0.650464         38.6465         27.3359         39.6348 
       0.656582         38.3955          26.778         39.0943 
       0.662703         37.8872         26.2348         38.3544 
       0.668861         36.9301         25.7035         37.9183 
       0.675024         36.5423         25.1868         37.1847 
       0.681124         36.2154         24.6902         36.6255 
       0.687237         35.4717         24.2073         36.0468 
       0.693381         34.8563         23.7362         35.4847 
       0.699536          34.621         23.2777         35.1439 
       0.705665         33.9692         22.8336         34.6867 
       0.711789         33.3906         22.4016         33.9667 
       0.717957         32.7497         21.9774         33.6206 
        0.72409         32.4467         21.5659         33.2226 
       0.730186         32.2585          21.167          32.693 
       0.736317         31.6025         20.7756         32.2112 
       0.742472         31.2169         20.3926         31.8621 
       0.748622         30.6957         20.0197         31.3385 
        0.75476         30.0002         19.6571         30.9563 
       0.760888         29.9229         19.3044         30.5871 
       0.767043         29.3739         18.9594          30.249 
       0.773185         29.0718         18.6239         29.8294 
       0.779291         28.7072         18.2986         29.4996 
       0.785407         28.2552         17.9808          29.059 
       0.791564         28.1195         17.6686         28.6996 
       0.797719         27.5065         17.3641         28.3788 
       0.803834         27.3683         17.0686         27.9596 
       0.809972         26.8712         16.7788         27.6777 
       0.816124          26.582         16.4951          27.309 
       0.822261         26.2661         16.2187         26.9308 
       0.828378         26.0207         15.9494         26.5828 
       0.834502         25.7218         15.6861         26.4126 
       0.840667         25.4572          15.427         26.0189 
       0.846816          24.916         15.1746         25.7406 
       0.852925         24.8338         14.9294         25.5928 
       0.859047         24.5592         14.6892         25.1687 
       0.865192           24.19         14.4536         24.8747 
       0.871341         23.8912          14.223          24.664 
       0.877463         23.6393         13.9986         24.3678 
       0.883569         23.4969         13.7796         24.1326 
       0.889708         23.1327         13.5642          23.816 
       0.895864         22.8403         13.3529         23.5323 
       0.902008         22.5705         13.1466         23.3237 
       0.908149         22.3134         12.9448         23.1135 
       0.914301          22.185         12.7469         22.9424 
       0.920448         21.8539         12.5534         22.5993 
       0.926574         21.6345         12.3645         22.3415 
       0.932687         21.3843           12.18         22.0904 
       0.938823         21.1077         11.9986         21.8744 
       0.944975         20.9429         11.8205          21.658 
       0.951105         20.7294         11.6467         21.3932 
       0.957225         20.5919         11.4767         21.2456 
       0.963368         20.2609         11.3096         20.9992 
       0.969511         20.0807         11.1457          20.798 
       0.975621         19.8972         10.9861         20.6065 
       0.981748         19.6438         10.8291         20.4409 
       0.987916         19.5236         10.6743          20.188 
        0.99406         19.2679         10.5231         20.0143 
        1.00019         19.1374         10.3751         19.8297 
        1.00632         18.9586         10.2302         19.6674 
        1.01246         18.7872         10.0878         19.5356 
        1.01859         18.5481         9.94835         19.3214 
        1.02471         18.3667         9.81174         19.1036 
        1.03085         18.2831         9.67725         18.9423 
        1.03698         18.1117         9.54557         18.7749 
        1.04314         17.8822          9.4158         18.5704 
        1.04929          17.665         9.28876         18.4522 
        1.05541         17.5888         9.16459         18.3356 
        1.06154         17.4447         9.04239         18.0974 
        1.06769         17.2385         8.92224         17.9233 
        1.07382         17.0377         8.80468         17.8116 
        1.07993         16.8964         8.68952         17.6437 
        1.08607            16.8         8.57595          17.498 
        1.09222          16.603          8.4643         17.3745 
        1.09836         16.4886         8.35478         17.1944 
        1.10449          16.332         8.24734         17.0365 
        1.11063          16.229         8.14168         16.9274 
        1.11677         16.1279         8.03791         16.7512 
         1.1229         15.9582         7.93614         16.6384 
        1.12903         15.8197         7.83605         16.5228 
        1.13518         15.6618         7.73762         16.3496 
        1.14131         15.5642         7.64093         16.2251 
        1.14745         15.3443         7.54596         16.1012 
        1.15359         15.2087          7.4526         15.9664 
        1.15973         15.0977         7.36077         15.8434 
        1.16584         14.9733         7.27092         15.7484 
        1.17197         14.8215         7.18244         15.6511 
        1.17811         14.7271         7.09516         15.4481 
        1.18424         14.6123          7.0096         15.3686 
        1.19038         14.5324         6.92521         15.2596 
        1.19652         14.3752         6.84224         15.1127 
        1.20267          14.293         6.76064         15.0098 
        1.20881          14.126         6.68039         14.9303 
        1.21495         14.0358         6.60158         14.8096 
        1.22108         13.9827         6.52405         14.6957 
         1.2272         13.8568         6.44796         14.5693 
        1.23334         13.7611         6.37292         14.4958 
        1.23949          13.633         6.29889         14.3664 
        1.24562         13.4958         6.22625         14.2519 
        1.25174         13.4401         6.15487         14.1677 
        1.25789         13.3087          6.0844         14.0544 
        1.26402         13.2456         6.01516         13.9399 
        1.27014          13.169         5.94717          13.855 
        1.27628         12.9986         5.88003         13.7409 
        1.28244         12.9871          5.8138         13.6897 
        1.28858         12.8441         5.74869         13.5648 
        1.29471         12.6852         5.68472         13.4699 
        1.30084         12.6126         5.62178         13.4272 
        1.30697         12.5845         5.55971         13.3003 
        1.31312         12.4559         5.49849         13.1976 
        1.31925         12.3861         5.43839         13.1471 
        1.32537         12.2826         5.37925         13.0677 
        1.33151         12.1971         5.32078         12.9578 
        1.33765          12.121         5.26322         12.8621 
        1.34378         12.0729         5.20662         12.7844 
        1.34992         11.9487         5.15082         12.7106 
        1.35606         11.8423         5.09573         12.6099 
         1.3622         11.7532         5.04154         12.5249 
        1.36833         11.7217         4.98826         12.4842 
        1.37445         11.6448         4.93579         12.3747 
        1.38059         11.5562         4.88391         12.2732 
        1.38675         11.4804         4.83266         12.2293 
        1.39288          11.364         4.78235         12.1405 
        1.39901         11.3087         4.73277          12.068 
        1.40515         11.2246         4.68379         11.9964 
         1.4113         11.1477         4.63552         11.9263 
        1.41742         11.1005         4.58812         11.8567 
        1.42355         10.9883          4.5413         11.7645 
         1.4297         10.9377         4.49498         11.7029 
        1.43585         10.8752         4.44934         11.6496 
        1.44198         10.8147          4.4045         11.5693 
        1.44809         10.7328         4.36037          11.506 
        1.45423         10.6539         4.31668         11.4313 
        1.46036         10.5935         4.27367          11.353 
        1.46649         10.5207         4.23124         11.2915 
        1.47263         10.4702         4.18934         11.2434 
        1.47877          10.397         4.14804         11.1772 
        1.48491         10.3379         4.10723         11.0813 
        1.49104         10.2552         4.06705         11.0355 
        1.49718         10.2153         4.02738         10.9805 
        1.50333         10.1507         3.98818         10.9126 
        1.50947         10.0802         3.94959         10.8577 
         1.5156         10.0421         3.91156         10.7988 
        1.52172         9.95611         3.87403         10.7237 
        1.52787         9.91447         3.83693         10.6575 
          1.534          9.8531         3.80035         10.6035 
        1.54013         9.80336         3.76429         10.5258 
        1.54627         9.72669         3.72863         10.4648 
        1.55241         9.64625         3.69343         10.4285 
        1.55855         9.62453         3.65874         10.3701 
        1.56467         9.56825         3.62459         10.3097 
         1.5708         9.51835         3.59077         10.2699 
        1.57695         9.44676         3.55734         10.2146 
        1.58308         9.37565         3.52442         10.1548 
        1.58922         9.34767         3.49189         10.1177 
        1.59535          9.2878         3.45978         10.0587 
         1.6015         9.19437         3.42803         9.99615 
        1.60764         9.15929          3.3967          9.9396 
        1.61376         9.13076         3.36585         9.88728 
        1.61989         9.05027         3.33535         9.84866 
        1.62604         9.02926         3.30517         9.80302 
        1.63218         8.98197         3.27538          9.7481 
        1.63831         8.91027         3.24602         9.69713 
        1.64444         8.84599         3.21702         9.64953 
        1.65059         8.79538          3.1883         9.58856 
        1.65673         8.77627         3.15996         9.54965 
        1.66285         8.71129         3.13205         9.51011 
        1.66898         8.68265         3.10446         9.44697 
        1.67512         8.63256         3.07716          9.4009 
        1.68127          8.5522         3.05016         9.35046 
         1.6874         8.53506         3.02354         9.30262 
        1.69353         8.46239         2.99725         9.27271 
        1.69967         8.43459         2.97122         9.22393 
        1.70581         8.38221         2.94551         9.17865 
        1.71193         8.35313          2.9202         9.14014 
        1.71806         8.30413         2.89513         9.08979 
        1.72421         8.24704         2.87031         9.05333 
        1.73035         8.21282         2.84581         9.00903 
        1.73649         8.18204          2.8216          8.9555 
        1.74262         8.09236         2.79769         8.92599 
        1.74876         8.09953         2.77405         8.87986 
        1.75489         8.04724         2.75072         8.82109 
        1.76101         7.98296         2.72768         8.77689 
        1.76715         7.96802         2.70486         8.75656 
        1.77329          7.9195         2.68228         8.71408 
        1.77943         7.85497         2.65995         8.66263 
        1.78557         7.85523          2.6379         8.63072 
        1.79171         7.80288          2.6161         8.58634 
        1.79785         7.77557         2.59454         8.53857 
        1.80399         7.70762         2.57323         8.50895 
        1.81012         7.68534         2.55219         8.47601 
        1.81625         7.62828          2.5314         8.44164 
        1.82239         7.59826          2.5108         8.40726 
        1.82853         7.54733         2.49044           8.364 
        1.83466          7.4966         2.47033         8.32894 
        1.84078         7.48222         2.45047          8.2971 
        1.84692         7.44949         2.43078         8.24878 
        1.85306         7.41129          2.4113         8.21272 
         1.8592         7.38553         2.39205          8.1852 
        1.86533         7.34128         2.37303         8.14325 
        1.87147         7.30097         2.35419         8.10302 
        1.87761         7.27557         2.33555         8.07178 
