# k  (h/Mpc)    Pcb(k)  (Mpc/h)^3    Pcb_linear(k) (Mpc/h)^3    Pcb_NL(k) (Mpc/h)^3   ShotnoiseSubtracted = false
     0.00783031         5757.99         5789.54         5764.01 
       0.013688         7117.33         7245.18         7207.58 
       0.019231         7365.48         7434.17         7387.81 
      0.0249154         6968.37         6956.26          6917.3 
      0.0312784         6047.06         6075.32         6046.96 
      0.0375637          5131.2         5178.15         5155.26 
      0.0433917         4479.02         4480.97         4459.27 
      0.0492413         3935.22         3957.38          3938.3 
      0.0555754         3572.97         3568.05         3549.87 
      0.0619321         3237.07         3302.45         3283.85 
       0.067871         3077.82         3105.02         3086.54 
      0.0738098         2893.86         2908.25         2878.64 
      0.0800417         2669.36         2674.73         2648.84 
      0.0862327         2400.29         2414.29         2403.21 
      0.0921407         2150.98         2157.43          2151.3 
      0.0982031          1927.7         1910.73         1921.49 
       0.104506         1695.21         1694.65         1718.25 
       0.110769         1541.52         1531.44         1547.77 
       0.116806         1453.27         1420.69         1435.37 
       0.122832         1362.47         1345.04         1360.98 
       0.129052         1306.55         1287.75         1300.96 
       0.135211          1266.4         1235.79         1248.36 
       0.141259         1193.14         1177.75         1194.79 
       0.147318         1110.93         1107.67         1133.69 
       0.153489         1039.12         1025.87         1045.44 
       0.159709         972.156         939.766         969.046 
       0.165845         877.927         859.601         903.509 
       0.171974         838.062         790.935         834.095 
       0.178125         789.348         736.706         788.191 
       0.184229           734.5         697.054         745.982 
        0.19034         716.221         668.317         714.347 
       0.196428         693.921         645.915         685.125 
       0.202534         654.465         624.866         665.217 
       0.208729         642.958         601.159         638.981 
       0.214876         618.261         573.508         621.047 
       0.220989         575.913         542.307         594.164 
       0.227147         557.979         509.156         563.202 
        0.23329         531.253         477.026         537.829 
       0.239377         513.291         448.418         510.761 
       0.245482         484.394         424.302         482.333 
       0.251667         462.984         404.791         466.103 
       0.257832         456.613         389.479         448.383 
       0.263955         432.907         376.917         433.684 
       0.270079         418.704           365.4         421.381 
        0.27624         402.041          353.51         407.822 
       0.282372         391.838          340.59         396.713 
        0.28843         387.926         326.674         383.678 
       0.294538         368.045         311.923         371.447 
       0.300721         353.194         297.075         359.321 
        0.30691         346.115         283.094         347.196 
       0.313033         330.011         270.749         333.096 
       0.319153         323.482         260.096         322.782 
       0.325316         314.291         250.976         314.523 
        0.33145         305.954         243.095          303.34 
       0.337538         295.802          235.97         295.335 
       0.343633          286.72         229.032         290.714 
       0.349808          278.94         221.882         284.589 
       0.355968         272.446         214.458         278.653 
       0.362074         265.273         206.896          270.86 
       0.368217         260.805         199.271         261.567 
       0.374374         254.249         191.873         254.826 
       0.380519         243.496          184.97         247.411 
       0.386598         239.063         178.728         241.871 
       0.392688         232.602         173.103         235.671 
        0.39888          227.52         167.932         229.613 
       0.405048         222.782          163.18         225.991 
       0.411186         219.942         158.694         220.681 
       0.417313         214.936         154.302         214.774 
       0.423458         209.494           149.9         210.808 
       0.429607         204.744         145.489         206.579 
       0.435692         200.927         141.141         202.045 
       0.441815         196.274         136.854         199.355 
       0.447964         190.419         132.723         194.538 
       0.454126         187.097         128.809          188.99 
       0.460267         185.137         125.158         186.807 
       0.466387         181.054         121.771         182.568 
        0.47254         178.876         118.578         179.337 
       0.478662         173.034         115.555          175.91 
       0.484765         170.745         112.648          171.56 
       0.490885         167.681         109.805         169.428 
       0.497035         165.889         106.993         167.101 
       0.503198         162.919         104.213         164.032 
       0.509342         158.589           101.5         161.561 
       0.515458         156.612          98.881         159.701 
       0.521598         152.802         96.3474         155.771 
       0.527764         151.223         93.9104         152.624 
       0.533884         150.327         91.6064         150.496 
           0.54         146.314         89.4178         148.109 
       0.546137         142.981         87.3167         146.361 
       0.552299         141.269         85.2831         143.235 
       0.558452         138.679         83.3127         140.928 
       0.564573         137.965         81.4034          139.56 
       0.570708         134.235         79.5373         137.469 
       0.576825         132.684          77.721         134.904 
       0.582926         131.227         75.9537         132.946 
       0.589034         129.054          74.233         131.629 
       0.595184          127.62         72.5565         129.254 
       0.601379         124.702         70.9297         128.104 
       0.607522         122.597          69.378         125.535 
       0.613639         121.528         67.8881         124.246 
       0.619772         119.696         66.4429         122.235 
       0.625918         118.654         65.0377          121.04 
       0.632068          116.23         63.6705          119.02 
       0.638161         114.565         62.3522         118.086 
         0.6443         113.974         61.0595         116.227 
       0.650464         111.637         59.7965         113.997 
       0.656582         111.115         58.5762         113.249 
       0.662703         109.629          57.388         111.467 
       0.668861         107.316         56.2257         110.314 
       0.675024         107.232         55.0954         108.693 
       0.681124         105.462         54.0092         107.476 
       0.687237          103.61         52.9529         106.095 
       0.693381         102.922         51.9224         104.678 
       0.699536         101.616         50.9193         103.929 
       0.705665         100.166          49.948         103.086 
       0.711789         98.8311         49.0029         101.072 
       0.717957          97.627         48.0749         100.231 
        0.72409         96.8712         47.1749         99.6477 
       0.730186         96.2745         46.3022         98.4478 
       0.736317         94.5671         45.4461         96.9945 
       0.742472         93.3694         44.6083         96.0437 
       0.748622         91.9192         43.7925         94.8874 
        0.75476         91.6121         42.9994         93.7834 
       0.760888         90.9896          42.228          92.592 
       0.767043         89.2146         41.4733         92.1661 
       0.773185         88.1356         40.7393         91.4605 
       0.779291         87.1676         40.0278         90.3926 
       0.785407         86.0977         39.3326         89.1253 
       0.791564         85.9026         38.6497         88.3635 
       0.797719         84.7591         37.9834         87.7899 
       0.803834         84.0539          37.337         86.5238 
       0.809972         83.4159         36.7032         85.7729 
       0.816124         82.3726         36.0826          85.226 
       0.822261         81.2702         35.4779         84.1797 
       0.828378         81.0644          34.889         83.0457 
       0.834502         79.8587         34.3129         82.7074 
       0.840667         79.3422         33.7462         82.1755 
       0.846816         78.5545          33.194         81.2531 
       0.852925         77.6797         32.6577           80.46 
       0.859047         77.3448         32.1323         79.6012 
       0.865192         76.1867         31.6168         79.0997 
       0.871341          75.388         31.1125         78.2446 
       0.877463         74.9089         30.6215         77.6966 
       0.883569         74.6545         30.1425         77.1582 
       0.889708         73.9049         29.6713          76.414 
       0.895864         73.2403         29.2091         75.8316 
       0.902008         72.4814         28.7578         75.0427 
       0.908149         71.6422         28.3164         74.5068 
       0.914301         71.3267         27.8835         74.0312 
       0.920448         71.0587         27.4602         73.3469 
       0.926574         69.6091         27.0471         72.5192 
       0.932687         69.3251         26.6435         72.0668 
       0.938823         68.7403         26.2467         71.3674 
       0.944975         67.9239         25.8571         70.8235 
       0.951105         67.4042         25.4769         70.4092 
       0.957225         67.2221          25.105         69.8853 
       0.963368          66.513         24.7394         69.0725 
       0.969511          65.959          24.381         68.6077 
       0.975621         65.4418         24.0317         68.5573 
       0.981748         64.7859         23.6884         67.8018 
       0.987916         64.2904         23.3497         67.4504 
        0.99406         63.9673          23.019         66.7957 
        1.00019         63.2247         22.6953         66.2396 
        1.00632         62.7599         22.3782         65.8038 
        1.01246          62.327         22.0667         65.2374 
        1.01859          62.041         21.7617         64.8982 
        1.02471         61.3257         21.4629         64.5425 
        1.03085         60.9027         21.1687         63.9451 
        1.03698          60.512         20.8807         63.4369 
        1.04314         60.0541         20.5968         62.9531 
        1.04929         59.4981         20.3189         62.6919 
        1.05541         59.2005         20.0473         62.4309 
        1.06154         58.8337           19.78         61.8995 
        1.06769         58.0959         19.5172         61.4881 
        1.07382         57.7353           19.26         61.0386 
        1.07993         57.4789         19.0081         60.6072 
        1.08607         57.0271         18.7597         60.2174 
        1.09222           56.75         18.5154          59.714 
        1.09836         56.2328         18.2759         59.3655 
        1.10449         55.9369         18.0408         58.9758 
        1.11063         55.4052         17.8097         58.4629 
        1.11677         55.2351         17.5827         58.0796 
         1.1229         54.6738         17.3601         57.9123 
        1.12903         54.4793         17.1412         57.4862 
        1.13518         54.2868         16.9258         57.0905 
        1.14131         53.6785         16.7143         56.7692 
        1.14745         53.2438         16.5066         56.4245 
        1.15359         52.6805         16.3024         56.1282 
        1.15973         52.6507         16.1015         55.7627 
        1.16584         52.2408         15.9049         55.3071 
        1.17197         51.6636         15.7114         55.0654 
        1.17811         51.4572         15.5205         54.6219 
        1.18424         50.8022         15.3333         54.3065 
        1.19038         50.7215         15.1487         54.1223 
        1.19652         50.4772         14.9672         53.6485 
        1.20267         50.0993         14.7887         53.4618 
        1.20881         49.7464         14.6132         53.0809 
        1.21495         49.5492         14.4408         52.8308 
        1.22108         49.3664         14.2712         52.5126 
         1.2272         48.8539         14.1047          52.257 
        1.23334         48.5868         13.9406         51.9023 
        1.23949         48.2912         13.7787         51.5161 
        1.24562         47.9246         13.6198         51.2838 
        1.25174         47.6096         13.4636         51.0706 
        1.25789         47.5848         13.3095          50.703 
        1.26402         47.1669          13.158         50.3886 
        1.27014         46.9491         13.0093         50.2051 
        1.27628         46.4536         12.8624         49.9011 
        1.28244         46.3867         12.7175         49.6088 
        1.28858         46.0101         12.5751         49.3548 
        1.29471         45.7128         12.4352         49.1586 
        1.30084         45.3342         12.2975          48.713 
        1.30697         45.3153         12.1617         48.4299 
        1.31312         44.8811         12.0278         48.3311 
        1.31925         44.5397         11.8963         48.0087 
        1.32537         44.3292          11.767         47.7527 
        1.33151         44.0447         11.6391         47.5201 
        1.33765         43.8592         11.5131         47.2649 
        1.34378          43.686         11.3893          47.006 
        1.34992         43.3245         11.2673         46.7989 
        1.35606         43.0485         11.1468         46.6133 
         1.3622         42.8143         11.0282         46.3402 
        1.36833         42.6393         10.9117         46.0861 
        1.37445         42.2373         10.7969         45.8534 
        1.38059         42.1348         10.6834          45.765 
        1.38675         41.6922         10.5713         45.4193 
        1.39288         41.6799         10.4612         45.2549 
        1.39901         41.3367         10.3528         45.0043 
        1.40515          41.152         10.2457         44.7582 
         1.4113         41.1132         10.1401         44.5445 
        1.41742          40.784         10.0364         44.3261 
        1.42355         40.4391         9.93396         44.0885 
         1.4297         40.2695         9.83266         43.8257 
        1.43585           39.99         9.73281         43.6966 
        1.44198         39.7547         9.63473         43.5229 
        1.44809         39.5115         9.53819         43.1814 
        1.45423         39.3904         9.44263         42.9724 
        1.46036         39.1938         9.34854         42.8163 
        1.46649          38.974         9.25571         42.6621 
        1.47263         38.7169         9.16408         42.4813 
        1.47877          38.563         9.07372          42.238 
        1.48491         38.3919         8.98444         42.0257 
        1.49104         38.0602         8.89656         41.7981 
        1.49718          37.967         8.80979         41.6222 
        1.50333         37.8277         8.72404         41.4588 
        1.50947         37.5048         8.63961         41.2825 
         1.5156         37.3615         8.55643         41.1014 
        1.52172          37.082         8.47434         40.9124 
        1.52787         36.9489         8.39317         40.7117 
          1.534          36.721         8.31316         40.5382 
        1.54013         36.6737         8.23428         40.3438 
        1.54627         36.3087         8.15628         40.1359 
        1.55241         36.1293         8.07928         39.9535 
        1.55855         36.0673         8.00339         39.7865 
        1.56467          35.839         7.92868         39.6194 
         1.5708         35.6732         7.85472         39.4775 
        1.57695         35.4897         7.78159         39.3107 
        1.58308         35.1893         7.70957         39.1048 
        1.58922         35.0286         7.63841         38.9273 
        1.59535          34.915         7.56817         38.7689 
         1.6015         34.8362         7.49873         38.5788 
        1.60764         34.5806         7.43019         38.4023 
        1.61376          34.357         7.36269         38.2662 
        1.61989         34.1494         7.29599         38.0893 
        1.62604         34.0031         7.22996         37.9259 
        1.63218         33.8347         7.16479         37.7935 
        1.63831         33.7251         7.10058         37.6529 
        1.64444         33.5218         7.03713         37.4731 
        1.65059         33.3428         6.97431         37.3076 
        1.65673         33.1884         6.91233          37.136 
        1.66285         33.1091         6.85127         36.9942 
        1.66898         32.8152         6.79093         36.8937 
        1.67512         32.7686          6.7312         36.7383 
        1.68127         32.5635         6.67213         36.5372 
         1.6874         32.3847          6.6139          36.338 
        1.69353         32.3071         6.55641         36.1864 
        1.69967         32.1598         6.49946         36.0821 
        1.70581         31.8747         6.44322         36.0027 
        1.71193         31.7292         6.38785         35.8647 
        1.71806         31.6461         6.33302         35.6056 
        1.72421         31.4852         6.27873         35.4445 
        1.73035         31.3014         6.22513         35.3935 
        1.73649         31.0927         6.17218         35.3039 
        1.74262         30.9039         6.11988         35.0292 
        1.74876         30.8644         6.06815         34.8608 
        1.75489         30.6769         6.01713         34.7856 
        1.76101         30.5742         5.96671         34.6764 
        1.76715         30.4623         5.91681         34.5348 
        1.77329         30.1879         5.86741         34.3857 
        1.77943          30.165         5.81856         34.2436 
        1.78557         30.0188         5.77033         34.1082 
        1.79171         29.8927         5.72265         33.9706 
        1.79785         29.7198         5.67549         33.8678 
        1.80399         29.5815         5.62888         33.7906 
        1.81012         29.4958         5.58285         33.5667 
        1.81625         29.2245         5.53736         33.3731 
        1.82239         29.1277         5.49231         33.3031 
        1.82853         29.0081         5.44778         33.2018 
        1.83466         28.8583         5.40379         33.0679 
        1.84078         28.7182         5.36032         32.9367 
        1.84692         28.6088         5.31727         32.8316 
        1.85306         28.4102         5.27464         32.7173 
         1.8592          28.383         5.23254         32.5886 
        1.86533         28.1968         5.19093         32.4672 
        1.87147         28.0534         5.14972         32.3435 
