# k  (h/Mpc)    P(k)  (Mpc/h)^3    P_linear(k)  (Mpc/h)^3     P_NL(k)  ShotnoiseSubtracted = false
     0.00783031         17579.7         17650.8         17561.8 
       0.013688         21432.1         22052.8         21892.5 
       0.019231         22223.3         22617.5         22401.1 
      0.0249154         21169.3         21158.8         20922.7 
      0.0312784         18220.6         18476.8         18228.1 
      0.0375637         15398.8           15747         15527.8 
      0.0433917         13494.9         13626.2           13395 
      0.0492413         11826.6         12033.6         11819.7 
      0.0555754           10742         10849.4         10660.9 
      0.0619321         9614.42         10041.6          9857.6 
       0.067871         9169.32         9441.19         9270.29 
      0.0738098         8671.81          8842.8         8577.59 
      0.0800417          7981.2         8132.68         7899.26 
      0.0862327         7179.46         7340.73         7225.61 
      0.0921407         6482.71         6559.72         6482.43 
      0.0982031         5869.86         5809.58         5863.09 
       0.104506         5174.03         5152.58          5309.7 
       0.110769         4743.25         4656.31         4772.39 
       0.116806         4498.75         4319.57         4425.07 
       0.122832         4234.31         4089.55         4201.41 
       0.129052         4014.64         3915.36         4013.05 
       0.135211         3931.61         3757.35         3840.41 
       0.141259         3669.61         3580.87         3705.84 
       0.147318         3429.59          3367.8         3540.56 
       0.153489         3230.31          3119.1         3261.24 
       0.159709         3091.46         2857.29          3070.9 
       0.165845            2813         2613.55         2920.11 
       0.171974          2715.3         2404.78         2725.48 
       0.178125         2613.72          2239.9         2613.53 
       0.184229          2402.8         2119.34         2465.48 
        0.19034         2373.78         2031.96         2365.33 
       0.196428         2311.99         1963.85         2275.41 
       0.202534         2185.21         1899.85         2217.16 
       0.208729         2146.22         1827.77         2120.25 
       0.214876         2053.73          1743.7         2081.85 
       0.220989          1958.4         1648.83         2022.39 
       0.227147         1900.23         1548.04         1953.63 
        0.23329         1822.41         1450.35         1886.51 
       0.239377            1810         1363.37         1801.59 
       0.245482         1724.36         1290.04         1714.89 
       0.251667         1661.42         1230.72         1667.12 
       0.257832         1632.66         1184.17         1609.56 
       0.263955         1563.38         1145.98         1566.24 
       0.270079          1526.9         1110.96         1528.27 
        0.27624         1464.55         1074.81         1489.03 
       0.282372         1450.26         1035.53         1469.07 
        0.28843         1421.17         993.222         1442.04 
       0.294538          1359.8         948.368         1400.33 
       0.300721         1336.37         903.224         1356.72 
        0.30691         1300.74         860.718         1334.93 
       0.313033          1253.3         823.184         1288.77 
       0.319153          1240.8          790.79         1249.25 
       0.325316         1225.13         763.063         1227.63 
        0.33145          1197.8         739.104         1185.49 
       0.337538         1160.61         717.441         1168.71 
       0.343633         1135.53         696.347         1157.42 
       0.349808         1116.74         674.611         1141.97 
       0.355968         1093.22         652.035          1123.4 
       0.362074         1062.32         629.044         1103.85 
       0.368217         1058.92         605.862         1077.53 
       0.374374         1042.01         583.366         1055.61 
       0.380519         1007.34         562.383         1033.74 
       0.386598         1002.99         543.402         1018.75 
       0.392688         976.152           526.3         996.522 
        0.39888          959.48         510.577         979.675 
       0.405048          939.39         496.132          963.27 
       0.411186         936.605          482.49         948.301 
       0.417313         930.927         469.139         937.848 
       0.423458         904.486         455.752          921.43 
       0.429607         881.464         442.346         907.985 
       0.435692         873.541         429.123         888.373 
       0.441815         856.718         416.088         885.319 
       0.447964          847.95         403.528         874.231 
       0.454126         836.866         391.629         848.793 
       0.460267         827.307         380.524         846.628 
       0.466387         812.427         370.231         831.682 
        0.47254         800.706         360.522         819.789 
       0.478662         789.364         351.331         808.545 
       0.484765          780.72         342.492         800.505 
       0.490885         772.709         333.851         785.777 
       0.497035          757.84           325.3         779.448 
       0.503198         756.972         316.847         771.182 
       0.509342          742.97           308.6         757.524 
       0.515458         728.542         300.636         752.244 
       0.521598         728.463         292.933         745.069 
       0.527764         711.084         285.524         737.913 
       0.533884         702.785         278.518         729.205 
           0.54         698.659         271.864         720.534 
       0.546137         689.468         265.476         712.695 
       0.552299         684.444         259.294         702.979 
       0.558452         676.267         253.302         697.623 
       0.564573         672.986         247.497         691.402 
       0.570708         664.861         241.824         682.577 
       0.576825         651.947         236.302         674.043 
       0.582926         650.278         230.928         669.713 
       0.589034         641.759         225.697         659.941 
       0.595184         634.527         220.599         653.293 
       0.601379          625.25         215.653         647.543 
       0.607522         616.381         210.936         637.864 
       0.613639         615.725         206.406         636.248 
       0.619772         610.068         202.012         634.021 
       0.625918         601.482          197.74         625.612 
       0.632068          598.59         193.582         622.275 
       0.638161         590.356         189.574         612.687 
         0.6443         584.211         185.644         607.718 
       0.650464         579.899         181.804         600.038 
       0.656582          575.18         178.094         596.763 
       0.662703         568.642         174.481         592.111 
       0.668861         561.976         170.948          589.67 
       0.675024         559.701         167.511          585.78 
       0.681124         548.119         164.209         576.957 
       0.687237         548.686         160.997         571.835 
       0.693381          539.85         157.864         566.471 
       0.699536         541.106         154.814         562.801 
       0.705665          532.17         151.861         556.021 
       0.711789         531.227         148.987         552.018 
       0.717957         524.368         146.166         551.427 
        0.72409         520.087          143.43         545.456 
       0.730186         518.763         140.776         539.741 
       0.736317         511.462         138.174         536.321 
       0.742472         506.078         135.626         532.991 
       0.748622          505.28         133.146         527.538 
        0.75476         497.791         130.734         527.891 
       0.760888         496.142         128.389         521.862 
       0.767043         493.062         126.094          515.11 
       0.773185         488.692         123.863         512.251 
       0.779291          483.96           121.7         507.997 
       0.785407         480.342         119.586         504.889 
       0.791564         478.095          117.51         503.444 
       0.797719         470.579         115.484         498.762 
       0.803834           471.2         113.519         495.499 
       0.809972         464.024         111.592         492.447 
       0.816124         460.943         109.705         486.967 
       0.822261         457.917         107.866         484.549 
       0.828378         456.217         106.076         481.022 
       0.834502         448.861         104.324         479.402 
       0.840667         447.542         102.601         475.733 
       0.846816         443.851         100.922         472.118 
       0.852925          443.21         99.2917         469.319 
       0.859047          437.81         97.6943         464.617 
       0.865192         435.653         96.1271         461.794 
       0.871341          430.59         94.5937         459.039 
       0.877463         429.998          93.101         456.709 
       0.883569         425.972         91.6446          454.58 
       0.889708         421.119         90.2121         449.865 
       0.895864         416.738         88.8069         447.541 
       0.902008         416.034         87.4347          444.46 
       0.908149         411.933         86.0925         440.278 
       0.914301         410.462         84.7764         436.912 
       0.920448         405.311         83.4893         436.229 
       0.926574         403.546         82.2335          433.24 
       0.932687         402.143         81.0063         429.423 
       0.938823         397.799         79.7999          428.43 
       0.944975         396.515         78.6154         425.547 
       0.951105         393.058         77.4594         422.272 
       0.957225         388.286         76.3288         420.029 
       0.963368         388.348          75.217         417.287 
       0.969511         383.429         74.1275         414.875 
       0.975621         380.884         73.0656         412.227 
       0.981748         379.522         72.0218         410.037 
       0.987916         376.873          70.992         408.071 
        0.99406         372.826         69.9864         405.281 
        1.00019         369.499         69.0024         401.881 
        1.00632         368.637         68.0383         399.344 
        1.01246         365.328         67.0913         397.045 
        1.01859         362.657         66.1639         394.605 
        1.02471          360.81         65.2554         392.576 
        1.03085           358.9         64.3609         391.401 
        1.03698         356.515         63.4852         389.851 
        1.04314         353.699         62.6221         386.876 
        1.04929         352.633         61.7772          383.52 
        1.05541         348.707         60.9513         381.241 
        1.06154         346.267         60.1386         379.431 
        1.06769         343.697         59.3396         376.807 
        1.07382         340.615         58.5577         374.688 
        1.07993         340.464         57.7918         372.792 
        1.08607         338.406         57.0364         370.352 
        1.09222         334.999         56.2939         368.307 
        1.09836         333.077         55.5655         366.927 
        1.10449         330.563         54.8509           365.4 
        1.11063         329.465         54.1482         362.055 
        1.11677         325.727         53.4581         360.566 
         1.1229         324.502         52.7813         358.239 
        1.12903         321.638         52.1156         356.265 
        1.13518         320.151         51.4609         353.755 
        1.14131         318.114         50.8179          352.52 
        1.14745         315.265         50.1863         349.552 
        1.15359         312.594         49.5653         349.023 
        1.15973         311.188         48.9546         346.595 
        1.16584         309.631          48.357         345.354 
        1.17197         307.419         47.7686         343.531 
        1.17811         303.931         47.1881         340.928 
        1.18424         303.243         46.6191         339.281 
        1.19038         301.529         46.0578         338.167 
        1.19652         298.537          45.506         335.328 
        1.20267         297.219         44.9633         334.085 
        1.20881         295.713         44.4296         332.233 
        1.21495         292.897         43.9054         330.265 
        1.22108         291.961         43.3898         328.194 
         1.2272         288.181         42.8838         327.219 
        1.23334          286.89         42.3846         325.053 
        1.23949         285.213         41.8923         323.199 
        1.24562         284.051         41.4092         321.349 
        1.25174         282.338         40.9345         319.883 
        1.25789         279.591         40.4658         318.036 
        1.26402         278.429         40.0053         317.007 
        1.27014          276.74         39.5531         314.715 
        1.27628         274.988         39.1066         314.014 
        1.28244         272.062         38.6661         312.482 
        1.28858         271.266          38.233         310.655 
        1.29471         269.627         37.8076         308.737 
        1.30084         268.925          37.389          306.65 
        1.30697         265.793         36.9762         305.577 
        1.31312         264.402          36.569         304.146 
        1.31925         262.988         36.1693         302.447 
        1.32537         261.885          35.776         300.553 
        1.33151         258.969         35.3871         299.438 
        1.33765         257.255         35.0043         298.219 
        1.34378         256.557         34.6279         296.065 
        1.34992         253.853         34.2568         294.608 
        1.35606         252.358         33.8904         292.886 
         1.3622         250.484         33.5299         292.073 
        1.36833         250.391         33.1757         290.928 
        1.37445         248.986         32.8267         288.666 
        1.38059         245.708         32.4816         287.699 
        1.38675         244.342         32.1408         286.549 
        1.39288         243.837         31.8061         284.795 
        1.39901         241.475         31.4764         283.042 
        1.40515         240.333         31.1507         281.376 
         1.4113         238.548         30.8297         279.929 
        1.41742         236.945         30.5144         278.796 
        1.42355         235.655          30.203         277.429 
         1.4297         234.161          29.895         275.607 
        1.43585         232.535         29.5914         275.161 
        1.44198         231.106         29.2932         273.513 
        1.44809         229.826         28.9997         272.118 
        1.45423         228.487         28.7091         270.198 
        1.46036         227.799         28.4231         269.189 
        1.46649         225.781         28.1409         268.081 
        1.47263         223.859         27.8622         266.312 
        1.47877         222.824         27.5875         264.845 
        1.48491         221.119         27.3161          263.36 
        1.49104         219.022         27.0489         262.364 
        1.49718         218.376         26.7851         261.973 
        1.50333         216.826         26.5244         260.028 
        1.50947         215.364         26.2677          258.56 
         1.5156         214.182         26.0148         257.768 
        1.52172         212.671         25.7652         256.499 
        1.52787         211.465         25.5184          255.24 
          1.534         210.801         25.2751         253.886 
        1.54013         208.821         25.0353         252.804 
        1.54627          207.72         24.7982         251.838 
        1.55241         206.726         24.5641         250.704 
        1.55855         205.172         24.3333         249.494 
        1.56467         203.893         24.1062         247.896 
         1.5708         202.379         23.8813         246.581 
        1.57695         201.807          23.659         245.459 
        1.58308         200.563           23.44         244.164 
        1.58922         198.765         23.2236         243.136 
        1.59535         197.515         23.0101          242.25 
         1.6015         196.593         22.7989         241.443 
        1.60764         195.118         22.5906         240.118 
        1.61376         193.768         22.3854         238.526 
        1.61989          192.59         22.1825         237.579 
        1.62604         191.661         21.9818         236.314 
        1.63218         190.184         21.7837         235.211 
        1.63831         189.274         21.5884         234.354 
        1.64444         187.797         21.3955         233.096 
        1.65059         186.886         21.2045         232.187 
        1.65673         185.696         21.0161         231.238 
        1.66285         184.443         20.8304         229.979 
        1.66898         183.474          20.647          228.63 
        1.67512         182.216         20.4654         227.732 
        1.68127         181.075         20.2858         226.686 
         1.6874         180.001         20.1088         225.614 
        1.69353         179.345          19.934         224.884 
        1.69967         177.819         19.7608         223.781 
        1.70581         176.937         19.5898         222.677 
        1.71193         175.594         19.4215         221.677 
        1.71806          174.43         19.2548         220.495 
        1.72421         173.557         19.0897         219.476 
        1.73035         172.333         18.9267         218.496 
        1.73649         170.974         18.7657         217.421 
        1.74262         170.268         18.6067         216.363 
        1.74876         169.158         18.4495         215.417 
        1.75489         168.569         18.2943         214.649 
        1.76101         167.413         18.1411         213.903 
        1.76715          166.27         17.9893         212.819 
        1.77329         165.083         17.8391         211.932 
        1.77943         164.044         17.6906         211.062 
        1.78557         162.925          17.544         209.857 
        1.79171         162.261          17.399         208.856 
        1.79785         160.949         17.2556          207.98 
        1.80399         160.151         17.1139         206.992 
        1.81012         159.651          16.974         206.329 
        1.81625          157.93         16.8357         205.508 
        1.82239         157.547         16.6987         204.386 
        1.82853         156.382         16.5633         203.486 
        1.83466         155.107         16.4295         202.558 
        1.84078         154.407         16.2974         201.633 
        1.84692         153.774         16.1665         200.964 
        1.85306         152.626         16.0369         199.987 
         1.8592          151.83         15.9089         198.912 
        1.86533         150.403         15.7824         198.209 
        1.87147         149.625         15.6571         197.368 
        1.87761         148.983         15.5331         196.478 
