# k  (h/Mpc)    Pcb(k)  (Mpc/h)^3    Pcb_linear(k) (Mpc/h)^3    Pcb_NL(k) (Mpc/h)^3   ShotnoiseSubtracted = false
     0.00783031           16047         16114.1         16034.5 
       0.013688         19595.9         20137.8         19997.2 
       0.019231         20315.8         20654.7         20466.6 
      0.0249154         19338.5         19323.2         19122.1 
      0.0312784         16661.3         16874.2         16666.9 
      0.0375637           14087         14381.3         14199.3 
      0.0433917         12340.9         12444.5         12253.2 
      0.0492413         10817.5         10990.1         10813.5 
      0.0555754         9826.94         9908.63         9752.31 
      0.0619321         8805.73         9170.91         9017.83 
       0.067871         8397.31         8622.53         8480.07 
      0.0738098         7935.29         8076.05         7854.59 
      0.0800417         7306.65         7427.51         7232.28 
      0.0862327         6571.21         6704.23         6608.68 
      0.0921407         5927.51         5990.94         5926.83 
      0.0982031         5360.66         5305.85         5352.46 
       0.104506         4722.68         4705.82         4839.74 
       0.110769         4325.03         4252.58         4349.86 
       0.116806         4100.96         3945.04         4033.31 
       0.122832         3856.16         3734.97         3829.14 
       0.129052         3662.17         3575.88         3657.37 
       0.135211         3582.75         3431.57         3501.63 
       0.141259         3346.91          3270.4         3375.08 
       0.147318         3124.41          3075.8         3222.94 
       0.153489         2940.76         2848.66          2967.9 
       0.159709         2807.84         2609.56         2789.78 
       0.165845         2550.82         2386.95         2647.84 
       0.171974          2462.1         2196.27         2467.46 
       0.178125         2364.29         2045.69         2363.15 
       0.184229         2174.87         1935.58          2229.9 
        0.19034         2145.64         1855.78         2138.67 
       0.196428         2088.81         1793.58         2055.35 
       0.202534         1971.03         1735.13          2002.1 
       0.208729         1938.05          1669.3         1914.56 
       0.214876         1854.92         1592.51          1879.5 
       0.220989         1762.82         1505.87         1822.73 
       0.227147         1711.07         1413.82         1756.79 
        0.23329         1640.21          1324.6         1695.69 
       0.239377         1625.91         1245.16         1618.17 
       0.245482         1546.45          1178.2         1538.55 
       0.251667         1489.25         1124.02         1495.55 
       0.257832         1464.61          1081.5         1442.72 
       0.263955         1400.09         1046.62         1402.43 
       0.270079         1365.03         1014.64         1368.06 
        0.27624         1309.22         981.623          1332.2 
       0.282372         1294.22         945.745          1311.3 
        0.28843         1271.43         907.104          1284.8 
       0.294538         1213.41         866.142         1248.04 
       0.300721         1190.16         824.913         1208.88 
        0.30691         1160.59         786.092         1187.79 
       0.313033         1115.42          751.81         1145.92 
       0.319153         1102.98          722.23         1110.96 
       0.325316         1089.12         696.905         1090.49 
        0.33145         1064.99         675.021          1052.5 
       0.337538         1030.34         655.238         1036.34 
       0.343633            1007         635.973         1026.69 
       0.349808         988.741         616.117          1011.9 
       0.355968         968.874         595.504         995.196 
       0.362074         938.972         574.504         976.798 
       0.368217         936.327         553.333         951.883 
       0.374374         921.772         532.789         932.395 
       0.380519         889.334         513.622         911.727 
       0.386598          884.45         496.289         899.362 
       0.392688         861.545         480.669         877.323 
        0.39888         844.406         466.309         863.211 
       0.405048         827.228         453.116          849.26 
       0.411186         825.307         440.657         834.089 
       0.417313         820.063         428.464         823.784 
       0.423458          796.03         416.238         810.439 
       0.429607         774.609         403.991         797.228 
       0.435692         767.391         391.918         780.293 
       0.441815         752.788         380.012          776.64 
       0.447964          743.33         368.541         765.673 
       0.454126         733.979         357.673         743.594 
       0.460267         724.488         347.535         741.514 
       0.466387         711.741          338.13         728.113 
        0.47254         701.002         329.265         717.814 
       0.478662         690.593         320.869         707.013 
       0.484765         682.965         312.797         698.938 
       0.490885         675.895         304.905         686.601 
       0.497035         662.531         297.096          680.46 
       0.503198         661.678         289.376         672.738 
       0.509342         649.368         281.844         661.356 
       0.515458         636.571          274.57         656.688 
       0.521598         634.604         267.535         649.555 
       0.527764         620.061         260.768         642.904 
       0.533884         613.855         254.371         634.882 
           0.54         609.082         248.293          626.65 
       0.546137         600.215         242.459         619.395 
       0.552299         596.876         236.812         610.809 
       0.558452          588.87         231.341         606.012 
       0.564573         584.982         226.039         600.953 
       0.570708         578.381         220.857         593.942 
       0.576825         567.047         215.814         585.378 
       0.582926         565.512         210.906         581.139 
       0.589034         557.205         206.128         572.397 
       0.595184          551.74         201.473         566.562 
       0.601379         543.483         196.956         561.304 
       0.607522          534.84         192.647         553.166 
       0.613639         534.164          188.51         551.886 
       0.619772         530.292         184.497         550.057 
       0.625918         521.201         180.595         541.822 
       0.632068         518.981         176.799         538.585 
       0.638161         512.592         173.138          530.74 
         0.6443         506.712         169.549         526.672 
       0.650464         502.423         166.041         518.728 
       0.656582         498.388         162.653         515.998 
       0.662703         493.255         159.354         512.354 
       0.668861         486.768         156.126         509.827 
       0.675024         484.769         152.987         506.063 
       0.681124         475.311         149.971          498.01 
       0.687237         475.229         147.038         493.561 
       0.693381         467.714         144.177         489.158 
       0.699536         467.884         141.392         485.916 
       0.705665         460.859         138.694         479.972 
       0.711789          459.74          136.07         476.755 
       0.717957         453.537         133.493         475.913 
        0.72409          449.39         130.994         470.544 
       0.730186         449.313         128.571         465.851 
       0.736317         442.115         126.194         462.461 
       0.742472         438.137         123.867         458.901 
       0.748622         436.352         121.602         454.596 
        0.75476         431.343           119.4         455.291 
       0.760888          428.99         117.258         449.245 
       0.767043         425.753         115.162         444.219 
       0.773185         422.265         113.124         441.641 
       0.779291         417.967         111.148         437.792 
       0.785407         414.947         109.218         435.241 
       0.791564         412.755         107.321         433.201 
       0.797719         406.257         105.471          428.92 
       0.803834         407.556         103.676         426.708 
       0.809972         400.896         101.916         423.957 
       0.816124         397.825         100.193         418.642 
       0.822261         395.173         98.5142          416.88 
       0.828378          393.43         96.8788         413.704 
       0.834502         386.956         95.2792         412.232 
       0.840667         386.766         93.7055         408.601 
       0.846816         381.995         92.1721         405.678 
       0.852925         382.156          90.683         403.363 
       0.859047         378.039          89.224         399.653 
       0.865192         376.003         87.7927         396.689 
       0.871341         371.193         86.3923         394.681 
       0.877463          370.21          85.029         392.352 
       0.883569         366.863         83.6988         390.698 
       0.889708         363.095         82.3906         386.641 
       0.895864         359.237         81.1072         384.662 
       0.902008         358.257          79.854         381.903 
       0.908149         354.784         78.6281          378.63 
       0.914301         353.434         77.4262         375.641 
       0.920448         349.583         76.2506         374.501 
       0.926574         347.759         75.1037         371.698 
       0.932687         346.659         73.9829         368.967 
       0.938823         342.694         72.8811         368.275 
       0.944975          341.82         71.7994         365.134 
       0.951105           338.5         70.7436         362.429 
       0.957225         334.519          69.711         360.636 
       0.963368         334.941         68.6956         358.462 
       0.969511         329.531         67.7005         356.312 
       0.975621         327.939         66.7307         353.874 
       0.981748         326.826         65.7774         351.943 
       0.987916         324.564         64.8369         350.327 
        0.99406         321.186         63.9185         347.917 
        1.00019         318.314         63.0197         344.818 
        1.00632         317.936         62.1392         342.743 
        1.01246         315.022         61.2743         340.387 
        1.01859         312.041         60.4274         338.388 
        1.02471         310.175         59.5977         336.951 
        1.03085         309.055         58.7807         335.704 
        1.03698         307.157         57.9809         334.309 
        1.04314         305.218         57.1927         331.809 
        1.04929         303.733          56.421         328.986 
        1.05541         300.464         55.6668         327.082 
        1.06154         298.385         54.9245         325.542 
        1.06769         296.048         54.1947         323.343 
        1.07382         293.752         53.4807         321.622 
        1.07993         292.865         52.7811         320.027 
        1.08607         291.312         52.0913         317.626 
        1.09222          288.43         51.4131         315.999 
        1.09836         287.153         50.7479         314.857 
        1.10449         285.229         50.0953         313.131 
        1.11063          283.53         49.4535         310.585 
        1.11677         280.439         48.8232         309.081 
         1.1229         280.017          48.205         307.313 
        1.12903         277.294         47.5971         305.796 
        1.13518         275.521         46.9992         303.736 
        1.14131         274.288         46.4119         302.196 
        1.14745          271.45          45.835         300.081 
        1.15359         269.439         45.2679           299.3 
        1.15973         268.214         44.7102         297.393 
        1.16584         266.523         44.1644         296.171 
        1.17197         265.025         43.6269         294.741 
        1.17811         262.223         43.0968         292.658 
        1.18424         261.156         42.5771          291.23 
        1.19038          259.96         42.0645         290.297 
        1.19652         257.097         41.5605         288.018 
        1.20267         256.398         41.0649          286.65 
        1.20881         254.489         40.5775         285.152 
        1.21495         253.172         40.0987         283.404 
        1.22108         251.507         39.6278         281.656 
         1.2272         248.633         39.1657         280.374 
        1.23334         247.723         38.7098         278.847 
        1.23949         246.219         38.2602         277.523 
        1.24562         244.905          37.819         275.814 
        1.25174         243.566         37.3854         274.497 
        1.25789         241.137         36.9573         272.929 
        1.26402         240.517         36.5368         272.182 
        1.27014         239.161         36.1238         270.155 
        1.27628         237.421          35.716         269.607 
        1.28244         235.207         35.3137         268.345 
        1.28858         234.331         34.9182         266.651 
        1.29471         232.794         34.5296         264.669 
        1.30084         232.229         34.1473         263.319 
        1.30697         229.607         33.7703         262.362 
        1.31312         228.341         33.3984         260.888 
        1.31925         227.033         33.0334         259.603 
        1.32537         226.154         32.6742         257.956 
        1.33151         224.065          32.319         256.865 
        1.33765         222.416         31.9694          255.84 
        1.34378         221.794         31.6256         254.344 
        1.34992         219.422         31.2867         252.863 
        1.35606         218.571          30.952         251.364 
         1.3622         216.808         30.6229         250.625 
        1.36833          216.34         30.2993         249.637 
        1.37445         215.475         29.9805         247.538 
        1.38059         212.714         29.6654         246.856 
        1.38675         211.373         29.3541         245.987 
        1.39288         210.652         29.0485         244.089 
        1.39901         208.675         28.7474         242.825 
        1.40515         207.905         28.4499         241.513 
         1.4113         206.456         28.1567         240.256 
        1.41742         204.868         27.8688          239.34 
        1.42355         204.223         27.5843         237.925 
         1.4297         202.787          27.303         236.639 
        1.43585         201.737         27.0258         236.209 
        1.44198         200.124         26.7534          234.77 
        1.44809          199.17         26.4854         233.704 
        1.45423         197.979           26.22         231.942 
        1.46036         197.005         25.9588          231.09 
        1.46649         195.527          25.701         230.275 
        1.47263         194.412         25.4465         228.827 
        1.47877         193.171         25.1956         227.463 
        1.48491         191.705         24.9477         226.197 
        1.49104         189.909         24.7037         225.455 
        1.49718         189.507         24.4628         224.857 
        1.50333          187.76         24.2247         223.503 
        1.50947         186.853         23.9902         222.392 
         1.5156         185.791         23.7592         221.375 
        1.52172         184.694         23.5313         220.006 
        1.52787         183.595         23.3059         219.212 
          1.534         182.975         23.0837         218.161 
        1.54013         181.275         22.8647         217.129 
        1.54627         180.595         22.6481         216.312 
        1.55241         179.524         22.4343         215.321 
        1.55855         178.338         22.2236         214.183 
        1.56467         177.296         22.0161         212.953 
         1.5708         175.808         21.8108         211.916 
        1.57695         175.167         21.6077         210.968 
        1.58308         174.042         21.4077          209.87 
        1.58922         172.777         21.2101         208.869 
        1.59535         171.551         21.0151         208.158 
         1.6015         170.848         20.8222         207.323 
        1.60764         169.472         20.6319         206.175 
        1.61376         168.383         20.4445          205.09 
        1.61989         167.461         20.2593         204.162 
        1.62604         166.673         20.0759         203.054 
        1.63218         165.558          19.895         202.142 
        1.63831         164.789         19.7167         201.426 
        1.64444         163.296         19.5405          200.42 
        1.65059         162.544         19.3661         199.548 
        1.65673         161.552         19.1939         198.633 
        1.66285         160.634         19.0244         197.617 
        1.66898         159.767         18.8568          196.64 
        1.67512         158.588          18.691         195.847 
        1.68127         157.798          18.527         194.963 
         1.6874          156.76         18.3653         194.048 
        1.69353         156.129         18.2056         193.269 
        1.69967         154.873         18.0475         192.349 
        1.70581           154.3         17.8913         191.534 
        1.71193         153.116         17.7376         190.709 
        1.71806         152.037         17.5854         189.551 
        1.72421         151.195         17.4346         188.754 
        1.73035         150.277         17.2858         187.978 
        1.73649         149.161         17.1387         187.019 
        1.74262         148.469         16.9935          186.25 
        1.74876         147.756         16.8499         185.421 
        1.75489         147.186         16.7082         184.613 
        1.76101         145.868         16.5682         183.934 
        1.76715         144.978         16.4296         183.197 
        1.77329         143.938         16.2925         182.358 
        1.77943          143.08         16.1568         181.449 
        1.78557         142.156         16.0229         180.548 
        1.79171         141.539         15.8905         179.794 
        1.79785         140.486         15.7595         179.015 
        1.80399         139.826         15.6301         178.112 
        1.81012         139.328         15.5023         177.587 
        1.81625         137.946          15.376         176.864 
        1.82239         137.597         15.2509         175.807 
        1.82853         136.434         15.1272         175.046 
        1.83466           135.3         15.0051         174.228 
        1.84078         134.895         14.8844         173.413 
        1.84692         134.244         14.7648         172.968 
        1.85306          133.24         14.6465         172.072 
         1.8592         132.615         14.5296         171.063 
        1.86533         131.418          14.414          170.67 
        1.87147         130.672         14.2996         170.121 
