# k  (h/Mpc)    Pcb(k)  (Mpc/h)^3    Pcb_linear(k) (Mpc/h)^3    Pcb_NL(k) (Mpc/h)^3   ShotnoiseSubtracted = false
     0.00783031           14737         14800.4         14728.3 
       0.013688         18020.1         18499.4         18374.4 
       0.019231         18679.4         18975.2         18809.3 
      0.0249154         17770.2         17752.4         17578.2 
      0.0312784         15322.3         15502.7         15326.8 
      0.0375637         12959.6         13212.5         13058.6 
      0.0433917         11349.7         11433.2           11272 
      0.0492413         9950.56           10097         9948.43 
      0.0555754         9040.17         9103.44         8971.52 
      0.0619321         8108.85         8425.69         8296.12 
       0.067871          7731.8         7921.88         7801.01 
      0.0738098         7301.82         7419.81         7231.65 
      0.0800417         6725.64         6823.98         6657.96 
      0.0862327         6047.77         6159.47         6078.83 
      0.0921407         5450.96         5504.15         5450.17 
      0.0982031         4924.89         4874.73         4915.95 
       0.104506         4337.07         4323.45         4439.43 
       0.110769         3968.63         3907.05         3990.25 
       0.116806         3761.95         3624.49         3699.93 
       0.122832         3534.81         3431.49         3512.33 
       0.129052          3361.4         3285.33          3354.8 
       0.135211         3285.65         3152.75         3213.08 
       0.141259         3071.71         3004.67         3094.24 
       0.147318          2865.2         2825.88         2953.38 
       0.153489         2695.15          2617.2         2719.31 
       0.159709         2568.27         2397.52         2552.36 
       0.165845         2330.45            2193         2418.59 
       0.171974          2248.8         2017.82         2251.06 
       0.178125         2155.11         1879.47         2153.48 
       0.184229         1983.82         1778.31         2032.61 
        0.19034         1954.86            1705         1948.95 
       0.196428         1902.37         1647.85         1871.72 
       0.202534         1793.08         1594.14          1822.7 
       0.208729         1764.43         1533.66          1743.3 
       0.214876         1689.26         1463.12         1710.77 
       0.220989         1600.92         1383.52         1656.76 
       0.227147          1554.4         1298.95         1593.85 
        0.23329         1489.37         1216.98          1537.6 
       0.239377         1473.66         1143.99         1466.55 
       0.245482         1399.85         1082.47          1393.1 
       0.251667         1347.46         1032.69          1353.9 
       0.257832         1326.02         993.627          1305.3 
       0.263955         1265.88         961.579         1267.86 
       0.270079         1232.43         932.197         1236.49 
        0.27624         1182.05         901.865         1203.43 
       0.282372         1166.87         868.902         1182.39 
        0.28843         1148.54         833.401         1156.69 
       0.294538         1094.06         795.767         1123.83 
       0.300721         1071.22         757.888         1088.54 
        0.30691         1046.11         722.221         1068.13 
       0.313033         1003.51         690.725         1029.86 
       0.319153         991.283         663.548         998.531 
       0.325316         978.616         640.281         979.234 
        0.33145         957.014         620.175         944.756 
       0.337538         924.864         601.999         929.302 
       0.343633         902.996           584.3         920.814 
       0.349808         885.526         566.056         906.786 
       0.355968         868.258         547.118          891.65 
       0.362074         840.068         527.825         874.277 
       0.368217          837.72         508.374         850.797 
       0.374374         824.648           489.5         833.156 
       0.380519         794.516          471.89         813.892 
       0.386598         789.343         455.965         803.229 
       0.392688         769.488         441.614          782.08 
        0.39888         752.614         428.421         769.836 
       0.405048         737.686           416.3         757.853 
       0.411186         736.046         404.853         742.856 
       0.417313         730.863         393.651         732.694 
       0.423458         709.159         382.418         721.542 
       0.429607         689.554         371.167         708.882 
       0.435692         682.557         360.074         693.968 
       0.441815         669.827         349.136         689.978 
       0.447964         660.094         338.597         679.389 
       0.454126         652.107         328.612         660.073 
       0.460267         642.782         319.297         657.891 
       0.466387         631.721         310.657         645.795 
        0.47254         622.002         302.511         636.753 
       0.478662         612.137         294.798         626.468 
       0.484765         605.337         287.382         618.387 
       0.490885         599.065         280.131          607.98 
       0.497035         586.865         272.957         602.161 
       0.503198         586.226         265.864         594.881 
       0.509342         574.946         258.944         585.389 
       0.515458         563.675         252.261         581.075 
       0.521598         560.354         245.798         573.862 
       0.527764         548.269         239.581          567.75 
       0.533884         543.491         233.703         560.462 
           0.54         538.441         228.119         552.667 
       0.546137         529.804         222.759         546.094 
       0.552299         527.561         217.571         538.519 
       0.558452         519.862         212.544         534.063 
       0.564573         515.832         207.673         529.793 
       0.570708         510.044         202.912         524.053 
       0.576825         500.133         198.279         515.694 
       0.582926          498.58          193.77         511.531 
       0.589034         490.778          189.38         503.918 
       0.595184          486.42         185.103         498.549 
       0.601379         478.977         180.953         493.767 
       0.607522         470.833         176.994         486.899 
       0.613639         469.979         173.193         485.555 
       0.619772         467.206         169.506         483.916 
       0.625918         458.523         165.922          476.13 
       0.632068         456.329         162.434         472.733 
       0.638161         451.315          159.07         466.596 
         0.6443         445.917         155.773         462.967 
       0.650464          441.58          152.55         455.298 
       0.656582         437.937         149.437         452.713 
       0.662703         433.941         146.406         449.915 
       0.668861         427.606         143.441         447.226 
       0.675024         425.728         140.557         443.574 
       0.681124         418.267         137.786         436.362 
       0.687237          417.35         135.091         432.522 
       0.693381         411.028         132.462         428.766 
       0.699536         410.408         129.903         425.899 
       0.705665          404.76         127.425         420.699 
       0.711789         403.332         125.014         418.078 
       0.717957         397.921         122.647         416.824 
        0.72409         393.787         120.351          412.24 
       0.730186         394.705         118.124         408.226 
       0.736317         387.786          115.94         404.862 
       0.742472         384.676         113.803         401.337 
       0.748622         382.215         111.722         397.783 
        0.75476         378.972         109.698         398.359 
       0.760888         376.086          107.73         392.755 
       0.767043         372.819         105.805         389.026 
       0.773185         370.085         103.932         386.525 
       0.779291         365.926         102.117         382.957 
       0.785407          363.56         100.344         380.805 
       0.791564         361.277         98.6015         378.455 
       0.797719         355.544         96.9017         374.782 
       0.803834          357.28         95.2526         373.135 
       0.809972         351.296         93.6356          370.52 
       0.816124         348.139         92.0524         365.735 
       0.822261         345.631         90.5099         364.277 
       0.828378         344.181         89.0073         361.412 
       0.834502         338.639         87.5377         359.854 
       0.840667         338.887         86.0919         356.528 
       0.846816         333.647          84.683         354.231 
       0.852925         334.074         83.3149         352.124 
       0.859047         330.751         81.9745          349.26 
       0.865192         329.182         80.6595         346.369 
       0.871341          324.73         79.3728         344.619 
       0.877463         323.244         78.1203          342.47 
       0.883569         320.729         76.8982          341.05 
       0.889708         317.635         75.6963          337.57 
       0.895864           314.3         74.5171          335.76 
       0.902008         313.053         73.3658         333.317 
       0.908149         310.134         72.2395         330.543 
       0.914301         308.643         71.1353         328.009 
       0.920448         306.087         70.0552         326.488 
       0.926574         304.134         69.0015         324.059 
       0.932687         303.049         67.9717         321.924 
       0.938823         299.597         66.9595         321.233 
       0.944975         298.887         65.9656         318.399 
       0.951105         295.788         64.9956         316.083 
       0.957225         292.599         64.0469         314.413 
       0.963368         293.002          63.114         312.578 
       0.969511         287.663         62.1998         310.488 
       0.975621         286.487         61.3087         308.569 
       0.981748         285.581         60.4329         306.864 
       0.987916         283.693         59.5689         305.349 
        0.99406         280.847          58.725         303.284 
        1.00019          278.58         57.8993         300.548 
        1.00632          278.19         57.0904         298.795 
        1.01246         275.629         56.2958         296.529 
        1.01859          272.66         55.5176         294.854 
        1.02471         270.942         54.7553         293.713 
        1.03085         269.951         54.0047           292.5 
        1.03698         268.541         53.2699          291.31 
        1.04314         267.143         52.5457         289.028 
        1.04929         265.548         51.8368         286.694 
        1.05541         262.889         51.1438         285.079 
        1.06154         261.002         50.4619         283.687 
        1.06769         258.937         49.7914         281.896 
        1.07382         257.374         49.1353          280.33 
        1.07993         255.775         48.4926         278.974 
        1.08607         254.478         47.8588         276.795 
        1.09222         252.121         47.2358         275.405 
        1.09836         251.325         46.6246         274.372 
        1.10449         249.524          46.025         272.822 
        1.11063         247.672         45.4353          270.89 
        1.11677         245.392         44.8563         269.254 
         1.1229             245         44.2883          267.92 
        1.12903         242.577         43.7298          266.66 
        1.13518         240.968         43.1805         264.873 
        1.14131         240.101         42.6409         263.374 
        1.14745         237.437         42.1109         261.773 
        1.15359         235.781         41.5899         260.744 
        1.15973         234.921         41.0774         259.263 
        1.16584         233.298          40.576         257.835 
        1.17197         232.085         40.0822         256.836 
        1.17811         229.864         39.5952         255.213 
        1.18424         228.651         39.1177         253.817 
        1.19038         227.757         38.6467         253.037 
        1.19652         224.932         38.1837         251.218 
        1.20267         224.508         37.7283         249.758 
        1.20881         222.631         37.2805         248.557 
        1.21495         222.097         36.8407         247.057 
        1.22108         220.324          36.408         245.521 
         1.2272         218.111         35.9834          244.06 
        1.23334         217.332         35.5646         243.023 
        1.23949         216.046         35.1515         242.043 
        1.24562          214.67         34.7461         240.439 
        1.25174         213.491         34.3478         239.316 
        1.25789          211.45         33.9545         237.904 
        1.26402         211.059         33.5681         237.247 
        1.27014         210.035         33.1887         235.633 
        1.27628         208.271          32.814         235.108 
        1.28244          206.59         32.4444         233.948 
        1.28858         205.534          32.081         232.425 
        1.29471         204.262          31.724         230.566 
        1.30084         203.463         31.3728         229.612 
        1.30697          201.49         31.0264         228.768 
        1.31312         200.363         30.6848         227.308 
        1.31925         199.093         30.3494         226.249 
        1.32537         198.419         30.0194         225.013 
        1.33151          196.87         29.6931         223.951 
        1.33765         195.463         29.3718         222.954 
        1.34378         194.744          29.056         221.924 
        1.34992         192.938         28.7446         220.459 
        1.35606         192.187         28.4371         219.169 
         1.3622         190.715         28.1347         218.468 
        1.36833         189.719         27.8374         217.558 
        1.37445         189.414         27.5446         215.749 
        1.38059         187.094         27.2551         215.105 
        1.38675         185.945         26.9691         214.337 
        1.39288         184.992         26.6883         212.457 
        1.39901         183.483         26.4116         211.697 
        1.40515         182.999         26.1383         210.738 
         1.4113         181.622         25.8689          209.56 
        1.41742         180.207         25.6044         208.707 
        1.42355         179.949         25.3431         207.486 
         1.4297          178.48         25.0846         206.488 
        1.43585         177.732         24.8299         205.833 
        1.44198         176.025         24.5797         204.752 
        1.44809         175.343         24.3334         203.856 
        1.45423         174.308         24.0896          202.27 
        1.46036         173.237         23.8496         201.502 
        1.46649         172.083         23.6128         200.893 
        1.47263         171.397          23.379         199.767 
        1.47877         170.138         23.1485         198.505 
        1.48491          168.79         22.9207         197.402 
        1.49104           167.3         22.6965         196.882 
        1.49718         166.979         22.4752         196.006 
        1.50333         165.362         22.2564         194.961 
        1.50947         164.749          22.041          194.18 
         1.5156         163.671         21.8288         193.169 
        1.52172         162.883         21.6194         191.821 
        1.52787         161.951         21.4123         191.253 
          1.534         161.178         21.2082         190.417 
        1.54013         159.837         21.0069          189.45 
        1.54627          159.14         20.8079         188.741 
        1.55241         158.289         20.6115          187.87 
        1.55855         157.489         20.4179         186.767 
        1.56467         156.382         20.2273         185.873 
         1.5708           155.1         20.0386         185.044 
        1.57695         154.525         19.8521         184.182 
        1.58308         153.398         19.6683         183.318 
        1.58922         152.525         19.4868         182.411 
        1.59535         151.413         19.3076         181.728 
         1.6015         150.711         19.1304         180.886 
        1.60764         149.653         18.9556         179.906 
        1.61376         148.643         18.7834         179.139 
        1.61989         148.043         18.6132         178.343 
        1.62604         147.015         18.4448         177.322 
        1.63218         146.323         18.2785         176.542 
        1.63831         145.367         18.1147         175.962 
        1.64444         144.193         17.9528         175.056 
        1.65059         143.613         17.7926         174.338 
        1.65673         142.724         17.6344         173.473 
        1.66285         142.107         17.4786         172.579 
        1.66898         141.113         17.3247          171.87 
        1.67512          140.12         17.1723         171.119 
        1.68127          139.54         17.0216         170.394 
         1.6874         138.521         16.8731         169.669 
        1.69353         138.035         16.7264         168.855 
        1.69967         136.956         16.5811         168.053 
        1.70581         136.434         16.4377         167.396 
        1.71193         135.412         16.2964         166.674 
        1.71806         134.229         16.1565         165.627 
        1.72421         133.738          16.018         164.972 
        1.73035         132.957         15.8813         164.358 
        1.73649         131.957         15.7462         163.539 
        1.74262         131.467         15.6128         162.843 
        1.74876         130.684         15.4808         162.161 
        1.75489           130.2         15.3506         161.449 
        1.76101         128.938          15.222         160.769 
        1.76715         128.198         15.0947         160.155 
        1.77329         127.384         14.9687         159.358 
        1.77943         126.588          14.844         158.513 
        1.78557         125.951          14.721         157.852 
        1.79171         125.223         14.5994         157.216 
        1.79785         124.345         14.4791         156.517 
        1.80399         123.786         14.3601         155.798 
        1.81012         123.067         14.2427          155.24 
        1.81625         122.307         14.1267         154.585 
        1.82239         121.712         14.0117         153.768 
        1.82853         120.728         13.8981         153.043 
        1.83466         119.809         13.7859           152.3 
        1.84078         119.504          13.675         151.645 
        1.84692         119.016         13.5652         151.258 
        1.85306         118.061         13.4564         150.456 
         1.8592         117.506          13.349         149.583 
        1.86533         116.565         13.2429         149.277 
        1.87147         116.019         13.1377         148.861 
