# k  (h/Mpc)    Pcb(k)  (Mpc/h)^3    Pcb_linear(k) (Mpc/h)^3    Pcb_NL(k) (Mpc/h)^3   ShotnoiseSubtracted = false
     0.00783031          1210.4         1218.65         1213.27 
       0.013688         1509.73         1526.29         1519.49 
       0.019231         1559.09         1566.52         1558.73 
      0.0249154          1466.6         1466.02         1460.87 
      0.0312784         1278.98         1280.47         1278.77 
      0.0375637         1088.56         1091.43         1090.67 
      0.0433917         946.412         944.508         944.449 
      0.0492413         833.615         834.163         834.332 
      0.0555754         754.671         752.108         751.838 
      0.0619321         690.972         696.133         695.602 
       0.067871         653.426         654.521          653.59 
      0.0738098         612.664         613.048         611.456 
      0.0800417         564.595         563.826         562.484 
      0.0862327         508.469         508.927         508.445 
      0.0921407         454.389         454.785         454.767 
      0.0982031          404.52         402.781         403.702 
       0.104506         356.723         357.233         358.817 
       0.110769         322.983         322.829         324.007 
       0.116806         301.794         299.483         300.435 
       0.122832         284.042         283.537         284.478 
       0.129052         272.718         271.461         272.162 
       0.135211         262.512         260.507         261.158 
       0.141259          248.93         248.272         249.122 
       0.147318         232.868         233.499         234.891 
       0.153489         216.602         216.256         217.346 
       0.159709         199.612         198.105         199.721 
       0.165845         181.085         181.206         183.616 
       0.171974         169.369         166.732         169.032 
       0.178125         157.901           155.3         158.005 
       0.184229         148.528         146.941          149.55 
        0.19034         143.551         140.884         143.289 
       0.196428         138.497         136.161         138.109 
       0.202534         132.312         131.724         133.716 
       0.208729         128.508         126.726         128.682 
       0.214876         123.374         120.898         123.406 
       0.220989         115.228          114.32         117.044 
       0.227147         109.983         107.332         110.106 
        0.23329         103.585         100.559         103.728 
       0.239377          98.044         94.5282         97.8458 
       0.245482          92.625         89.4445         92.4616 
       0.251667         88.0295         85.3316           88.54 
       0.257832          85.729         82.1038         85.1753 
       0.263955         82.1275         79.4556         82.3563 
       0.270079         79.5233         77.0278         79.8388 
        0.27624         76.4869         74.5215         77.2032 
       0.282372          73.898         71.7978         74.6597 
        0.28843         71.9501         68.8643         71.8005 
       0.294538         68.5941         65.7547         68.8017 
       0.300721         65.0748         62.6247         65.8543 
        0.30691         62.8769         59.6775         62.9621 
       0.313033         60.0455          57.075           60.26 
       0.319153          58.498         54.8294         58.0947 
       0.325316         55.7572         52.9068         56.2225 
        0.33145         53.9761         51.2454         54.3786 
       0.337538         52.5213         49.7436         52.7762 
       0.343633         51.1177         48.2811         51.3196 
       0.349808         49.4484         46.7736         49.9057 
       0.355968          47.783         45.2088         48.5819 
       0.362074         46.5992         43.6146         46.8847 
       0.368217         44.9846         42.0073         45.0915 
       0.374374          43.769         40.4477         43.6752 
       0.380519         41.8318         38.9926         42.1366 
       0.386598         40.4533         37.6767         40.8565 
       0.392688         39.1557         36.4909         39.6731 
        0.39888         38.3055         35.4008         38.5181 
       0.405048         37.3486         34.3992         37.4122 
       0.411186         36.2919         33.4534         36.6482 
       0.417313         35.2826         32.5277         35.5886 
       0.423458         34.2085         31.5995         34.7086 
       0.429607          33.545         30.6698         33.7123 
       0.435692         32.7947         29.7532         32.8556 
       0.441815         31.5507         28.8494          32.068 
       0.447964          30.489         27.9786         31.0947 
       0.454126         29.9033         27.1535         30.2166 
       0.460267         29.4344         26.3838         29.5201 
       0.466387         28.5435         25.6699         28.6954 
        0.47254         28.0194         24.9968         28.0532 
       0.478662         27.1715         24.3595         27.3676 
       0.484765         26.5484         23.7467         26.7122 
       0.490885         25.7844         23.1475         26.2425 
       0.497035         25.2158         22.5547         25.6789 
       0.503198          24.674         21.9686         24.9412 
       0.509342         23.9489         21.3968         24.4169 
       0.515458         23.5655         20.8446         23.9644 
       0.521598         22.9928         20.3105         23.2531 
       0.527764         22.6192         19.7968         22.6774 
       0.533884         21.9542         19.3111         22.1895 
           0.54         21.5189         18.8497         21.7062 
       0.546137          20.868         18.4068         21.3155 
       0.552299         20.4923         17.9781          20.761 
       0.558452         20.0336         17.5627         20.3423 
       0.564573         19.7353         17.1602          20.044 
       0.570708         19.2536         16.7668         19.6166 
       0.576825         18.9182          16.384         19.2022 
       0.582926         18.5127         16.0114         18.8448 
       0.589034         18.1427         15.6487         18.5211 
       0.595184         17.8741         15.2953         18.0184 
       0.601379         17.3748         14.9523         17.7823 
       0.607522         17.0603         14.6252         17.3852 
       0.613639         16.7005         14.3111         17.0437 
       0.619772         16.4256         14.0065         16.7741 
       0.625918         16.0644         13.7103         16.4436 
       0.632068         15.8755          13.422         16.1057 
       0.638161          15.525         13.1441         15.8138 
         0.6443         15.2336         12.8716          15.502 
       0.650464          14.858         12.6054         15.2931 
       0.656582         14.7246         12.3481         15.0069 
       0.662703         14.4982         12.0977         14.7174 
       0.668861         14.0996         11.8527         14.5128 
       0.675024         13.8707         11.6144         14.2015 
       0.681124         13.8055         11.3854         13.9577 
       0.687237         13.4908         11.1627         13.6795 
       0.693381         13.1499         10.9455         13.4431 
       0.699536         13.0568          10.734         13.2381 
       0.705665         12.7961         10.5293         13.0877 
       0.711789         12.5329           10.33         12.8277 
       0.717957         12.2635         10.1344         12.5984 
        0.72409         12.1446          9.9447         12.4247 
       0.730186         12.0409         9.76073         12.1965 
       0.736317         11.7578         9.58027         11.9948 
       0.742472         11.6044         9.40365         11.8734 
       0.748622         11.4086         9.23168         11.6596 
        0.75476         11.1095         9.06449         11.4559 
       0.760888         11.0278         8.90186         11.2987 
       0.767043         10.7943         8.74277         11.1472 
       0.773185         10.6533         8.58804          10.981 
       0.779291         10.5776         8.43805         10.8256 
       0.785407         10.3604          8.2915          10.645 
       0.791564         10.2282         8.14755         10.4966 
       0.797719         10.0175         8.00709         10.3166 
       0.803834           9.936         7.87083         10.1645 
       0.809972         9.73889         7.73721         10.0704 
       0.816124          9.6109         7.60639         9.88809 
       0.822261         9.48341         7.47893         9.74323 
       0.828378         9.34377         7.35477         9.61299 
       0.834502         9.22243         7.23333         9.48559 
       0.840667         9.12115         7.11386         9.34346 
       0.846816         8.92479         6.99745         9.23247 
       0.852925         8.83741          6.8844         9.12975 
       0.859047         8.71218         6.77364         8.99761 
       0.865192         8.58105         6.66498         8.86882 
       0.871341         8.45397         6.55866         8.76824 
       0.877463         8.34258         6.45516         8.63256 
       0.883569         8.25728         6.35418          8.5302 
       0.889708         8.12167         6.25487         8.41974 
       0.895864         8.01436         6.15743         8.29796 
       0.902008         7.89477         6.06229         8.20785 
       0.908149         7.78368         5.96923         8.09462 
       0.914301         7.71471         5.87798         8.01756 
       0.920448          7.6021         5.78874         7.88113 
       0.926574         7.54529         5.70167         7.80206 
       0.932687         7.41308         5.61658         7.65727 
       0.938823         7.29468         5.53294         7.60328 
       0.944975         7.23994         5.45081         7.50209 
       0.951105         7.11598         5.37066         7.39288 
       0.957225         7.06614         5.29227         7.34061 
       0.963368          6.9672         5.21518         7.23429 
       0.969511         6.88053         5.13964         7.15894 
       0.975621         6.78962         5.06601         7.05003 
       0.981748          6.6767         4.99364         6.97244 
       0.987916         6.61716         4.92224         6.90281 
        0.99406         6.55983         4.85252         6.82701 
        1.00019         6.48621         4.78429         6.76228 
        1.00632         6.41657         4.71744         6.67362 
        1.01246         6.32657         4.65178         6.61552 
        1.01859         6.24583         4.58749         6.52047 
        1.02471         6.15112         4.52449         6.42455 
        1.03085         6.11898         4.46247         6.36467 
        1.03698         6.04421         4.40175         6.30713 
        1.04314           5.973         4.34191         6.22952 
        1.04929          5.8802         4.28333         6.16672 
        1.05541          5.8266         4.22607          6.1079 
        1.06154         5.77055         4.16972         6.03895 
        1.06769         5.73369         4.11432         5.98188 
        1.07382         5.62834         4.06011         5.91507 
        1.07993         5.56438           4.007         5.84701 
        1.08607          5.5281         3.95463         5.78487 
        1.09222         5.44588         3.90315         5.72018 
        1.09836         5.43202         3.85264         5.65156 
        1.10449         5.31263          3.8031         5.60082 
        1.11063         5.28883         3.75437         5.54232 
        1.11677         5.23409         3.70652         5.48987 
         1.1229         5.17889          3.6596         5.44074 
        1.12903         5.13455         3.61344         5.39535 
        1.13518         5.05327         3.56805         5.33699 
        1.14131          5.0016         3.52347         5.26958 
        1.14745         4.93841         3.47967         5.20895 
        1.15359          4.8945         3.43662         5.17297 
        1.15973         4.84144         3.39428         5.11847 
        1.16584         4.80088         3.35284         5.08055 
        1.17197          4.7447         3.31204         5.02357 
        1.17811         4.69419          3.2718         4.96977 
        1.18424         4.64924         3.23234           4.922 
        1.19038          4.6089         3.19342         4.87576 
        1.19652         4.57054         3.15516          4.8391 
        1.20267         4.52597         3.11754         4.77791 
        1.20881         4.47155         3.08053         4.74454 
        1.21495           4.432         3.04419         4.70339 
        1.22108         4.38924         3.00844         4.65933 
         1.2272         4.33392         2.97335         4.60376 
        1.23334         4.32157         2.93875         4.57116 
        1.23949         4.26102         2.90461         4.53949 
        1.24562         4.22568         2.87112          4.4936 
        1.25174          4.1959          2.8382         4.44486 
        1.25789         4.12799          2.8057         4.40413 
        1.26402         4.10213         2.77377         4.35844 
        1.27014         4.06738         2.74242          4.3303 
        1.27628         4.01928         2.71146         4.29626 
        1.28244         3.99454         2.68092         4.25457 
        1.28858         3.96536         2.65089         4.21575 
        1.29471         3.90635          2.6214         4.17971 
        1.30084          3.8709         2.59238         4.15198 
        1.30697          3.8498         2.56375          4.1083 
        1.31312         3.81128         2.53552         4.07445 
        1.31925         3.77442         2.50781         4.04914 
        1.32537         3.74649         2.48054         4.01435 
        1.33151         3.70579         2.45357         3.97862 
        1.33765         3.67525         2.42703         3.94106 
        1.34378         3.65593         2.40093         3.91429 
        1.34992         3.61709          2.3752         3.87922 
        1.35606         3.58819          2.3498         3.83767 
         1.3622         3.55547         2.32481         3.80903 
        1.36833         3.51714         2.30024          3.7933 
        1.37445         3.48191         2.27604         3.75779 
        1.38059         3.45367         2.25212         3.72293 
        1.38675         3.42568         2.22849         3.68924 
        1.39288         3.40655         2.20529         3.66894 
        1.39901         3.36249         2.18243         3.63961 
        1.40515         3.34006         2.15984         3.60791 
         1.4113         3.31492         2.13758          3.5813 
        1.41742         3.28312         2.11572         3.55476 
        1.42355         3.25464         2.09413         3.51816 
         1.4297         3.23385         2.07277         3.50089 
        1.43585         3.20796         2.05173         3.47887 
        1.44198         3.17641         2.03105         3.44124 
        1.44809         3.15806          2.0107         3.42264 
        1.45423         3.12844         1.99055         3.39074 
        1.46036         3.10699         1.97072         3.36603 
        1.46649         3.07171         1.95115         3.34551 
        1.47263         3.05995         1.93183         3.31974 
        1.47877          3.0345         1.91279         3.29068 
        1.48491         3.00584         1.89397         3.27032 
        1.49104          2.9823         1.87544         3.24131 
        1.49718         2.96272         1.85715         3.21993 
        1.50333          2.9355         1.83907         3.19943 
        1.50947         2.90728         1.82128         3.17444 
         1.5156          2.8915         1.80374         3.15295 
        1.52172         2.86971         1.78644         3.13421 
        1.52787         2.84791         1.76932         3.10132 
          1.534          2.8251         1.75246         3.08058 
        1.54013         2.80362         1.73583         3.06118 
        1.54627          2.7811         1.71939         3.03859 
        1.55241          2.7554         1.70315         3.01728 
        1.55855         2.74101         1.68716         2.99062 
        1.56467         2.72132         1.67141          2.9767 
         1.5708         2.69815         1.65582          2.9569 
        1.57695          2.6712          1.6404         2.93183 
        1.58308         2.65016         1.62522         2.91614 
        1.58922         2.64174         1.61022         2.89789 
        1.59535         2.61596         1.59541         2.87821 
         1.6015         2.59326         1.58077         2.85602 
        1.60764          2.5816         1.56632         2.83776 
        1.61376         2.55689         1.55209         2.82322 
        1.61989         2.53502         1.53803           2.802 
        1.62604         2.51729         1.52411         2.78161 
        1.63218         2.50595         1.51038         2.76539 
        1.63831         2.49162         1.49684         2.74807 
        1.64444         2.46839         1.48346         2.72619 
        1.65059         2.45573         1.47022          2.7096 
        1.65673         2.43081         1.45715         2.69203 
        1.66285         2.41444         1.44428         2.67323 
        1.66898          2.3978         1.43156         2.65589 
        1.67512         2.37834         1.41897         2.63964 
        1.68127          2.3617         1.40652         2.62672 
         1.6874         2.35309         1.39425         2.61258 
        1.69353         2.32589         1.38213         2.59154 
        1.69967         2.31322         1.37012         2.57133 
        1.70581         2.30165         1.35826         2.55854 
        1.71193         2.27685         1.34659         2.54725 
        1.71806         2.26579         1.33503         2.52655 
        1.72421         2.25264         1.32359         2.50885 
        1.73035         2.23322         1.31229         2.49441 
        1.73649          2.2211         1.30113          2.4796 
        1.74262         2.20633          1.2901         2.46432 
        1.74876          2.1915          1.2792         2.45219 
        1.75489         2.17533         1.26844         2.43684 
        1.76101         2.15823         1.25781         2.41627 
        1.76715         2.15063         1.24729         2.40121 
        1.77329         2.13109         1.23688         2.38946 
        1.77943         2.11766         1.22658         2.37611 
        1.78557         2.10445         1.21642          2.3605 
        1.79171         2.09279         1.20636         2.34574 
        1.79785          2.0791         1.19642         2.33223 
        1.80399         2.06356          1.1866         2.31886 
        1.81012         2.04982         1.17689         2.30581 
        1.81625         2.03293          1.1673         2.29176 
        1.82239         2.02445         1.15781         2.27877 
        1.82853         2.00983         1.14842         2.26986 
        1.83466         1.99147         1.13915          2.2588 
        1.84078         1.98102         1.12998         2.24333 
        1.84692         1.96885         1.12091         2.22669 
        1.85306         1.95751         1.11192         2.21188 
         1.8592         1.94464         1.10305         2.20067 
        1.86533         1.93276         1.09428         2.19123 
        1.87147          1.9221         1.08559         2.17971 
