# k  (h/Mpc)    P(k)  (Mpc/h)^3    P_linear(k)  (Mpc/h)^3     P_NL(k)  ShotnoiseSubtracted = false
     0.00783031         15916.2         15982.8         15903.8 
       0.013688         19436.2         19973.6         19834.2 
       0.019231         20150.2         20486.4         20299.8 
      0.0249154         19180.9         19165.7         18966.3 
      0.0312784         16525.5         16736.6         16531.1 
      0.0375637         13972.2         14264.1         14083.5 
      0.0433917         12240.3         12343.1         12153.4 
      0.0492413         10729.4         10900.5         10725.3 
      0.0555754         9746.83         9827.86         9672.82 
      0.0619321         8733.95         9096.16         8944.32 
       0.067871         8328.86         8552.25         8410.94 
      0.0738098          7870.6         8010.22         7790.56 
      0.0800417         7247.09         7366.97         7173.33 
      0.0862327         6517.65         6649.58         6554.81 
      0.0921407         5879.19         5942.11         5878.51 
      0.0982031         5316.96          5262.6         5308.83 
       0.104506         4684.19         4667.46         4800.29 
       0.110769         4289.78         4217.92         4314.41 
       0.116806         4067.53         3912.88         4000.44 
       0.122832         3824.73         3704.52         3797.93 
       0.129052         3632.32         3546.73         3627.56 
       0.135211         3553.54          3403.6         3473.09 
       0.141259         3319.63         3243.74         3347.56 
       0.147318         3098.94         3050.73         3196.67 
       0.153489         2916.79         2825.44         2943.72 
       0.159709         2784.95         2588.28         2767.04 
       0.165845         2530.03         2367.49         2626.25 
       0.171974         2442.03         2178.37         2447.35 
       0.178125         2345.01         2029.02         2343.89 
       0.184229         2157.14         1919.81         2211.73 
        0.19034         2128.15         1840.66         2121.24 
       0.196428         2071.78         1778.96          2038.6 
       0.202534         1954.96         1720.98         1985.78 
       0.208729         1922.25         1655.69         1898.96 
       0.214876          1839.8         1579.53         1864.18 
       0.220989         1748.46          1493.6         1807.87 
       0.227147         1697.12          1402.3         1742.47 
        0.23329         1626.84          1313.8         1681.86 
       0.239377         1612.66         1235.01         1604.98 
       0.245482         1533.85         1168.59         1526.01 
       0.251667         1477.11         1114.85         1483.35 
       0.257832         1452.67         1072.68         1430.96 
       0.263955         1388.68         1038.09            1391 
       0.270079          1353.9         1006.37         1356.92 
        0.27624         1298.54         973.624         1321.34 
       0.282372         1283.67         938.036         1300.61 
        0.28843         1261.07         899.713         1274.34 
       0.294538         1203.52         859.082         1237.86 
       0.300721         1180.46         818.188         1199.03 
        0.30691         1151.13         779.684         1178.11 
       0.313033         1106.33         745.684         1136.59 
       0.319153         1093.99          716.34          1101.9 
       0.325316         1080.25         691.224          1081.6 
        0.33145         1056.31          669.52         1043.92 
       0.337538         1021.94         649.896          1027.9 
       0.343633         998.789         630.788         1018.32 
       0.349808         980.681         611.099         1003.66 
       0.355968         960.977         590.648         987.082 
       0.362074         931.318         569.822         968.836 
       0.368217         928.694         548.822         944.124 
       0.374374         914.259         528.444         924.791 
       0.380519         882.084         509.436         904.296 
       0.386598         877.241         492.243          892.03 
       0.392688         854.522         476.751         870.171 
        0.39888         837.523         462.508         856.174 
       0.405048         820.485         449.423         842.338 
       0.411186          818.58         437.066          827.29 
       0.417313         813.378         424.971         817.068 
       0.423458         789.541         412.845         803.832 
       0.429607         768.295         400.701         790.734 
       0.435692         761.135         388.722         773.931 
       0.441815         746.652         376.914          770.31 
       0.447964         737.271         365.537         759.431 
       0.454126         727.996         354.759         737.534 
       0.460267         718.583         344.699         735.465 
       0.466387         705.939         335.375          722.18 
        0.47254         695.288          326.58         711.962 
       0.478662         684.964         318.254         701.251 
       0.484765         677.398         310.248          693.24 
       0.490885         670.385          302.42         681.006 
       0.497035          657.13         294.674         674.913 
       0.503198         656.284         287.017         667.254 
       0.509342         644.075         279.547         655.966 
       0.515458         631.382         272.332         651.334 
       0.521598         629.431         265.354         644.261 
       0.527764         615.007         258.643         637.664 
       0.533884         608.851         252.297         629.707 
           0.54         604.117         246.269         621.542 
       0.546137         595.322         240.482         614.346 
       0.552299          592.01         234.882         605.831 
       0.558452          584.07         229.455         601.072 
       0.564573         580.214         224.196         596.055 
       0.570708         573.666         219.057         589.101 
       0.576825         562.425         214.055         580.607 
       0.582926         560.903         209.187         576.402 
       0.589034         552.663         204.448         567.731 
       0.595184         547.242         199.831         561.943 
       0.601379         539.053          195.35         556.728 
       0.607522          530.48         191.077         548.657 
       0.613639          529.81         186.973         547.387 
       0.619772         525.969         182.993         545.574 
       0.625918         516.953         179.123         537.406 
       0.632068          514.75         175.357         534.194 
       0.638161         508.413         171.727         526.413 
         0.6443         502.582         168.166         522.379 
       0.650464         498.328         164.688           514.5 
       0.656582         494.326         161.327         511.791 
       0.662703         489.235         158.055         508.177 
       0.668861         482.801         154.854         505.671 
       0.675024         480.818          151.74         501.938 
       0.681124         471.436         148.749         493.951 
       0.687237         471.356          145.84         489.538 
       0.693381         463.901         143.002         485.171 
       0.699536          464.07         140.239         481.956 
       0.705665         457.103         137.564         476.059 
       0.711789         455.993         134.961         472.869 
       0.717957          449.84         132.405         472.034 
        0.72409         445.727         129.926         466.709 
       0.730186         445.651         127.523         462.054 
       0.736317         438.512         125.165         458.692 
       0.742472         434.565         122.858          455.16 
       0.748622         432.796         120.611          450.89 
        0.75476         427.827         118.426          451.58 
       0.760888         425.493         116.302         445.583 
       0.767043         422.283         114.223         440.598 
       0.773185         418.823         112.202         438.041 
       0.779291          414.56         110.242         434.224 
       0.785407         411.565         108.327         431.694 
       0.791564          409.39         106.447          429.67 
       0.797719         402.946         104.612         425.423 
       0.803834         404.234         102.831          423.23 
       0.809972         397.628         101.086         420.502 
       0.816124         394.582         99.3765          415.23 
       0.822261         391.952         97.7112         413.482 
       0.828378         390.223         96.0891         410.332 
       0.834502         383.802         94.5026         408.872 
       0.840667         383.613         92.9417          405.27 
       0.846816         378.881         91.4208         402.372 
       0.852925         379.041         89.9438         400.075 
       0.859047         374.957         88.4967         396.396 
       0.865192         372.938         87.0771         393.456 
       0.871341         368.167          85.688         391.464 
       0.877463         367.193         84.3359         389.154 
       0.883569         363.873         83.0166         387.513 
       0.889708         360.135          81.719         383.489 
       0.895864         356.309          80.446         381.526 
       0.902008         355.337         79.2031          378.79 
       0.908149         351.892         77.9872         375.544 
       0.914301         350.553         76.7951         372.579 
       0.920448         346.733         75.6291         371.448 
       0.926574         344.925         74.4915         368.668 
       0.932687         343.833         73.3799         365.959 
       0.938823           339.9         72.2871         365.273 
       0.944975         339.033         71.2141         362.158 
       0.951105         335.741         70.1669         359.474 
       0.957225         331.792         69.1427         357.697 
       0.963368         332.211         68.1356          355.54 
       0.969511         326.845         67.1487         353.408 
       0.975621         325.266         66.1867         350.989 
       0.981748         324.162         65.2413         349.074 
       0.987916         321.919         64.3084         347.471 
        0.99406         318.567         63.3975         345.081 
        1.00019          315.72         62.5061         342.007 
        1.00632         315.344         61.6327          339.95 
        1.01246         312.454         60.7749         337.612 
        1.01859         309.498         59.9349          335.63 
        1.02471         307.647         59.1119         334.205 
        1.03085         306.536         58.3016         332.968 
        1.03698         304.654         57.5083         331.584 
        1.04314          302.73         56.7265         329.105 
        1.04929         301.257         55.9611         326.304 
        1.05541         298.015          55.213         324.416 
        1.06154         295.953         54.4768         322.889 
        1.06769         293.635          53.753         320.707 
        1.07382         291.357         53.0447             319 
        1.07993         290.478         52.3509         317.418 
        1.08607         288.937         51.6667         315.037 
        1.09222         286.078         50.9941         313.423 
        1.09836         284.812         50.3343          312.29 
        1.10449         282.904         49.6869         310.579 
        1.11063         281.219         49.0504         308.053 
        1.11677         278.153         48.4252         306.561 
         1.1229         277.735         47.8121         304.808 
        1.12903         275.034         47.2091         303.303 
        1.13518         273.276         46.6161          301.26 
        1.14131         272.053         46.0336         299.733 
        1.14745         269.237         45.4614         297.635 
        1.15359         267.243         44.8989          296.86 
        1.15973         266.028         44.3457         294.969 
        1.16584         264.351         43.8044         293.756 
        1.17197         262.865         43.2713         292.339 
        1.17811         260.085         42.7455         290.272 
        1.18424         259.028         42.2301         288.856 
        1.19038         257.841         41.7216         287.931 
        1.19652         255.002         41.2218          285.67 
        1.20267         254.308         40.7302         284.313 
        1.20881         252.415         40.2467         282.828 
        1.21495         251.108         39.7719         281.094 
        1.22108         249.457         39.3048          279.36 
         1.2272         246.607         38.8464         278.089 
        1.23334         245.704         38.3943         276.574 
        1.23949         244.212         37.9483         275.261 
        1.24562         242.909         37.5107         273.566 
        1.25174          241.58         37.0807         272.259 
        1.25789         239.172         36.6561         270.704 
        1.26402         238.556         36.2389         269.964 
        1.27014         237.211         35.8293         267.953 
        1.27628         235.485         35.4248          267.41 
        1.28244          233.29         35.0258         266.157 
        1.28858          232.42         34.6335         264.478 
        1.29471         230.897         34.2481         262.511 
        1.30084         230.336          33.869         261.172 
        1.30697         227.735          33.495         260.223 
        1.31312          226.48         33.1262         258.762 
        1.31925         225.182         32.7641         257.487 
        1.32537         224.311         32.4078         255.853 
        1.33151         222.238         32.0556         254.771 
        1.33765         220.603         31.7088         253.755 
        1.34378         219.986         31.3678         252.271 
        1.34992         217.634         31.0317         250.802 
        1.35606         216.789         30.6997         249.315 
         1.3622         215.041         30.3732         248.582 
        1.36833         214.577         30.0523         247.602 
        1.37445         213.719         29.7362          245.52 
        1.38059          210.98         29.4236         244.844 
        1.38675          209.65         29.1148         243.982 
        1.39288         208.935         28.8117           242.1 
        1.39901         206.974         28.5131         240.846 
        1.40515          206.21          28.218         239.545 
         1.4113         204.773         27.9272         238.298 
        1.41742         203.198         27.6416         237.389 
        1.42355         202.558         27.3595         235.986 
         1.4297         201.134         27.0805          234.71 
        1.43585         200.093         26.8055         234.283 
        1.44198         198.493         26.5354         232.856 
        1.44809         197.547         26.2695         231.799 
        1.45423         196.365         26.0063         230.052 
        1.46036         195.399         25.7472         229.207 
        1.46649         193.933         25.4915         228.398 
        1.47263         192.827         25.2391         226.962 
        1.47877         191.597         24.9903         225.608 
        1.48491         190.142         24.7444         224.353 
        1.49104         188.361         24.5024         223.618 
        1.49718         187.962         24.2634         223.024 
        1.50333         186.229         24.0272         221.681 
        1.50947          185.33         23.7947         220.579 
         1.5156         184.276         23.5656          219.57 
        1.52172         183.189         23.3395         218.213 
        1.52787         182.099         23.1159         217.425 
          1.534         181.483         22.8956         216.383 
        1.54013         179.798         22.6783         215.359 
        1.54627         179.123         22.4635         214.549 
        1.55241         178.061         22.2514         213.566 
        1.55855         176.884         22.0424         212.437 
        1.56467         175.851         21.8367         211.217 
         1.5708         174.375          21.633         210.188 
        1.57695         173.739         21.4316         209.249 
        1.58308         172.624         21.2332         208.159 
        1.58922         171.368         21.0372         207.167 
        1.59535         170.153         20.8438         206.462 
         1.6015         169.455         20.6525         205.633 
        1.60764         168.091         20.4637         204.495 
        1.61376         167.011         20.2779         203.419 
        1.61989         166.096         20.0941         202.498 
        1.62604         165.314         19.9123         201.399 
        1.63218         164.209         19.7328         200.494 
        1.63831         163.446          19.556         199.784 
        1.64444         161.965         19.3812         198.786 
        1.65059         161.219         19.2082         197.921 
        1.65673         160.236         19.0375         197.013 
        1.66285         159.325         18.8693         196.006 
        1.66898         158.465         18.7031         195.037 
        1.67512         157.295         18.5386          194.25 
        1.68127         156.511          18.376         193.374 
         1.6874         155.483         18.2156         192.466 
        1.69353         154.857         18.0572         191.694 
        1.69967          153.61         17.9004         190.781 
        1.70581         153.042         17.7455         189.973 
        1.71193         151.868          17.593         189.154 
        1.71806         150.798          17.442         188.006 
        1.72421         149.963         17.2925         187.216 
        1.73035         149.052         17.1449         186.446 
        1.73649         147.945          16.999         185.495 
        1.74262         147.259          16.855         184.731 
        1.74876         146.552         16.7125          183.91 
        1.75489         145.987          16.572         183.109 
        1.76101         144.679         16.4331         182.435 
        1.76715         143.796         16.2957         181.704 
        1.77329         142.765         16.1596         180.871 
        1.77943         141.914         16.0251          179.97 
        1.78557         140.998         15.8923         179.077 
        1.79171         140.386         15.7609         178.328 
        1.79785          139.34         15.6311         177.556 
        1.80399         138.686         15.5027         176.661 
        1.81012         138.192         15.3759         176.139 
        1.81625         136.822         15.2506         175.422 
        1.82239         136.476         15.1266         174.374 
        1.82853         135.322         15.0039         173.619 
        1.83466         134.198         14.8828         172.808 
        1.84078         133.796         14.7631             172 
        1.84692          133.15         14.6445         171.558 
        1.85306         132.154         14.5271         170.669 
         1.8592         131.534         14.4111         169.669 
        1.86533         130.347         14.2965         169.279 
        1.87147         129.607          14.183         168.734 
        1.87761          129.01         14.0707         167.872 
