# k  (h/Mpc)    P(k)  (Mpc/h)^3    P_linear(k)  (Mpc/h)^3     P_NL(k)  ShotnoiseSubtracted = false
     0.00783031         8774.71         8818.38         8778.26 
       0.013688         10800.9           11031         10967.9 
       0.019231         11185.8         11317.3           11237 
      0.0249154         10607.1         10589.1         10514.3 
      0.0312784         9182.24         9247.74            9183 
      0.0375637         7781.25          7881.9         7827.02 
      0.0433917          6802.1          6820.6         6765.25 
      0.0492413         5970.58         6023.57         5973.51 
      0.0555754         5424.05         5430.92         5385.24 
      0.0619321          4893.3         5026.63         4980.92 
       0.067871         4659.65          4726.1         4682.46 
      0.0738098         4388.01          4426.6         4357.77 
      0.0800417          4046.5         4071.15         4010.55 
      0.0862327          3637.8         3674.72         3647.02 
      0.0921407         3266.57         3283.76         3266.36 
      0.0982031         2936.72         2908.26         2928.15 
       0.104506         2582.75         2579.38         2627.98 
       0.110769         2354.11         2330.95         2364.57 
       0.116806         2225.69         2162.38         2192.75 
       0.122832         2086.54         2047.24         2080.22 
       0.129052         1995.67         1960.04         1987.64 
       0.135211          1941.1         1880.94         1906.35 
       0.141259         1823.03          1792.6         1828.58 
       0.147318         1696.75         1685.94         1739.78 
       0.153489         1590.83         1561.44         1602.52 
       0.159709         1499.53         1430.38         1492.68 
       0.165845         1355.11         1308.36         1401.27 
       0.171974         1301.54         1203.85            1297 
       0.178125         1234.12         1121.31         1232.17 
       0.184229         1142.51         1060.96         1165.08 
        0.19034         1118.68         1017.22         1115.97 
       0.196428         1086.12         983.118         1069.68 
       0.202534         1021.81          951.08          1039.9 
       0.208729         1006.33         914.997         996.994 
       0.214876         966.097          872.91         974.016 
       0.220989           904.3          825.42         936.354 
       0.227147         878.209         774.962         892.308 
        0.23329         838.917         726.058         856.524 
       0.239377         819.159         682.515          815.02 
       0.245482          774.17         645.808          770.93 
       0.251667         742.509          616.11         747.356 
       0.257832         732.821         592.807         719.228 
       0.263955          695.38         573.687          696.46 
       0.270079         673.409          556.16         677.856 
        0.27624         646.209         538.062           657.4 
       0.282372         633.044         518.395         641.234 
        0.28843         627.166         497.217         622.434 
       0.294538         594.444         474.762         604.436 
       0.300721         575.467         452.163         585.699 
        0.30691         564.537         430.884         569.555 
       0.313033         538.584         412.094          547.41 
       0.319153         529.113         395.878          530.77 
       0.325316         518.914         381.997         518.459 
        0.33145         506.863         370.003         499.765 
       0.337538         488.912         359.158         488.462 
       0.343633         474.586         348.599         483.154 
       0.349808         463.062         337.717         474.052 
       0.355968         453.852         326.416         465.063 
       0.362074         439.285         314.906         453.568 
       0.368217         435.707         303.301         439.083 
       0.374374         426.449         292.039         428.679 
       0.380519         409.171         281.535         417.321 
       0.386598         404.017         272.033         410.428 
       0.392688         394.216         263.472         398.761 
        0.39888         384.104         255.601         390.975 
       0.405048         376.832         248.369         385.769 
       0.411186         374.693          241.54         375.763 
       0.417313          368.54         234.856         367.555 
       0.423458         358.433         228.154         361.807 
       0.429607         349.041         221.443           354.8 
       0.435692          343.03         214.823         347.206 
       0.441815         337.185         208.298         343.672 
       0.447964         328.752          202.01         336.718 
       0.454126         324.326         196.054         327.327 
       0.460267         319.503         190.495         324.776 
       0.466387         313.487         185.342         318.132 
        0.47254         309.222         180.481         313.176 
       0.478662         301.244          175.88         307.219 
       0.484765         297.692         171.455          300.58 
       0.490885          294.07          167.13          296.84 
       0.497035         288.902         162.849         293.222 
       0.503198         287.129         158.617         288.667 
       0.509342         279.663         154.489         284.945 
       0.515458          275.76         150.502         281.992 
       0.521598         270.154         146.646         276.147 
       0.527764         266.879         142.936         272.211 
       0.533884         265.736         139.429          268.58 
           0.54         260.542         136.098         264.287 
       0.546137         254.756           132.9           261.3 
       0.552299         253.428         129.805         256.827 
       0.558452         249.014         126.806         253.642 
       0.564573         247.091           123.9         251.442 
       0.570708         242.255          121.06         248.563 
       0.576825          238.54         118.295         243.638 
       0.582926         236.308         115.605          240.87 
       0.589034         232.784         112.986         238.294 
       0.595184         230.994         110.434         233.965 
       0.601379         226.883         107.958         232.465 
       0.607522         222.429         105.597          229.16 
       0.613639         221.037         103.329         227.059 
       0.619772         219.353         101.129         224.703 
       0.625918         216.679         98.9907         221.803 
       0.632068         212.579         96.9095           218.4 
       0.638161         210.812         94.9031         217.266 
         0.6443         209.208         92.9356         214.678 
       0.650464         205.389         91.0133         210.719 
       0.656582         203.828         89.1558         209.088 
       0.662703         202.066         87.3474         207.277 
       0.668861         198.169         85.5783         205.002 
       0.675024         197.833         83.8579         202.569 
       0.681124         195.156         82.2048         200.291 
       0.687237         193.015         80.5969         198.111 
       0.693381         190.728         79.0285         195.899 
       0.699536          188.89         77.5018         194.186 
       0.705665         186.797         76.0233         192.971 
       0.711789         184.679         74.5848         190.527 
       0.717957         182.659         73.1725         188.757 
        0.72409         180.769         71.8025         187.615 
       0.730186         181.161         70.4742         185.837 
       0.736317         178.088         69.1713          183.47 
       0.742472         175.691         67.8961         181.784 
       0.748622         173.114         66.6544         179.767 
        0.75476         173.793         65.4472         178.566 
       0.760888          171.54         64.2731          176.18 
       0.767043         168.825         63.1244         175.181 
       0.773185         167.351         62.0072         174.032 
       0.779291         165.273         60.9242          172.07 
       0.785407         164.247         59.8661         170.268 
       0.791564          162.84         58.8268         169.154 
       0.797719         160.504         57.8127         168.201 
       0.803834         160.783         56.8288         166.362 
       0.809972         159.238          55.864          164.99 
       0.816124         156.799         54.9195         163.766 
       0.822261         155.472         53.9992         162.286 
       0.828378         155.255         53.1028         160.469 
       0.834502         152.914          52.226         159.463 
       0.840667         152.498         51.3634         158.501 
       0.846816         150.555         50.5228         157.111 
       0.852925         149.324         49.7066         155.846 
       0.859047         147.838         48.9069         154.668 
       0.865192         147.242         48.1224         153.458 
       0.871341          145.54         47.3547         152.026 
       0.877463          144.37         46.6074         151.195 
       0.883569         144.158         45.8783         150.296 
       0.889708         142.723         45.1612         148.982 
       0.895864         141.381         44.4578         148.206 
       0.902008         139.912         43.7708         146.644 
       0.908149         138.355         43.0989         145.407 
       0.914301         138.117         42.4401         144.616 
       0.920448         137.694         41.7957         143.579 
       0.926574         135.351          41.167         142.179 
       0.932687         135.104         40.5527         141.221 
       0.938823         134.068         39.9488         140.483 
       0.944975         132.811         39.3558         139.606 
       0.951105         131.618         38.7771         138.415 
       0.957225         131.226         38.2111         137.453 
       0.963368         129.876         37.6545         136.118 
       0.969511         128.722         37.1091         135.329 
       0.975621         127.569         36.5775         135.362 
       0.981748         126.722          36.055         134.089 
       0.987916         126.023         35.5395         133.257 
        0.99406         125.359          35.036         132.204 
        1.00019         124.252         34.5434         131.128 
        1.00632         123.388         34.0608          130.15 
        1.01246          122.49         33.5867         129.074 
        1.01859         121.761         33.1224         128.798 
        1.02471         120.884         32.6676         128.339 
        1.03085         119.866         32.2198         127.258 
        1.03698         118.943         31.7814         126.276 
        1.04314         118.374         31.3494         125.562 
        1.04929         117.796         30.9264         124.945 
        1.05541          116.93          30.513         124.267 
        1.06154         116.013         30.1061         123.562 
        1.06769          115.24         29.7061         122.844 
        1.07382         114.519         29.3147         122.087 
        1.07993         113.792         28.9312         121.265 
        1.08607         112.958         28.5531         120.654 
        1.09222         112.322         28.1814         119.993 
        1.09836         111.382         27.8168           119.1 
        1.10449         110.647          27.459         118.414 
        1.11063         109.934         27.1072         117.405 
        1.11677         109.254         26.7618          116.85 
         1.1229         108.397         26.4229         116.368 
        1.12903         107.895         26.0897         115.578 
        1.13518         107.091         25.7619         114.951 
        1.14131         106.469           25.44          114.12 
        1.14745         105.895         25.1238         113.631 
        1.15359         104.692          24.813         112.863 
        1.15973         104.426         24.5073         112.594 
        1.16584         103.753         24.2081         111.527 
        1.17197         103.194         23.9135         111.125 
        1.17811         102.276         23.6229         110.635 
        1.18424          101.73         23.3381         109.978 
        1.19038         101.389         23.0571         109.374 
        1.19652         100.598         22.7808          108.75 
        1.20267         99.9092         22.5091         108.157 
        1.20881         99.2438          22.242         107.635 
        1.21495          98.735         21.9796         106.821 
        1.22108         98.2371         21.7215         106.595 
         1.2272         97.3838         21.4681         105.802 
        1.23334         97.1585         21.2183         105.494 
        1.23949         96.5334         20.9718         104.613 
        1.24562         95.6884         20.7299         104.042 
        1.25174          95.163         20.4923         103.601 
        1.25789         94.7417         20.2577         103.083 
        1.26402         94.2727         20.0271         102.567 
        1.27014         93.6536         19.8007         102.436 
        1.27628         92.7935         19.5772         101.957 
        1.28244         92.7015         19.3567         100.919 
        1.28858         91.7982         19.1399         100.386 
        1.29471         91.2927         18.9269         100.073 
        1.30084         90.6431         18.7174          99.401 
        1.30697         90.4721         18.5107         99.0413 
        1.31312         89.7682         18.3069         98.5048 
        1.31925         89.1819         18.1068         97.9696 
        1.32537         88.7763         17.9099          97.599 
        1.33151         88.5264         17.7152         97.0147 
        1.33765         87.7396         17.5236         96.6148 
        1.34378         87.4208         17.3351         96.1246 
        1.34992         87.0545         17.1494         95.6227 
        1.35606         86.3727         16.9659         95.0969 
         1.3622         86.1844         16.7855          94.692 
        1.36833          85.316         16.6081         94.1396 
        1.37445         84.9146         16.4334         93.6701 
        1.38059         84.5488         16.2607         93.3122 
        1.38675         83.7458         16.0901         92.6804 
        1.39288         83.5316         15.9225         92.3593 
        1.39901         82.8286         15.7575         91.9958 
        1.40515         82.5072         15.5944          91.657 
         1.4113         82.1537         15.4337         91.2669 
        1.41742         81.5278         15.2759         90.7158 
        1.42355         81.2983           15.12         90.2056 
         1.4297         80.7234         14.9658         89.8291 
        1.43585         80.2271         14.8138         89.3416 
        1.44198         79.7833         14.6645         89.0249 
        1.44809         79.1636         14.5176         88.5322 
        1.45423         79.0286         14.3721         88.0841 
        1.46036          78.396         14.2289         87.7409 
        1.46649         77.9002         14.0876         87.4599 
        1.47263          77.639         13.9482         87.0596 
        1.47877         77.1988         13.8106         86.3961 
        1.48491         76.7167         13.6748         86.2125 
        1.49104           76.08          13.541         85.8742 
        1.49718         75.9076         13.4089         85.3129 
        1.50333          75.518         13.2784         84.9133 
        1.50947         75.2227         13.1499         84.5442 
         1.5156         74.9057         13.0233         84.1908 
        1.52172         74.2264         12.8984         83.8857 
        1.52787          73.822         12.7748         83.4397 
          1.534         73.4486          12.653         83.1089 
        1.54013          73.237          12.533         82.6958 
        1.54627         72.5527         12.4143          82.324 
        1.55241         72.3342         12.2971         82.0327 
        1.55855         71.8358         12.1815         81.5568 
        1.56467         71.2181         12.0678         81.2311 
         1.5708         71.0451         11.9553         80.9314 
        1.57695         70.6841          11.844         80.5809 
        1.58308         70.3427         11.7343         80.2438 
        1.58922         70.0509          11.626         79.8368 
        1.59535         69.8075         11.5191         79.4842 
         1.6015         69.4183         11.4134         79.0928 
        1.60764         68.9687         11.3091         78.8299 
        1.61376         68.5602         11.2064         78.6847 
        1.61989         68.0611         11.1048         78.2601 
        1.62604         67.8545         11.0044         77.7547 
        1.63218         67.5692         10.9052          77.417 
        1.63831         67.1969         10.8074         77.2467 
        1.64444         66.9208         10.7109         76.8929 
        1.65059         66.4445         10.6152         76.3655 
        1.65673         66.0305         10.5209         76.1324 
        1.66285         65.6108          10.428         75.9443 
        1.66898         65.2273         10.3361         75.5137 
        1.67512         65.0065         10.2452         75.2455 
        1.68127         64.7574         10.1553         74.8735 
         1.6874         64.3231         10.0667         74.4811 
        1.69353         63.9581         9.97918         74.3036 
        1.69967         63.7378          9.8925         74.0146 
        1.70581         63.3543         9.80689          73.629 
        1.71193         62.9796         9.72263         73.3177 
        1.71806         62.6309         9.63917         73.1661 
        1.72421          62.417         9.55653         72.8308 
        1.73035         62.1441         9.47496         72.4295 
        1.73649         61.6943         9.39435         72.1297 
        1.74262         61.2313         9.31475         71.9051 
        1.74876         61.1457         9.23602         71.5923 
        1.75489         60.6921         9.15837         71.2542 
        1.76101         60.3632         9.08163         70.9549 
        1.76715         60.2012         9.00567         70.6173 
        1.77329         59.7262         8.93048         70.3781 
        1.77943         59.5827         8.85613         70.1249 
        1.78557         59.2608         8.78273         69.7368 
        1.79171         58.9422         8.71015         69.4516 
        1.79785         58.6092         8.63837         69.2426 
        1.80399         58.3113         8.56743         68.9693 
        1.81012         58.0179         8.49737         68.6844 
        1.81625         57.7619         8.42813         68.3807 
        1.82239         57.4572         8.35956         68.1109 
        1.82853           57.06         8.29178         67.9396 
        1.83466         56.8414         8.22482         67.6342 
        1.84078         56.5571         8.15867         67.2786 
        1.84692         56.3806         8.09315         67.1581 
        1.85306         56.0299         8.02826         66.8936 
         1.8592           55.75         7.96418         66.5177 
        1.86533           55.43         7.90085         66.2812 
        1.87147         55.1551         7.83813         65.9381 
        1.87761         54.8556         7.77606         65.6319 
