# k  (h/Mpc)    P(k)  (Mpc/h)^3    P_linear(k)  (Mpc/h)^3     P_NL(k)  ShotnoiseSubtracted = false
     0.00783031         414.218         417.261          415.37 
       0.013688         518.254         522.767         520.492 
       0.019231          534.75         536.606         534.063 
      0.0249154         501.941         502.206         500.613 
      0.0312784         438.398         438.658         438.302 
      0.0375637         373.532         373.905         373.887 
      0.0433917         324.232         323.576         323.811 
      0.0492413          285.88         285.776         286.056 
      0.0555754         258.415         257.666         257.761 
      0.0619321         237.538         238.491          238.47 
       0.067871         224.076         224.236         224.058 
      0.0738098         209.946         210.028         209.724 
      0.0800417         193.325         193.165         192.912 
      0.0862327         174.264         174.357         174.258 
      0.0921407         155.697         155.808         155.829 
      0.0982031         138.325         137.992         138.169 
       0.104506         122.232         122.388         122.658 
       0.110769         110.558         110.601         110.816 
       0.116806         102.959         102.603         102.747 
       0.122832         97.1138         97.1395         97.2557 
       0.129052         93.1508         93.0024         93.0584 
       0.135211         89.5045         89.2495         89.2817 
       0.141259         85.0429         85.0578          85.113 
       0.147318         79.7344         79.9969         80.1303 
       0.153489         74.0297         74.0895         74.2069 
       0.159709         67.9897         67.8709         68.0683 
       0.165845          61.875         62.0814         62.3834 
       0.171974         57.4411         57.1223         57.4109 
       0.178125         53.4838          53.206         53.5377 
       0.184229         50.4443         50.3422         50.6553 
        0.19034         48.5993         48.2668         48.5459 
       0.196428         46.8748         46.6489         46.8626 
       0.202534         45.0201         45.1287         45.3436 
       0.208729         43.5359         43.4166         43.6294 
       0.214876          41.698         41.4196         41.7035 
       0.220989         39.1226         39.1662         39.4822 
       0.227147         37.0789         36.7721         37.0968 
        0.23329          34.813         34.4516         34.8273 
       0.239377         32.8051         32.3855         32.7813 
       0.245482         31.0258         30.6437         31.0006 
       0.251667         29.4968         29.2345          29.613 
       0.257832         28.5519         28.1288         28.4878 
       0.263955         27.4934         27.2216         27.5559 
       0.270079         26.6326         26.3899         26.7104 
        0.27624         25.6615         25.5312         25.8353 
       0.282372         24.7505          24.598         24.9285 
        0.28843         23.9215         23.5931         23.9357 
       0.294538         22.8247         22.5276         22.8831 
       0.300721         21.6639         21.4553         21.8336 
        0.30691         20.7962         20.4456         20.8306 
       0.313033         19.8711          19.554         19.9272 
       0.319153         19.2586         18.7845         19.1687 
       0.325316         18.3858         18.1259         18.5152 
        0.33145          17.806         17.5568         17.9228 
       0.337538           17.32         17.0422         17.3946 
       0.343633         16.8507         16.5411          16.889 
       0.349808         16.2947         16.0248         16.3863 
       0.355968         15.7303         15.4885         15.8879 
       0.362074         15.2624         14.9424         15.3242 
       0.368217         14.7026         14.3918         14.7467 
       0.374374         14.2573         13.8574          14.235 
       0.380519         13.6626         13.3589         13.7236 
       0.386598         13.1869         12.9081         13.2803 
       0.392688         12.7552         12.5018         12.8711 
        0.39888         12.4296         12.1284         12.4936 
       0.405048         12.0968         11.7852         12.1282 
       0.411186         11.7485         11.4612         11.8331 
       0.417313         11.4299          11.144          11.502 
       0.423458         11.0644          10.826         11.1889 
       0.429607         10.8119         10.5076          10.859 
       0.435692         10.5204         10.1935         10.5557 
       0.441815         10.1622         9.88383         10.2624 
       0.447964         9.81705         9.58549         9.95025 
       0.454126         9.59383         9.30284         9.66222 
       0.460267         9.38203         9.03906         9.40713 
       0.466387         9.10491         8.79455         9.14527 
        0.47254         8.89766         8.56393          8.9173 
       0.478662         8.65284         8.34559         8.69095 
       0.484765         8.44379         8.13563         8.47971 
       0.490885         8.20829         7.93037         8.29599 
       0.497035         7.98194         7.72726         8.09665 
       0.503198         7.81287         7.52647         7.86895 
       0.509342         7.57987         7.33057          7.6799 
       0.515458         7.42694         7.14137         7.50494 
       0.521598         7.24463          6.9584         7.29597 
       0.527764         7.10147          6.7824          7.1167 
       0.533884           6.876           6.616         6.94897 
           0.54         6.73406         6.45793         6.78542 
       0.546137         6.54855         6.30619         6.64135 
       0.552299         6.41755         6.15933         6.47242 
       0.558452         6.27139         6.01701         6.33397 
       0.564573         6.14415         5.87911         6.21667 
       0.570708         6.00527         5.74434         6.07445 
       0.576825         5.87605         5.61318          5.9366 
       0.582926         5.73336         5.48552          5.8133 
       0.589034          5.6276         5.36126         5.69776 
       0.595184          5.5227         5.24017         5.54619 
       0.601379          5.3759         5.12268          5.4511 
       0.607522         5.26129         5.01063         5.33144 
       0.613639         5.13456         4.90301         5.21827 
       0.619772         5.05184         4.79864         5.12241 
       0.625918         4.94255         4.69716          5.0092 
       0.632068         4.85409         4.59841         4.90448 
       0.638161          4.7481          4.5032         4.80865 
         0.6443         4.64926         4.40984         4.70879 
       0.650464         4.55126         4.31863         4.62915 
       0.656582         4.48552         4.23049         4.53552 
       0.662703          4.3966         4.14468         4.44416 
       0.668861         4.28238         4.06074         4.36793 
       0.675024         4.20745          3.9791         4.27818 
       0.681124          4.1733         3.90066         4.19491 
       0.687237         4.07083         3.82437         4.10765 
       0.693381         3.96833         3.74994         4.02759 
       0.699536         3.92301          3.6775          3.9576 
       0.705665         3.84752         3.60735         3.90254 
       0.711789         3.75888         3.53909         3.82746 
       0.717957         3.68949         3.47207         3.75112 
        0.72409         3.63112         3.40707         3.68813 
       0.730186         3.58607         3.34404          3.6172 
       0.736317         3.50319         3.28221         3.55148 
       0.742472         3.45375          3.2217         3.50322 
       0.748622         3.39558         3.16279         3.44305 
        0.75476         3.31644         3.10551         3.37477 
       0.760888         3.27625         3.04979            3.32 
       0.767043         3.18869         2.99529         3.26779 
       0.773185         3.14764         2.94228          3.2164 
       0.779291         3.11937         2.89089          3.1626 
       0.785407         3.05376         2.84068         3.10702 
       0.791564         3.00299         2.79136         3.05719 
       0.797719         2.95073         2.74324         2.99993 
       0.803834         2.90443         2.69656           2.955 
       0.809972         2.85456         2.65078          2.9166 
       0.816124          2.8086         2.60596         2.86195 
       0.822261         2.76825         2.56229         2.81549 
       0.828378         2.71894         2.51976          2.7727 
       0.834502         2.67699         2.47815         2.72622 
       0.840667         2.64298         2.43722         2.68667 
       0.846816         2.59515         2.39734         2.65303 
       0.852925           2.551         2.35861         2.60869 
       0.859047         2.51294         2.32066         2.57556 
       0.865192         2.47436         2.28343         2.53257 
       0.871341         2.43994         2.24701         2.49421 
       0.877463         2.39658         2.21155         2.45395 
       0.883569         2.36282         2.17695         2.42243 
       0.889708         2.33242         2.14293         2.38694 
       0.895864         2.29773         2.10955         2.34948 
       0.902008         2.25532         2.07695         2.31678 
       0.908149         2.22766         2.04507         2.28374 
       0.914301         2.19961         2.01381         2.24974 
       0.920448         2.16881         1.98323          2.2153 
       0.926574         2.14516          1.9534         2.18808 
       0.932687         2.10965         1.92425         2.14946 
       0.938823         2.06945         1.89559         2.12999 
       0.944975         2.04946         1.86746         2.09242 
       0.951105         2.00879            1.84         2.06422 
       0.957225         1.98661         1.81314         2.04107 
       0.963368         1.96439         1.78673         2.01008 
       0.969511         1.93934         1.76085         1.98423 
       0.975621         1.90576         1.73562         1.95069 
       0.981748         1.87085         1.71083         1.92577 
       0.987916         1.85056         1.68637         1.90731 
        0.99406         1.83252         1.66248         1.88324 
        1.00019         1.80653          1.6391         1.85907 
        1.00632         1.78836          1.6162         1.83096 
        1.01246         1.76073         1.59371         1.80672 
        1.01859         1.73789         1.57168         1.78471 
        1.02471         1.70805          1.5501         1.76093 
        1.03085         1.68779         1.52885         1.73526 
        1.03698         1.66907         1.50805         1.71359 
        1.04314         1.64807         1.48755         1.69307 
        1.04929         1.62946         1.46748         1.67238 
        1.05541         1.60148         1.44786         1.65411 
        1.06154         1.58696         1.42855         1.63356 
        1.06769         1.57006         1.40957         1.61375 
        1.07382         1.54604           1.391         1.59282 
        1.07993         1.52605          1.3728         1.57271 
        1.08607         1.51048         1.35486         1.55545 
        1.09222         1.48715         1.33722         1.53359 
        1.09836         1.47598         1.31992         1.51689 
        1.10449         1.44915         1.30295         1.49991 
        1.11063         1.43297         1.28625         1.47845 
        1.11677         1.41879         1.26986         1.46389 
         1.1229         1.39636         1.25378         1.44758 
        1.12903         1.38576         1.23797         1.42965 
        1.13518           1.365         1.22242         1.41344 
        1.14131         1.35069         1.20715          1.3966 
        1.14745         1.33667         1.19214         1.37761 
        1.15359         1.31931         1.17739         1.36548 
        1.15973         1.30473         1.16288         1.35014 
        1.16584         1.28799         1.14869         1.33313 
        1.17197         1.27154         1.13471         1.31911 
        1.17811         1.25669         1.12092          1.3054 
        1.18424         1.24258          1.1074         1.28818 
        1.19038         1.22707         1.09407         1.27441 
        1.19652          1.2176         1.08096         1.26224 
        1.20267         1.20572         1.06807         1.24433 
        1.20881         1.18628         1.05539          1.2325 
        1.21495         1.17582         1.04294         1.22303 
        1.22108         1.16334          1.0307         1.20703 
         1.2272         1.14587         1.01868         1.19184 
        1.23334         1.13652         1.00682         1.18108 
        1.23949         1.12521        0.995124         1.17081 
        1.24562         1.11231        0.983649         1.15765 
        1.25174         1.10121        0.972372         1.14305 
        1.25789         1.08539        0.961238         1.13091 
        1.26402          1.0746        0.950299         1.11888 
        1.27014         1.06051        0.939558         1.10808 
        1.27628         1.05264        0.928951         1.09615 
        1.28244         1.04157        0.918488         1.08413 
        1.28858         1.02843          0.9082         1.07168 
        1.29471         1.01664        0.898094         1.06143 
        1.30084         1.00767        0.888152         1.05389 
        1.30697         1.00003        0.878345         1.04221 
        1.31312        0.987972        0.868673         1.03109 
        1.31925        0.977767        0.859178         1.02254 
        1.32537        0.967977        0.849835         1.01182 
        1.33151        0.956844        0.840598         1.00157 
        1.33765        0.947398        0.831504        0.991713 
        1.34378        0.936444        0.822563        0.982584 
        1.34992        0.930187        0.813748        0.972938 
        1.35606         0.91878        0.805043        0.960915 
         1.3622        0.910314        0.796482        0.952429 
        1.36833        0.901234        0.788066        0.945092 
        1.37445        0.891951        0.779776        0.936007 
        1.38059        0.882988         0.77158        0.926456 
        1.38675        0.874269        0.763483        0.916261 
        1.39288        0.865594        0.755534        0.908374 
        1.39901        0.857204        0.747702        0.900216 
        1.40515        0.847872        0.739964        0.890464 
         1.4113        0.843357        0.732339        0.883109 
        1.41742        0.832413         0.72485        0.877424 
        1.42355        0.822077        0.717452        0.864706 
         1.4297        0.817638        0.710136         0.86078 
        1.43585        0.807816        0.702924          0.8522 
        1.44198        0.801163        0.695841        0.840832 
        1.44809        0.792733        0.688869        0.836781 
        1.45423        0.786022        0.681967        0.825943 
        1.46036        0.778592        0.675172        0.819342 
        1.46649        0.769912        0.668468        0.814092 
        1.47263        0.762928        0.661849        0.805944 
        1.47877        0.759753        0.655324         0.79779 
        1.48491        0.747312        0.648876        0.792311 
        1.49104        0.744452        0.642529        0.783368 
        1.49718        0.734576        0.636262        0.778496 
        1.50333        0.729529        0.630069        0.769374 
        1.50947        0.723373        0.623972        0.762007 
         1.5156        0.716099        0.617964        0.757053 
        1.52172         0.71046        0.612035        0.749803 
        1.52787         0.70234        0.606173        0.742754 
          1.534        0.698114        0.600395        0.737274 
        1.54013        0.691065        0.594698        0.730865 
        1.54627        0.684602        0.589064        0.723894 
        1.55241        0.677841        0.583503        0.717663 
        1.55855        0.672346        0.578022        0.711798 
        1.56467        0.666674        0.572627        0.706288 
         1.5708        0.660289        0.567285         0.69919 
        1.57695        0.653715        0.562004        0.693267 
        1.58308        0.647059        0.556802        0.688928 
        1.58922        0.643729        0.551662        0.682836 
        1.59535        0.636386         0.54659        0.676616 
         1.6015        0.630875        0.541574        0.670444 
        1.60764         0.62601        0.536624        0.665591 
        1.61376        0.620228         0.53175        0.661499 
        1.61989        0.615311        0.526932        0.655689 
        1.62604         0.60878        0.522164        0.650171 
        1.63218         0.60554        0.517457        0.645238 
        1.63831        0.599126         0.51282        0.639889 
        1.64444         0.59463        0.508237        0.633872 
        1.65059        0.589404          0.5037        0.628689 
        1.65673         0.58402        0.499223        0.624192 
        1.66285        0.579602        0.494814        0.619281 
        1.66898        0.575108        0.490456        0.613643 
        1.67512        0.568551        0.486142        0.608954 
        1.68127        0.563645        0.481876        0.604681 
         1.6874        0.560867        0.477671        0.600235 
        1.69353        0.555246        0.473518        0.595329 
        1.69967        0.551161        0.469406         0.59011 
        1.70581        0.547306        0.465344        0.585927 
        1.71193        0.542632        0.461345        0.582025 
        1.71806        0.538132        0.457385        0.576628 
        1.72421        0.533368        0.453464        0.572483 
        1.73035        0.527515        0.449593        0.568126 
        1.73649        0.526187        0.445768        0.562859 
        1.74262        0.519828        0.441991        0.558743 
        1.74876        0.516846        0.438255        0.555494 
        1.75489        0.512797        0.434571        0.551566 
        1.76101        0.507614        0.430929        0.546747 
        1.76715        0.504145        0.427325        0.542864 
        1.77329        0.500285        0.423757        0.539152 
        1.77943        0.496125        0.420229         0.53492 
        1.78557         0.49372        0.416746        0.530389 
        1.79171        0.489468        0.413302        0.526052 
        1.79785        0.484906        0.409897        0.522317 
        1.80399        0.480026         0.40653        0.518875 
        1.81012        0.477327        0.403206        0.514092 
        1.81625        0.474171         0.39992        0.510183 
        1.82239         0.47066        0.396667        0.507913 
        1.82853        0.466399        0.393451        0.504953 
        1.83466        0.462599        0.390273        0.500843 
        1.84078         0.45857        0.387135        0.496535 
        1.84692        0.455843        0.384025         0.49324 
        1.85306        0.452765        0.380946        0.489364 
         1.8592        0.448738        0.377906        0.485423 
        1.86533        0.446114        0.374901        0.482537 
        1.87147        0.441184        0.371924        0.478985 
        1.87761        0.438391        0.368979        0.475694 
