# k  (h/Mpc)    P(k)  (Mpc/h)^3    P_linear(k)  (Mpc/h)^3     P_NL(k)  ShotnoiseSubtracted = false
     0.00783031          681.47         686.328         683.262 
       0.013688         851.565         859.748         855.985 
       0.019231          878.97         882.465         878.216 
      0.0249154         825.765         825.873         823.166 
      0.0312784          720.79         721.359         720.659 
      0.0375637         613.871         614.869         614.708 
      0.0433917         533.202         532.103         532.352 
      0.0492413         469.933         469.941         470.287 
      0.0555754         425.056         423.716         423.773 
      0.0619321         390.091         392.182         392.068 
       0.067871          368.36         368.739         368.376 
      0.0738098         345.225         345.375         344.747 
      0.0800417         317.999         317.645          317.12 
      0.0862327         286.534         286.717         286.523 
      0.0921407         256.011         256.215         256.241 
      0.0982031         227.629         226.917         227.291 
       0.104506         200.964         201.257         201.861 
       0.110769         181.838         181.874         182.339 
       0.116806         169.566         168.722         169.066 
       0.122832         159.793         159.738          160.05 
       0.129052         153.344         152.935         153.135 
       0.135211          147.44         146.764          146.93 
       0.141259         139.979         139.871           140.1 
       0.147318         131.121         131.548         131.968 
       0.153489         121.826         121.834         122.177 
       0.159709         112.022         111.608         112.139 
       0.165845         101.809         102.088         102.886 
       0.171974         94.7903         93.9329         94.6941 
       0.178125         88.2907         87.4928         88.3792 
       0.184229         83.1886         82.7837         83.6321 
        0.19034         80.2505         79.3708         80.1431 
       0.196428         77.4017         76.7103         77.3217 
       0.202534          74.181         74.2105         74.8317 
       0.208729         71.8582         71.3951         72.0086 
       0.214876         68.8948         68.1111         68.9096 
       0.220989         64.5111         64.4057         65.2802 
       0.227147         61.3156         60.4686          61.361 
        0.23329         57.6326         56.6527         57.6774 
       0.239377          54.392         53.2552         54.3316 
       0.245482         51.4199          50.391         51.3656 
       0.251667         48.8693         48.0738         49.1093 
       0.257832          47.416         46.2555         47.2434 
       0.263955         45.5677         44.7636         45.6906 
       0.270079         44.1339          43.396         44.2897 
        0.27624         42.4891         41.9839         42.8344 
       0.282372         41.0051         40.4493         41.3655 
        0.28843          39.744         38.7968         39.7414 
       0.294538         37.9109         37.0448         38.0234 
       0.300721          35.967         35.2814         36.3201 
        0.30691         34.6149         33.6211         34.6774 
       0.313033         33.0673         32.1549          33.179 
       0.319153         32.1207         30.8896         31.9423 
       0.325316         30.6237         29.8066         30.8746 
        0.33145         29.6512         28.8707         29.8778 
       0.337538         28.8518         28.0245         28.9968 
       0.343633         28.0794         27.2005         28.1659 
       0.349808         27.1523         26.3515         27.3509 
       0.355968         26.2152         25.4696         26.5618 
       0.362074         25.4899         24.5715         25.6213 
       0.368217         24.5692          23.666         24.6479 
       0.374374         23.8641         22.7873         23.8247 
       0.380519         22.8391         21.9677         22.9729 
       0.386598         22.0533         21.2263         22.2484 
       0.392688         21.3347         20.5582          21.576 
        0.39888         20.8234         19.9441          20.947 
       0.405048         20.2815         19.3798         20.3325 
       0.411186         19.6959         18.8469         19.8711 
       0.417313          19.156         18.3254          19.309 
       0.423458          18.547         17.8025         18.8008 
       0.429607         18.1546         17.2788         18.2494 
       0.435692         17.6974         16.7623         17.7581 
       0.441815         17.0635         16.2531         17.2901 
       0.447964         16.4816         15.7625         16.7637 
       0.454126         16.1351         15.2977         16.2836 
       0.460267         15.8208          14.864         15.8733 
       0.466387         15.3436         14.4619         15.4286 
        0.47254         15.0207         14.0827          15.058 
       0.478662          14.593         13.7236         14.6797 
       0.484765         14.2447         13.3784         14.3269 
       0.490885         13.8396         13.0408          14.041 
       0.497035         13.4799         12.7068         13.7167 
       0.503198         13.1993         12.3767         13.3231 
       0.509342         12.8032         12.0545         13.0184 
       0.515458         12.5676         11.7434         12.7433 
       0.521598          12.262         11.4425         12.3771 
       0.527764         12.0382         11.1531          12.074 
       0.533884         11.6549         10.8795         11.7978 
           0.54         11.4223         10.6195         11.5259 
       0.546137         11.0927           10.37         11.2958 
       0.552299         10.8809         10.1285         11.0027 
       0.558452         10.6336         9.89447         10.7742 
       0.564573         10.4379         9.66771         10.5939 
       0.570708         10.1987         9.44609         10.3558 
       0.576825         9.99177          9.2304         10.1255 
       0.582926         9.75724         9.02048         9.92487 
       0.589034         9.57238         8.81615         9.73897 
       0.595184         9.41172         8.61702         9.47124 
       0.601379         9.15326         8.42382         9.32849 
       0.607522         8.96947         8.23956         9.12272 
       0.613639         8.75873          8.0626         8.93286 
       0.619772         8.61919         7.89097         8.77997 
       0.625918         8.43038         7.72409         8.58906 
       0.632068         8.29988          7.5617         8.41116 
       0.638161         8.11694         7.40514         8.25105 
         0.6443         7.95247         7.25162         8.08232 
       0.650464          7.7724         7.10162         7.95871 
       0.656582         7.68025         6.95669         7.80087 
       0.662703         7.54012         6.81558         7.64633 
       0.668861         7.33692         6.67754         7.52561 
       0.675024         7.21061          6.5433         7.36781 
       0.681124         7.16884         6.41431         7.22994 
       0.687237         6.99446         6.28885         7.07922 
       0.693381         6.81259         6.16647         6.94619 
       0.699536         6.74759         6.04734         6.83056 
       0.705665         6.61619         5.93198         6.74677 
       0.711789         6.46744         5.81974         6.61532 
       0.717957         6.33912         5.70953         6.48492 
        0.72409         6.25667         5.60264         6.38419 
       0.730186         6.18836         5.49899         6.26225 
       0.736317         6.04195         5.39733         6.15162 
       0.742472         5.96071         5.29782         6.07912 
       0.748622         5.86127         5.20094          5.9734 
        0.75476         5.71485         5.10674         5.85727 
       0.760888         5.65592         5.01513         5.76815 
       0.767043         5.51369          4.9255         5.68372 
       0.773185         5.44164         4.83833         5.59727 
       0.779291         5.40308         4.75382         5.50793 
       0.785407         5.28653         4.67126         5.41181 
       0.791564         5.20478         4.59016         5.32946 
       0.797719         5.10983         4.51103         5.23065 
       0.803834         5.04279         4.43426         5.15441 
       0.809972         4.95029         4.35899         5.09701 
       0.816124          4.8766         4.28528         5.00072 
       0.822261         4.80792         4.21347         4.92276 
       0.828378         4.72664         4.14353         4.85146 
       0.834502         4.65789         4.07511         4.77439 
       0.840667          4.6032          4.0078         4.70563 
       0.846816         4.51335         3.94222         4.64847 
       0.852925         4.44688         3.87853         4.57843 
       0.859047         4.38188         3.81613         4.52028 
       0.865192         4.31471         3.75491         4.44816 
       0.871341         4.25227         3.69501         4.38738 
       0.877463         4.18491         3.63671         4.31629 
       0.883569         4.13013         3.57982         4.26339 
       0.889708         4.07316         3.52386         4.20386 
       0.895864         4.01518         3.46897         4.13916 
       0.902008         3.94425         3.41537         4.08674 
       0.908149         3.89442         3.36294         4.02835 
       0.914301         3.84863         3.31154         3.97614 
       0.920448         3.79601         3.26126         3.91216 
       0.926574         3.76059          3.2122         3.86979 
       0.932687         3.69511         3.16427         3.79697 
       0.938823         3.62699         3.11714         3.76814 
       0.944975         3.59694         3.07088         3.70593 
       0.951105         3.52581         3.02572         3.65596 
       0.957225         3.49485         2.98155         3.62009 
       0.963368         3.45378         2.93813         3.56638 
       0.969511         3.40913         2.89557         3.52376 
       0.975621         3.35409         2.85409         3.46458 
       0.981748         3.29213         2.81332         3.42242 
       0.987916         3.25959         2.77309         3.39148 
        0.99406         3.23138         2.73381         3.35012 
        1.00019         3.18868         2.69537         3.31247 
        1.00632         3.15505         2.65771         3.26386 
        1.01246         3.10613         2.62072         3.22499 
        1.01859         3.06657          2.5845         3.18248 
        1.02471         3.01529         2.54901         3.13804 
        1.03085         2.98834         2.51407         3.09865 
        1.03698         2.95247         2.47986         3.06488 
        1.04314          2.9179         2.44614         3.02782 
        1.04929         2.87905         2.41314         2.99304 
        1.05541         2.83693         2.38088          2.9621 
        1.06154         2.81246         2.34914         2.92718 
        1.06769         2.78819         2.31792         2.89582 
        1.07382         2.74055         2.28738         2.85891 
        1.07993          2.7044         2.25746         2.82319 
        1.08607         2.68259         2.22796         2.79339 
        1.09222         2.64071         2.19895           2.756 
        1.09836          2.6289          2.1705         2.72551 
        1.10449         2.57311         2.14259         2.69834 
        1.11063         2.55103         2.11514         2.66165 
        1.11677         2.52505         2.08818         2.63659 
         1.1229         2.48986         2.06174         2.61069 
        1.12903         2.47156         2.03574          2.5807 
        1.13518         2.43283         2.01017         2.55267 
        1.14131         2.40655         1.98505         2.52051 
        1.14745         2.37854         1.96038         2.48845 
        1.15359         2.35311         1.93612         2.47017 
        1.15973         2.32554         1.91227         2.44174 
        1.16584         2.30099         1.88892         2.41562 
        1.17197         2.27132         1.86594          2.3896 
        1.17811         2.24592         1.84326         2.36478 
        1.18424         2.22111         1.82103         2.33605 
        1.19038         2.19701         1.79911         2.31235 
        1.19652          2.1786         1.77756         2.29333 
        1.20267         2.15854         1.75636         2.26081 
        1.20881         2.12825         1.73551          2.2405 
        1.21495          2.1083         1.71503         2.22401 
        1.22108         2.08685         1.69489          2.1983 
         1.2272          2.0554         1.67513         2.17033 
        1.23334         2.04382         1.65563         2.15314 
        1.23949         2.01962          1.6364         2.13684 
        1.24562          1.9993         1.61753         2.11393 
        1.25174         1.98198         1.59898         2.08656 
        1.25789         1.95295         1.58068         2.06544 
        1.26402         1.93316         1.56269         2.04327 
        1.27014         1.91141         1.54502         2.02805 
        1.27628         1.89455         1.52758         2.00892 
        1.28244         1.87702         1.51038         1.98592 
        1.28858          1.8572         1.49346         1.96513 
        1.29471         1.83269         1.47684         1.94599 
        1.30084         1.81763         1.46049          1.9335 
        1.30697         1.80397         1.44437         1.91319 
        1.31312         1.78433         1.42846         1.89395 
        1.31925         1.76683         1.41285         1.88028 
        1.32537         1.75055         1.39748         1.86127 
        1.33151         1.72982         1.38229         1.84325 
        1.33765         1.71477         1.36734         1.82603 
        1.34378         1.69828         1.35264         1.81131 
        1.34992         1.68429         1.33814         1.79374 
        1.35606         1.66632         1.32383         1.77185 
         1.3622         1.65165         1.30975         1.75758 
        1.36833         1.63238         1.29591         1.74709 
        1.37445         1.61589         1.28228          1.7302 
        1.38059         1.60126          1.2688         1.71393 
        1.38675         1.58721         1.25548         1.69448 
        1.39288         1.57556         1.24241          1.6834 
        1.39901         1.55638         1.22953         1.66861 
        1.40515          1.5412         1.21681         1.65112 
         1.4113         1.53285         1.20427         1.63867 
        1.41742         1.51282         1.19196         1.62817 
        1.42355         1.49758         1.17979         1.60512 
         1.4297         1.48863         1.16776         1.60028 
        1.43585         1.47277          1.1559         1.58681 
        1.44198         1.46003         1.14425         1.56574 
        1.44809         1.44762         1.13279         1.55792 
        1.45423         1.43461         1.12144         1.53966 
        1.46036         1.42254         1.11026         1.52754 
        1.46649         1.40368         1.09924         1.51839 
        1.47263         1.39673         1.08836         1.50492 
        1.47877         1.38839         1.07763         1.48939 
        1.48491         1.36737         1.06702         1.47972 
        1.49104         1.36023         1.05659         1.46482 
        1.49718         1.34558         1.04628         1.45524 
        1.50333         1.33494          1.0361         1.44178 
        1.50947         1.32394         1.02607         1.42848 
         1.5156         1.31175         1.01619         1.41867 
        1.52172         1.30189         1.00644         1.40818 
        1.52787         1.28968        0.996801         1.39383 
          1.534         1.28059        0.987299         1.38361 
        1.54013          1.2677         0.97793         1.37261 
        1.54627          1.2569        0.968667         1.36017 
        1.55241         1.24432        0.959522         1.34971 
        1.55855         1.23559        0.950509         1.33936 
        1.56467         1.22571        0.941637         1.32977 
         1.5708         1.21472        0.932853          1.3171 
        1.57695         1.20255        0.924168          1.3076 
        1.58308         1.19143        0.915614         1.30059 
        1.58922         1.18625        0.907163         1.28871 
        1.59535          1.1718        0.898821         1.27837 
         1.6015         1.16213        0.890574         1.26796 
        1.60764         1.15485        0.882434         1.25895 
        1.61376         1.14322        0.874418         1.25157 
        1.61989         1.13548        0.866496         1.24121 
        1.62604         1.12316        0.858654         1.23193 
        1.63218         1.11861        0.850915         1.22327 
        1.63831         1.10808        0.843289          1.2134 
        1.64444         1.09849        0.835754         1.20308 
        1.65059         1.09177        0.828293         1.19401 
        1.65673         1.07978        0.820931         1.18599 
        1.66285         1.07169        0.813679         1.17698 
        1.66898         1.06498        0.806513         1.16673 
        1.67512         1.05271        0.799419         1.15921 
        1.68127         1.04456        0.792405         1.15248 
         1.6874         1.04064         0.78549         1.14441 
        1.69353         1.02937        0.778661         1.13461 
        1.69967         1.02236        0.771898         1.12558 
        1.70581         1.01671        0.765219         1.11902 
        1.71193         1.00472        0.758643         1.11246 
        1.71806        0.998431        0.752131         1.10228 
        1.72421        0.991722        0.745683         1.09425 
        1.73035        0.979986        0.739318         1.08699 
        1.73649        0.978113        0.733028         1.07864 
        1.74262        0.967678        0.726817         1.07077 
        1.74876        0.960929        0.720674         1.06477 
        1.75489        0.953974        0.714615         1.05788 
        1.76101        0.944278        0.708627         1.04892 
        1.76715        0.938935          0.7027         1.04147 
        1.77329        0.932058        0.696834         1.03464 
        1.77943        0.925289        0.691032         1.02734 
        1.78557        0.920181        0.685304         1.01987 
        1.79171        0.913157        0.679641         1.01294 
        1.79785        0.905242        0.674041         1.00635 
        1.80399        0.897473        0.668505        0.999334 
        1.81012        0.891011        0.663038        0.991325 
        1.81625        0.883757        0.657636        0.984582 
        1.82239        0.878312        0.652285        0.979877 
        1.82853        0.871812        0.646997        0.975135 
        1.83466         0.86438        0.641772        0.968546 
        1.84078        0.858253         0.63661        0.960766 
        1.84692        0.852796        0.631497        0.953933 
        1.85306         0.84828        0.626434        0.947012 
         1.8592        0.839657        0.621435         0.94082 
        1.86533        0.835178        0.616493        0.935738 
        1.87147        0.826675        0.611598        0.928759 
        1.87761        0.822153        0.606755        0.922499 
