# k  (h/Mpc)    Pcb(k)  (Mpc/h)^3    Pcb_linear(k) (Mpc/h)^3    Pcb_NL(k) (Mpc/h)^3   ShotnoiseSubtracted = false
     0.00783031         10169.7         10218.5         10171.3 
       0.013688         12497.9         12780.2         12704.2 
       0.019231         12946.5         13111.2         13013.3 
      0.0249154         12286.9         12267.3           12173 
      0.0312784         10626.2         10713.2         10627.6 
      0.0375637         9000.55         9130.85         9057.45 
      0.0433917         7871.87         7901.33         7826.31 
      0.0492413         6907.34         6977.99          6909.7 
      0.0555754         6275.69         6291.41         6229.66 
      0.0619321         5653.08         5823.06         5761.61 
       0.067871         5385.47          5474.9         5416.71 
      0.0738098         5074.83         5127.93         5036.56 
      0.0800417         4678.91         4716.16          4635.6 
      0.0862327         4206.27         4256.92          4219.4 
      0.0921407         3780.28         3804.03         3779.83 
      0.0982031         3402.66         3369.03         3393.44 
       0.104506         2993.18         2988.03         3050.05 
       0.110769         2730.73         2700.25         2743.35 
       0.116806         2583.92         2504.97         2543.95 
       0.122832         2423.11         2371.58         2413.82 
       0.129052         2314.67         2270.57          2306.1 
       0.135211         2254.31         2178.94         2211.17 
       0.141259         2114.66          2076.6         2122.92 
       0.147318         1968.62         1953.04         2021.65 
       0.153489         1847.26         1808.81         1861.67 
       0.159709         1746.08         1656.99         1737.32 
       0.165845         1579.04         1515.65         1634.95 
       0.171974         1519.14         1394.57         1515.13 
       0.178125         1444.27         1298.96         1442.11 
       0.184229          1334.8         1229.04         1362.97 
        0.19034         1309.01         1178.37          1305.8 
       0.196428         1271.78         1138.87         1251.85 
       0.202534         1196.27         1101.76         1217.53 
       0.208729         1178.48         1059.96         1166.45 
       0.214876          1130.5          1011.2         1141.28 
       0.220989         1060.97         956.191         1099.17 
       0.227147         1030.65         897.739         1049.83 
        0.23329         985.428         841.087         1009.32 
       0.239377         965.844         790.646         960.985 
       0.245482         913.686         748.125         909.832 
       0.251667         877.285         713.724         882.787 
       0.257832         865.449         686.725         849.797 
       0.263955         822.181         664.576         823.386 
       0.270079         796.928         644.269         801.872 
        0.27624         764.612         623.306         778.403 
       0.282372         750.472         600.524         760.325 
        0.28843         742.888         575.988         739.306 
       0.294538         704.389         549.979         718.321 
       0.300721         684.053         523.799         696.107 
        0.30691         670.729         499.149          678.57 
       0.313033         640.323         477.381         652.668 
       0.319153         629.878         458.598         632.874 
       0.325316         619.308         442.517         618.715 
        0.33145         605.339         428.622          596.43 
       0.337538         583.803          416.06         583.921 
       0.343633         567.429         403.827         578.176 
       0.349808         554.248         391.219         567.743 
       0.355968         543.598          378.13         557.415 
       0.362074         525.382         364.796         544.324 
       0.368217         522.353         351.353         527.434 
       0.374374         512.233         338.308         515.404 
       0.380519         491.788         326.137          502.14 
       0.386598         486.429         315.131         494.736 
       0.392688         474.836         305.213         480.373 
        0.39888         462.497         296.095         471.942 
       0.405048         453.832         287.718         465.608 
       0.411186         451.967         279.807         453.752 
       0.417313         445.809         272.064         444.789 
       0.423458         433.198         264.301         438.213 
       0.429607         421.399         256.525         429.661 
       0.435692         414.762         248.858         420.561 
       0.441815         407.836         241.298         416.682 
       0.447964         398.653         234.015         408.748 
       0.454126         393.726         227.114         397.443 
       0.460267         387.431         220.676         394.861 
       0.466387         380.548         214.705         387.001 
        0.47254         375.113         209.075         381.316 
       0.478662         366.472         203.744         374.084 
       0.484765         362.254         198.619         366.723 
       0.490885          358.22         193.607         361.902 
       0.497035         351.192         188.649         357.697 
       0.503198         350.127         183.747         352.394 
       0.509342         341.479         178.964         347.882 
       0.515458          336.14         174.346          344.49 
       0.521598         330.308         169.878         337.919 
       0.527764         325.699         165.582           333.6 
       0.533884         324.083         161.519         329.164 
           0.54         318.812          157.66         323.921 
       0.546137         311.919         153.956         320.196 
       0.552299         310.863          150.37         315.215 
       0.558452         305.537         146.896         311.677 
       0.564573         302.922         143.529         309.078 
       0.570708         297.943         140.239         305.861 
       0.576825         292.897         137.037         299.869 
       0.582926         290.633          133.92         296.695 
       0.589034          286.15         130.887         293.199 
       0.595184         284.085         127.931         288.367 
       0.601379         279.408         125.062         286.196 
       0.607522         273.852         122.326         282.486 
       0.613639         272.479         119.699         280.291 
       0.619772         270.976         117.151         278.121 
       0.625918         266.782         114.674         274.049 
       0.632068         262.902         112.263          270.24 
       0.638161         260.837         109.938         268.632 
         0.6443         258.358         107.659          265.75 
       0.650464         254.109         105.432           260.9 
       0.656582         251.892         103.281         258.857 
       0.662703         250.066         101.186         257.241 
       0.668861          245.39         99.1364         254.524 
       0.675024         244.624         97.1434         251.804 
       0.681124         241.613         95.2283         248.438 
       0.687237         239.366         93.3658         246.043 
       0.693381         236.188         91.5488         243.498 
       0.699536         234.322         89.7802         241.552 
       0.705665         231.837         88.0676         239.586 
       0.711789         229.527         86.4011         237.296 
       0.717957         227.011          84.765         235.316 
        0.72409         224.363         83.1781         233.575 
       0.730186         225.481         81.6393         231.408 
       0.736317         221.483           80.13         228.678 
       0.742472         218.816         78.6527         226.494 
       0.748622         215.879         77.2143         224.229 
        0.75476         216.403         75.8159         223.351 
       0.760888         213.506         74.4557         220.258 
       0.767043          210.53          73.125         218.954 
       0.773185         209.089         71.8309         217.358 
       0.779291         206.251         70.5763         214.911 
       0.785407         205.283         69.3506         213.084 
       0.791564         203.361         68.1466         211.583 
       0.797719         200.213         66.9718         210.321 
       0.803834         201.232         65.8321         208.551 
       0.809972         198.809         64.7145         206.796 
       0.816124          195.79         63.6203         204.984 
       0.822261         194.243         62.5542         203.427 
       0.828378         194.044         61.5157         201.413 
       0.834502         191.182            60.5          200.07 
       0.840667         191.038         59.5008         198.579 
       0.846816         187.909         58.5271         197.245 
       0.852925         187.057         57.5815         195.704 
       0.859047         185.101         56.6551         194.322 
       0.865192         184.751         55.7463         192.687 
       0.871341         182.371          54.857         191.109 
       0.877463          180.79         53.9914         190.081 
       0.883569         180.549         53.1468         189.069 
       0.889708         178.684         52.3161          187.25 
       0.895864         177.082         51.5011         186.251 
       0.902008         175.295         50.7054         184.575 
       0.908149         173.665          49.927         182.983 
       0.914301         172.886         49.1638         181.937 
       0.920448         172.506         48.4173         180.489 
       0.926574         170.081         47.6891         179.039 
       0.932687         169.535         46.9774         177.925 
       0.938823         168.216         46.2778         177.058 
       0.944975         167.022         45.5909         176.057 
       0.951105         165.369         44.9205         174.594 
       0.957225         164.552         44.2648          173.28 
       0.963368         163.373         43.6201         171.808 
       0.969511          161.36         42.9882         170.681 
       0.975621         160.132         42.3724         170.468 
       0.981748         159.268         41.7671         169.168 
       0.987916         158.459         41.1699         168.049 
        0.99406         157.334         40.5867         166.891 
        1.00019         156.287          40.016         165.601 
        1.00632         155.304         39.4569         164.245 
        1.01246         154.069         38.9078         162.919 
        1.01859         152.908           38.37         162.566 
        1.02471         151.766         37.8431         161.947 
        1.03085         150.771         37.3244         160.734 
        1.03698         149.604         36.8165         159.776 
        1.04314         149.191          36.316          158.66 
        1.04929         148.284          35.826         157.726 
        1.05541         147.221         35.3471         156.874 
        1.06154         145.854         34.8758         155.955 
        1.06769         145.062         34.4124         155.189 
        1.07382         144.402          33.959         154.181 
        1.07993         143.096         33.5148         153.169 
        1.08607         142.288         33.0767         152.451 
        1.09222         141.244         32.6461         151.724 
        1.09836         140.433         32.2237          150.78 
        1.10449         139.268         31.8093         149.873 
        1.11063         138.372         31.4018         148.686 
        1.11677         137.728         31.0016         147.859 
         1.1229          136.57         30.6091         147.141 
        1.12903         135.854          30.223         146.319 
        1.13518         134.789         29.8434         145.499 
        1.14131         134.145         29.4705         144.448 
        1.14745         133.241         29.1042         143.871 
        1.15359         131.893         28.7441         142.967 
        1.15973         131.583         28.3899         142.337 
        1.16584         130.753         28.0433         141.048 
        1.17197         130.029         27.7021         140.639 
        1.17811         128.797         27.3655         140.082 
        1.18424         128.277         27.0355         139.045 
        1.19038         127.543           26.71         138.518 
        1.19652         126.619           26.39         137.848 
        1.20267         125.821         26.0752         136.957 
        1.20881         124.887         25.7657          136.31 
        1.21495         124.444         25.4618         135.386 
        1.22108         123.596         25.1627         135.016 
         1.2272          122.68         24.8693         133.883 
        1.23334         122.317         24.5798         133.599 
        1.23949         121.668         24.2943         132.692 
        1.24562         120.666         24.0142         131.728 
        1.25174         119.989         23.7388         131.253 
        1.25789         119.118          23.467          130.57 
        1.26402         118.857            23.2         129.861 
        1.27014         117.968         22.9377         129.666 
        1.27628          116.84         22.6788         129.204 
        1.28244         116.651         22.4234         128.001 
        1.28858         115.594         22.1722         127.282 
        1.29471         114.939         21.9255         126.777 
        1.30084         114.184         21.6828         126.018 
        1.30697         113.659         21.4433         125.531 
        1.31312         112.864         21.2072         124.712 
        1.31925         112.063         20.9754         124.144 
        1.32537         111.659         20.7473         123.759 
        1.33151         111.257         20.5218         122.978 
        1.33765         110.183         20.2998         122.447 
        1.34378         109.964         20.0815         121.846 
        1.34992         109.424         19.8663         121.125 
        1.35606         108.597         19.6538          120.47 
         1.3622         108.378         19.4448         119.993 
        1.36833         107.115         19.2393         119.264 
        1.37445         106.938         19.0369         118.733 
        1.38059         106.297         18.8369         118.133 
        1.38675         105.464         18.6392         117.465 
        1.39288         104.866         18.4451         116.801 
        1.39901         104.207         18.2539         116.499 
        1.40515         103.791          18.065         116.109 
         1.4113          103.22         17.8788         115.567 
        1.41742         102.509          17.696         115.033 
        1.42355          102.26         17.5154         114.462 
         1.4297         101.409         17.3368         113.882 
        1.43585          100.85         17.1607         113.139 
        1.44198         100.079         16.9878         112.718 
        1.44809         99.4126         16.8176         112.251 
        1.45423         99.3226         16.6491          111.61 
        1.46036          98.424         16.4832         111.114 
        1.46649         97.8397         16.3195          110.77 
        1.47263         97.4691          16.158         110.313 
        1.47877         96.7917         15.9986         109.519 
        1.48491         96.3454         15.8412         109.175 
        1.49104         95.3328         15.6863         108.898 
        1.49718         95.2034         15.5333         107.988 
        1.50333         94.7822         15.3821         107.493 
        1.50947         94.2897         15.2332         107.107 
         1.5156          93.838         15.0866         106.621 
        1.52172         93.0516         14.9418         106.199 
        1.52787         92.6538         14.7987         105.639 
          1.534         92.0878         14.6576         105.216 
        1.54013         91.7127         14.5185          104.76 
        1.54627          90.932          14.381         104.275 
        1.55241         90.7613         14.2453         103.844 
        1.55855         89.9932         14.1114         103.326 
        1.56467         89.3398         13.9797         102.839 
         1.5708         88.8598         13.8493         102.445 
        1.57695         88.5944         13.7204         102.007 
        1.58308         88.0504         13.5934         101.484 
        1.58922         87.9511         13.4679         101.003 
        1.59535          87.499         13.3441          100.61 
         1.6015         86.6875         13.2216         100.112 
        1.60764         86.1825         13.1008         99.6848 
        1.61376         85.7693         12.9818         99.4752 
        1.61989         85.2957         12.8642          99.058 
        1.62604         84.8703         12.7478         98.3585 
        1.63218         84.5292         12.6329         97.8987 
        1.63831          83.961         12.5196         97.7054 
        1.64444          83.469         12.4078         97.1711 
        1.65059         83.0129          12.297         96.6557 
        1.65673         82.6492         12.1877         96.2957 
        1.66285         82.0804           12.08         95.9671 
        1.66898         81.5665         11.9737         95.5434 
        1.67512         81.1845         11.8683         95.1213 
        1.68127         80.8643         11.7642         94.6406 
         1.6874         80.2674         11.6615         94.2225 
        1.69353         79.7988         11.5602         93.9606 
        1.69967         79.4903         11.4598         93.5127 
        1.70581         79.1431         11.3606         93.0334 
        1.71193         78.5741          11.263         92.6766 
        1.71806         78.1934         11.1663         92.4018 
        1.72421         77.7564         11.0706         91.9937 
        1.73035         77.4678         10.9761         91.4795 
        1.73649         76.9037         10.8827         91.0313 
        1.74262         76.4613         10.7905         90.7911 
        1.74876         76.1133         10.6993         90.4115 
        1.75489         75.6643         10.6093         89.9259 
        1.76101         75.2114         10.5204         89.5065 
        1.76715         74.8764         10.4324         89.1723 
        1.77329         74.4574         10.3453         88.8506 
        1.77943         74.1762         10.2592         88.4833 
        1.78557          73.767         10.1742         88.0835 
        1.79171         73.3066         10.0901         87.7411 
        1.79785         72.8162         10.0069         87.4335 
        1.80399         72.6621         9.92475         87.0771 
        1.81012          72.098          9.8436         86.6385 
        1.81625         71.7399         9.76338         86.2429 
        1.82239         71.4098         9.68395         85.9396 
        1.82853           70.92         9.60543         85.6317 
        1.83466         70.4989         9.52787         85.2512 
        1.84078         70.2876         9.45124         84.8942 
        1.84692          70.111         9.37533         84.6921 
        1.85306         69.6094         9.30016         84.3107 
         1.8592         69.2436         9.22594         83.8593 
        1.86533         68.8409         9.15256         83.5554 
        1.87147         68.4623          9.0799         83.0615 
