# k  (h/Mpc)    Pcb(k)  (Mpc/h)^3    Pcb_linear(k) (Mpc/h)^3    Pcb_NL(k) (Mpc/h)^3   ShotnoiseSubtracted = false
     0.00783031         1634.87         1645.68         1638.47 
       0.013688         2036.69          2060.9         2051.58 
       0.019231         2103.95         2115.14         2104.37 
      0.0249154         1980.78          1979.4         1972.08 
      0.0312784          1726.3         1728.85         1726.04 
      0.0375637         1468.67          1473.6         1472.08 
      0.0433917         1277.66         1275.23          1274.6 
      0.0492413         1124.96         1126.25         1125.97 
      0.0555754         1018.97         1015.46         1014.67 
      0.0619321         931.551          939.88         938.781 
       0.067871         881.725         883.697         882.111 
      0.0738098          826.99         827.702         825.013 
      0.0800417         762.297         761.245         758.966 
      0.0862327         686.312         687.123           686.3 
      0.0921407         613.445         614.023         613.905 
      0.0982031          546.59          543.81         545.307 
       0.104506         481.698         482.315         484.978 
       0.110769         436.349         435.863         437.812 
       0.116806         408.268         404.344         405.975 
       0.122832         383.957         382.814         384.478 
       0.129052         368.726         366.509         367.802 
       0.135211         355.219          351.72         352.953 
       0.141259         336.569         335.201         336.796 
       0.147318         314.587         315.256         317.794 
       0.153489         292.835         291.976         293.935 
       0.159709         270.325         267.469         270.345 
       0.165845         244.976         244.653         248.937 
       0.171974         229.827          225.11         229.209 
       0.178125         214.449         209.676         214.515 
       0.184229         201.472         198.391         203.061 
        0.19034         194.957         190.212         194.539 
       0.196428         188.165         183.836          187.37 
       0.202534         179.388         177.845         181.467 
       0.208729         174.539         171.098         174.636 
       0.214876         167.689         163.228         167.747 
       0.220989           156.4         154.348         159.245 
       0.227147         149.681         144.913         149.907 
        0.23329         141.183         135.768         141.462 
       0.239377         133.934         127.626         133.571 
       0.245482         126.479         120.762         126.184 
       0.251667         120.239         115.209         120.974 
       0.257832          117.38         110.851         116.375 
       0.263955         112.214         107.276         112.509 
       0.270079         108.635         103.998         109.084 
        0.27624         104.441         100.614         105.473 
       0.282372         100.994         96.9367         102.094 
        0.28843         98.6309         92.9761          98.254 
       0.294538         93.9863         88.7776         94.2653 
       0.300721         89.2032         84.5518         90.3656 
        0.30691         86.4131         80.5727         86.4891 
       0.313033         82.5033         77.0589         82.7964 
       0.319153         80.5037         74.0271         79.8964 
       0.325316          76.805         71.4313         77.3932 
        0.33145         74.3571         69.1882         74.8259 
       0.337538         72.3272         67.1605         72.6256 
       0.343633         70.3737         65.1859          70.696 
       0.349808         68.1084         63.1507         68.8161 
       0.355968         65.8806         61.0379         67.0832 
       0.362074         64.3472         58.8856          64.779 
       0.368217         62.2106         56.7155          62.304 
       0.374374         60.5686         54.6099          60.422 
       0.380519         57.8582         52.6453         58.3265 
       0.386598          56.038         50.8686          56.598 
       0.392688         54.2659         49.2676         55.0149 
        0.39888         53.1558         47.7958         53.4081 
       0.405048         51.8588         46.4436         51.9294 
       0.411186          50.441         45.1665         50.9259 
       0.417313         49.0336         43.9167         49.4313 
       0.423458         47.6061         42.6636         48.2634 
       0.429607         46.7113         41.4084         46.9138 
       0.435692         45.7424         40.1708         45.7635 
       0.441815         43.9838         38.9505         44.7411 
       0.447964         42.5275         37.7748         43.3933 
       0.454126         41.7357         36.6609         42.1749 
       0.460267         41.1737         35.6217         41.2682 
       0.466387         39.9493         34.6578         40.1296 
        0.47254         39.2832          33.749         39.2771 
       0.478662         38.0433         32.8885         38.3423 
       0.484765         37.2104         32.0612         37.4173 
       0.490885         36.1464         31.2522         36.8078 
       0.497035         35.4655         30.4518         36.0606 
       0.503198         34.6685         29.6606         35.0466 
       0.509342         33.6775         28.8885         34.3506 
       0.515458         33.1787          28.143         33.7693 
       0.521598         32.3677         27.4219         32.7599 
       0.527764         31.8782         26.7283         31.9377 
       0.533884         31.0409         26.0725         31.2862 
           0.54         30.4033         25.4496         30.6404 
       0.546137         29.4768         24.8516          30.126 
       0.552299          28.962         24.2728         29.3532 
       0.558452         28.3256          23.712         28.7671 
       0.564573          27.976         23.1686         28.3723 
       0.570708         27.2483         22.6375         27.7964 
       0.576825         26.8358         22.1206         27.2342 
       0.582926         26.3067         21.6175         26.7415 
       0.589034         25.7696         21.1278         26.3095 
       0.595184         25.4024         20.6507         25.6309 
       0.601379          24.697         20.1877         25.3046 
       0.607522         24.2771          19.746         24.7334 
       0.613639         23.8227          19.322         24.2784 
       0.619772         23.4142         18.9106         23.9006 
       0.625918         22.9121         18.5107         23.4834 
       0.632068         22.6853         18.1216          23.001 
       0.638161         22.1859         17.7464          22.603 
         0.6443         21.8023         17.3784         22.1693 
       0.650464         21.2521          17.019         21.8811 
       0.656582         21.0853         16.6716         21.4988 
       0.662703         20.7916         16.3335         21.0887 
       0.668861         20.2271         16.0027         20.8178 
       0.675024         19.9261          15.681         20.3747 
       0.681124         19.8178         15.3718         20.0447 
       0.687237         19.3887         15.0712         19.6694 
       0.693381         18.9341         14.7779         19.3464 
       0.699536          18.819         14.4924         19.0804 
       0.705665         18.4423         14.2159         18.8564 
       0.711789         18.0886         13.9469         18.4772 
       0.717957         17.6976         13.6828         18.1891 
        0.72409         17.5411         13.4267         17.9522 
       0.730186         17.4175         13.1783         17.6359 
       0.736317         17.0224         12.9347         17.3584 
       0.742472          16.803         12.6962         17.1868 
       0.748622         16.5167          12.464         16.8766 
        0.75476         16.0869         12.2383         16.6134 
       0.760888         15.9994         12.0187         16.3995 
       0.767043         15.6949         11.8039         16.1889 
       0.773185         15.5019          11.595         15.9487 
       0.779291         15.3653         11.3925         15.7449 
       0.785407         15.0754         11.1946         15.4944 
       0.791564         14.9191         11.0003         15.2894 
       0.797719         14.5908         10.8107         15.0518 
       0.803834           14.51         10.6267         14.8263 
       0.809972          14.217         10.4463         14.6928 
       0.816124         14.0437         10.2696         14.4445 
       0.822261         13.8687         10.0976         14.2396 
       0.828378         13.6882         9.92993         14.0563 
       0.834502         13.5233         9.76597         13.9021 
       0.840667         13.3766         9.60467         13.6881 
       0.846816         13.0783          9.4475         13.5308 
       0.852925         12.9934         9.29486         13.4163 
       0.859047          12.815         9.14532         13.2031 
       0.865192         12.6256         8.99862         13.0274 
       0.871341         12.4457         8.85507          12.896 
       0.877463         12.2947         8.71534         12.7101 
       0.883569         12.1936           8.579         12.5636 
       0.889708         11.9821         8.44491         12.4045 
       0.895864         11.8281         8.31336         12.2357 
       0.902008         11.6703         8.18491         12.1133 
       0.908149         11.5035         8.05926         11.9606 
       0.914301         11.4265         7.93607         11.8656 
       0.920448         11.2484         7.81557         11.6649 
       0.926574         11.1675         7.69801          11.543 
       0.932687         10.9858         7.58314         11.3501 
       0.938823         10.8289          7.4702         11.2632 
       0.944975         10.7462         7.35933         11.1355 
       0.951105         10.5907         7.25111         10.9675 
       0.957225         10.5188         7.14527         10.9055 
       0.963368         10.3543         7.04119         10.7515 
       0.969511         10.2359          6.9392         10.6473 
       0.975621         10.1204         6.83979         10.5045 
       0.981748         9.97014         6.74209         10.4013 
       0.987916         9.88945         6.64569         10.2838 
        0.99406         9.78962         6.55155         10.1808 
        1.00019         9.69449         6.45943         10.0892 
        1.00632         9.59598         6.36918         9.97215 
        1.01246         9.47931         6.28053         9.90286 
        1.01859         9.35701         6.19372         9.76434 
        1.02471         9.22948         6.10867         9.62531 
        1.03085         9.18995         6.02494         9.54606 
        1.03698          9.0851         5.94296          9.4633 
        1.04314         8.97045         5.86216         9.34948 
        1.04929         8.83681         5.78307         9.26611 
        1.05541         8.78032         5.70576         9.18551 
        1.06154         8.69291         5.62968         9.07962 
        1.06769           8.633         5.55488         8.99293 
        1.07382         8.48119         5.48169          8.9075 
        1.07993         8.40073         5.40999         8.81491 
        1.08607         8.34986         5.33928         8.72339 
        1.09222         8.22995         5.26977         8.63981 
        1.09836          8.2054         5.20159         8.53522 
        1.10449         8.04805         5.13469          8.4603 
        1.11063         8.02021         5.06891         8.38865 
        1.11677         7.94329         5.00431         8.30394 
         1.1229         7.86659         4.94095         8.23605 
        1.12903         7.79677         4.87863         8.18125 
        1.13518         7.67753         4.81735         8.09284 
        1.14131         7.61401         4.75715         8.00114 
        1.14745         7.50953         4.69803         7.91417 
        1.15359          7.4466          4.6399         7.85551 
        1.15973         7.37558         4.58273         7.78047 
        1.16584         7.31468         4.52678         7.73327 
        1.17197         7.23713          4.4717         7.65685 
        1.17811          7.1666         4.41736         7.57136 
        1.18424         7.10828         4.36409         7.51104 
        1.19038         7.05467         4.31155         7.44145 
        1.19652         6.99349          4.2599         7.38142 
        1.20267         6.92908         4.20909         7.30476 
        1.20881         6.84507         4.15913         7.26319 
        1.21495         6.79041         4.11006         7.19462 
        1.22108         6.73535          4.0618          7.1349 
         1.2272         6.66389         4.01442         7.05524 
        1.23334         6.64135          3.9677         7.00974 
        1.23949           6.553         3.92161         6.95838 
        1.24562         6.49946         3.87639         6.88897 
        1.25174         6.45742         3.83195         6.83167 
        1.25789         6.35564         3.78807         6.77103 
        1.26402         6.33177         3.74497          6.7069 
        1.27014         6.28768         3.70264         6.66271 
        1.27628         6.20361         3.66084         6.60943 
        1.28244         6.18046          3.6196          6.5599 
        1.28858         6.13393         3.57906         6.50148 
        1.29471         6.04344         3.53924         6.45364 
        1.30084         5.99289         3.50005         6.41534 
        1.30697         5.97294         3.46141         6.34663 
        1.31312         5.90824         3.42329         6.30147 
        1.31925         5.85832         3.38587         6.26719 
        1.32537         5.81699         3.34905         6.21722 
        1.33151         5.76103         3.31265         6.16321 
        1.33765         5.71163         3.27682         6.10646 
        1.34378         5.69646         3.24158         6.06828 
        1.34992         5.63071         3.20684         6.02145 
        1.35606         5.58775         3.17254         5.96355 
         1.3622         5.53687          3.1388         5.91856 
        1.36833         5.49299         3.10563         5.89859 
        1.37445         5.44268         3.07296         5.84457 
        1.38059         5.39971         3.04067         5.79089 
        1.38675         5.35869         3.00876         5.75444 
        1.39288         5.31893         2.97743         5.71784 
        1.39901         5.26404         2.94657         5.67621 
        1.40515         5.23131         2.91607         5.63239 
         1.4113         5.18857         2.88602         5.59041 
        1.41742         5.15514         2.85651         5.55025 
        1.42355         5.10731         2.82736         5.50714 
         1.4297         5.07664         2.79852         5.47282 
        1.43585         5.04302          2.7701         5.44116 
        1.44198         4.99489         2.74219         5.39006 
        1.44809         4.96647         2.71471         5.36171 
        1.45423         4.91997         2.68751         5.32135 
        1.46036         4.89358         2.66074         5.28427 
        1.46649         4.84995         2.63432         5.25184 
        1.47263         4.82434         2.60824         5.21598 
        1.47877         4.78465         2.58252         5.17447 
        1.48491         4.75511         2.55711          5.1432 
        1.49104         4.71037          2.5321         5.10593 
        1.49718         4.68816          2.5074         5.07228 
        1.50333         4.64775           2.483         5.04123 
        1.50947         4.60116         2.45897         5.00775 
         1.5156         4.58732         2.43529         4.97635 
        1.52172         4.55212         2.41193         4.94491 
        1.52787         4.52113         2.38882         4.89791 
          1.534         4.48428         2.36605         4.86919 
        1.54013         4.46082          2.3436         4.84154 
        1.54627         4.42486          2.3214         4.81066 
        1.55241         4.38481         2.29949         4.78048 
        1.55855         4.36905         2.27789         4.73956 
        1.56467         4.33741         2.25662         4.71949 
         1.5708         4.30379         2.23557         4.69618 
        1.57695         4.26244         2.21476         4.65695 
        1.58308         4.23103         2.19426         4.62961 
        1.58922          4.2185         2.17401         4.60807 
        1.59535         4.18703         2.15402         4.57845 
         1.6015         4.14779         2.13425         4.54402 
        1.60764         4.13078         2.11474         4.51677 
        1.61376         4.10222         2.09553         4.49583 
        1.61989         4.06071         2.07655          4.4678 
        1.62604         4.04194         2.05776         4.43587 
        1.63218         4.02056         2.03921         4.41172 
        1.63831         3.99994         2.02093         4.38924 
        1.64444         3.96346         2.00288         4.35526 
        1.65059          3.9436           1.985         4.33076 
        1.65673         3.91717         1.96735         4.30532 
        1.66285          3.8919         1.94998         4.27923 
        1.66898          3.8633          1.9328         4.25627 
        1.67512         3.83685          1.9158         4.23134 
        1.68127         3.81033         1.89899         4.20871 
         1.6874         3.79311         1.88242         4.18729 
        1.69353         3.75699         1.86605         4.16114 
        1.69967         3.74204         1.84985         4.13041 
        1.70581          3.7145         1.83384         4.10884 
        1.71193         3.69325         1.81808         4.09291 
        1.71806         3.67093         1.80248         4.06652 
        1.72421         3.64678         1.78702         4.04061 
        1.73035         3.62299         1.77177         4.01665 
        1.73649         3.59942          1.7567         3.99365 
        1.74262         3.57868         1.74181         3.97386 
        1.74876         3.56426         1.72709         3.95493 
        1.75489         3.53563         1.71257         3.93048 
        1.76101         3.50991         1.69822         3.90165 
        1.76715         3.50148         1.68401         3.88113 
        1.77329         3.47544         1.66995         3.86388 
        1.77943         3.44647         1.65605         3.84376 
        1.78557         3.43384         1.64233         3.82059 
        1.79171         3.41436         1.62875         3.79737 
        1.79785         3.39572         1.61533         3.77649 
        1.80399         3.36442         1.60207          3.7586 
        1.81012         3.35236         1.58897         3.74158 
        1.81625         3.32852         1.57602         3.72182 
        1.82239         3.31415          1.5632         3.70166 
        1.82853         3.29095         1.55052         3.68597 
        1.83466         3.26219           1.538         3.66946 
        1.84078         3.24647         1.52563         3.64796 
        1.84692         3.22894         1.51338         3.62208 
        1.85306         3.20898         1.50124         3.59986 
         1.8592         3.19775         1.48926         3.58487 
        1.86533         3.17719         1.47742         3.57124 
        1.87147         3.16086         1.46569         3.55242 
