# k  (h/Mpc)    P(k)  (Mpc/h)^3    P_linear(k)  (Mpc/h)^3     P_NL(k)  ShotnoiseSubtracted = false
     0.00783031         10988.5           11040         10988.5 
       0.013688         13489.9           13806         13721.7 
       0.019231         13976.3         14163.1         14053.8 
      0.0249154         13271.2         13251.3         13143.7 
      0.0312784         11470.3         11572.4         11472.1 
      0.0375637         9712.42         9863.09         9776.58 
      0.0433917         8497.09         8534.94         8445.92 
      0.0492413         7454.48         7537.54         7456.22 
      0.0555754         6773.01          6795.9         6722.71 
      0.0619321         6095.25         6289.98         6217.38 
       0.067871         5808.11          5913.9         5845.45 
      0.0738098         5475.52         5539.11         5431.87 
      0.0800417         5047.53         5094.31         4999.71 
      0.0862327         4537.71         4598.25          4553.7 
      0.0921407         4080.54         4109.04         4079.96 
      0.0982031         3675.84         3639.16         3666.47 
       0.104506         3234.08         3227.61         3298.69 
       0.110769         2952.32         2916.75         2966.37 
       0.116806         2794.93         2705.82         2750.73 
       0.122832         2621.75         2561.74         2610.31 
       0.129052         2502.22         2452.63         2493.64 
       0.135211         2438.97         2353.65         2390.49 
       0.141259         2286.13          2243.1          2296.5 
       0.147318          2128.8         2109.63         2188.15 
       0.153489         1998.63         1953.84         2014.77 
       0.159709         1892.54         1789.85         1882.52 
       0.165845         1712.47         1637.17         1774.35 
       0.171974         1648.99         1506.39         1645.72 
       0.178125         1570.43         1403.11         1568.25 
       0.184229         1449.93         1327.58         1481.74 
        0.19034         1423.39         1272.85          1419.8 
       0.196428         1383.46         1230.19         1361.46 
       0.202534         1301.47          1190.1         1324.51 
       0.208729         1282.12         1144.94         1268.36 
       0.214876         1229.32         1092.28         1242.05 
       0.220989         1155.89         1032.86         1197.65 
       0.227147         1122.92         969.718         1145.61 
        0.23329         1074.19         908.524         1102.41 
       0.239377         1055.28         854.038         1050.01 
       0.245482         999.049         808.105         994.772 
       0.251667         959.865         770.944         965.659 
       0.257832         946.483         741.785         929.789 
       0.263955         899.998          717.86         901.294 
       0.270079         872.999         695.927         878.066 
        0.27624         837.527         673.282         852.881 
       0.282372         823.066         648.672         833.956 
        0.28843         814.049         622.172         811.902 
       0.294538         772.286         594.074         788.991 
       0.300721         751.452         565.796         764.537 
        0.30691         736.394         539.169         746.437 
       0.313033         703.471         515.657         718.305 
       0.319153         692.604         495.365         696.523 
       0.325316         681.893         477.997         681.339 
        0.33145         666.693         462.988         656.861 
       0.337538         643.065         449.418         643.791 
       0.343633         625.626         436.204         637.724 
       0.349808         611.546         422.589          626.57 
       0.355968         599.938         408.447         615.448 
       0.362074         579.525         394.045         601.504 
       0.368217         576.878         379.523         583.259 
       0.374374         566.357         365.431         570.274 
       0.380519         544.038         352.287         555.881 
       0.386598         538.648         340.397         548.154 
       0.392688         525.825         329.684         532.215 
        0.39888         512.307         319.835         523.387 
       0.405048         502.683         310.786         516.206 
       0.411186         500.962         302.241          503.45 
       0.417313         495.037         293.877         494.193 
       0.423458          480.77         285.491          487.06 
       0.429607         467.446         277.094         477.581 
       0.435692         460.649          268.81         467.517 
       0.441815         452.858         260.645         463.504 
       0.447964         443.421         252.777          455.01 
       0.454126         438.143         245.324         442.459 
       0.460267         431.002         238.368          439.93 
       0.466387         423.572          231.92         431.322 
        0.47254         417.337         225.838         425.163 
       0.478662         408.459          220.08         417.213 
       0.484765         403.822         214.543          409.59 
       0.490885         399.474         209.131          403.93 
       0.497035         391.301         203.774         399.405 
       0.503198          390.62         198.479         393.678 
       0.509342         381.419         193.313         388.522 
       0.515458         375.009         188.324         384.923 
       0.521598          369.35         183.499         378.065 
       0.527764         363.632         178.857         373.497 
       0.533884         361.599         174.469         368.535 
           0.54          356.39         170.301         362.717 
       0.546137         348.969         166.299         358.483 
       0.552299         348.032         162.426         353.194 
       0.558452         342.146         158.673         349.481 
       0.564573         339.102         155.037         346.647 
       0.570708         334.153         151.483         343.168 
       0.576825           328.2         148.024         336.582 
       0.582926         326.066         144.658          333.17 
       0.589034         320.897         141.381         328.982 
       0.595184         318.582         138.187         324.042 
       0.601379         313.472         135.089          321.32 
       0.607522         307.341         132.134         317.253 
       0.613639         306.022         129.296         315.153 
       0.619772          304.59         126.544         313.195 
       0.625918         299.331         123.868         308.282 
       0.632068         295.851         121.264         304.414 
       0.638161         293.468         118.753         302.271 
         0.6443         290.357         116.291         299.262 
       0.650464         286.029         113.886         293.817 
       0.656582         283.413         111.561         291.573 
       0.662703         281.463         109.299         290.032 
       0.668861         276.336         107.085         287.169 
       0.675024         275.265         104.932         284.278 
       0.681124         271.871         102.863         280.099 
       0.687237         269.654         100.852          277.57 
       0.693381         265.964          98.889         274.854 
       0.699536         264.148         96.9786         272.809 
       0.705665         261.323         95.1285         270.204 
       0.711789         259.024         93.3285         268.081 
       0.717957         256.091         91.5613         266.086 
        0.72409             253          89.847          263.86 
       0.730186         254.486         88.1849         261.397 
       0.736317         249.829         86.5546         258.501 
       0.742472         247.163         84.9589         255.981 
       0.748622         244.123         83.4051         253.599 
        0.75476         244.258         81.8946          253.01 
       0.760888         241.099         80.4254         249.456 
       0.767043         238.052          78.988         247.904 
       0.773185          236.59         77.5901         246.016 
       0.779291         233.287          76.235         243.302 
       0.785407         232.283         74.9109         241.503 
       0.791564         230.128         73.6104         239.705 
       0.797719         226.473         72.3414         238.115 
       0.803834         227.935         71.1103         236.486 
       0.809972         224.804         69.9031         234.498 
       0.816124         221.541         68.7212         232.188 
       0.822261         219.796         67.5696         230.671 
       0.828378         219.524         66.4479         228.554 
       0.834502         216.306         65.3507         227.042 
       0.840667         216.359         64.2714         225.182 
       0.846816         212.435         63.2196          223.88 
       0.852925         211.976         62.1983         222.161 
       0.859047         209.809         61.1976         220.631 
       0.865192         209.455         60.2159         218.738 
       0.871341         206.631         59.2553         217.109 
       0.877463         204.856         58.3202         215.917 
       0.883569         204.448         57.4079         214.838 
       0.889708         202.327         56.5106         212.677 
       0.895864         200.535         55.6303         211.475 
       0.902008         198.647         54.7708         209.792 
       0.908149         196.976           53.93         207.981 
       0.914301         195.805         53.1056         206.703 
       0.920448         195.366         52.2993         205.046 
       0.926574         193.024         51.5126         203.577 
       0.932687         192.245         50.7439          202.32 
       0.938823         190.638         49.9882         201.407 
       0.944975         189.596         49.2462         200.239 
       0.951105          187.57         48.5221         198.642 
       0.957225         186.404         47.8138         197.143 
       0.963368         185.566         47.1174          195.62 
       0.969511         182.823         46.4349         194.242 
       0.975621         181.595         45.7697         193.807 
       0.981748         180.798         45.1159         192.521 
       0.987916         179.873         44.4708         191.241 
        0.99406         178.394         43.8408         189.972 
        1.00019         177.302         43.2244          188.51 
        1.00632         176.346         42.6205         187.029 
        1.01246         174.861         42.0273         185.544 
        1.01859         173.368         41.4464          185.01 
        1.02471         172.048         40.8773         184.265 
        1.03085         171.059         40.3169         183.042 
        1.03698         169.879         39.7683         182.146 
        1.04314         169.464         39.2277         180.723 
        1.04929         168.336         38.6984         179.555 
        1.05541         167.119         38.1811         178.581 
        1.06154         165.489          37.672         177.525 
        1.06769          164.64         37.1715         176.706 
        1.07382         163.973         36.6817         175.522 
        1.07993         162.282         36.2019         174.449 
        1.08607         161.488         35.7287         173.549 
        1.09222         160.226         35.2636          172.69 
        1.09836         159.532         34.8073         171.804 
        1.10449         158.095         34.3597         170.816 
        1.11063         157.056         33.9195         169.564 
        1.11677         156.347         33.4872         168.455 
         1.1229         155.114         33.0632         167.642 
        1.12903         154.226         32.6462         166.803 
        1.13518         153.024         32.2361         165.814 
        1.14131         152.355         31.8333         164.677 
        1.14745         151.105         31.4377         164.008 
        1.15359         149.719         31.0487         163.004 
        1.15973         149.421         30.6661         162.141 
        1.16584         148.491         30.2918         160.715 
        1.17197         147.633         29.9231         160.364 
        1.17811         146.224         29.5596         159.633 
        1.18424         145.628         29.2031         158.425 
        1.19038         144.725         28.8515         157.947 
        1.19652          143.59         28.5058         157.183 
        1.20267         142.782         28.1659         156.062 
        1.20881         141.684         27.8315          155.37 
        1.21495          141.35         27.5032         154.398 
        1.22108         140.249         27.1802          153.83 
         1.2272           139.2         26.8632         152.484 
        1.23334         138.693         26.5506         152.188 
        1.23949         138.059         26.2422         151.399 
        1.24562          136.94         25.9395         150.172 
        1.25174         136.211         25.6422         149.659 
        1.25789         135.091         25.3486         148.815 
        1.26402         134.885         25.0601         148.029 
        1.27014         133.947         24.7768         147.687 
        1.27628         132.629         24.4971          147.22 
        1.28244         132.232         24.2212         146.001 
        1.28858         131.208         23.9499         145.151 
        1.29471          130.43         23.6834         144.451 
        1.30084          129.57         23.4212         143.647 
        1.30697         128.795         23.1626         143.075 
        1.31312         127.972         22.9076         142.086 
        1.31925         127.062         22.6572         141.453 
        1.32537         126.624         22.4108         141.067 
        1.33151         126.027         22.1672         140.185 
        1.33765         124.841         21.9274         139.497 
        1.34378         124.669         21.6916         138.875 
        1.34992         123.943         21.4591         137.982 
        1.35606         123.089         21.2296         137.229 
         1.3622         122.687         21.0038         136.727 
        1.36833         121.303         20.7819         135.897 
        1.37445          121.19         20.5633         135.269 
        1.38059         120.313         20.3471         134.552 
        1.38675         119.535         20.1336         133.885 
        1.39288         118.694          19.924         132.929 
        1.39901         118.043         19.7175         132.664 
        1.40515         117.608         19.5134         132.271 
         1.4113         116.817         19.3123         131.609 
        1.41742          116.06         19.1148         131.015 
        1.42355          115.83         18.9197          130.43 
         1.4297         114.802         18.7268         129.732 
        1.43585         114.185         18.5366         128.849 
        1.44198         113.185         18.3498         128.406 
        1.44809         112.588          18.166         127.841 
        1.45423         112.385          17.984         127.116 
        1.46036         111.333         17.8048         126.528 
        1.46649         110.764          17.628         126.139 
        1.47263         110.271         17.4535         125.674 
        1.47877         109.413         17.2814         124.786 
        1.48491         109.032         17.1113         124.292 
        1.49104         107.777          16.944         124.022 
        1.49718         107.634         16.7787         122.968 
        1.50333          107.22         16.6154         122.365 
        1.50947         106.528         16.4546         121.962 
         1.5156         105.924         16.2962         121.401 
        1.52172         105.186         16.1398         120.835 
        1.52787         104.719         15.9852         120.262 
          1.534         104.105         15.8328         119.763 
        1.54013         103.575         15.6826         119.274 
        1.54627         102.767         15.5341         118.742 
        1.55241         102.539         15.3874         118.183 
        1.55855         101.742         15.2429         117.599 
        1.56467         101.064         15.1006         117.028 
         1.5708         100.292         14.9597          116.61 
        1.57695           100.1         14.8204         116.122 
        1.58308         99.3819         14.6833         115.483 
        1.58922         99.3302         14.5477         114.957 
        1.59535         98.7902          14.414         114.506 
         1.6015         97.7745         14.2817         113.918 
        1.60764         97.2079         14.1512         113.382 
        1.61376         96.7841         14.0226         113.122 
        1.61989         96.3502         13.8956         112.707 
        1.62604         95.7096         13.7698         111.904 
        1.63218          95.289         13.6457         111.362 
        1.63831         94.6592         13.5234         111.099 
        1.64444         94.0195         13.4026         110.435 
        1.65059         93.5187         13.2829         109.997 
        1.65673         93.2852         13.1649         109.528 
        1.66285         92.7055         13.0486         109.064 
        1.66898         91.9984         12.9337         108.694 
        1.67512         91.5635         12.8199         108.182 
        1.68127         91.1368         12.7074         107.648 
         1.6874         90.3807         12.5965         107.216 
        1.69353         89.9138          12.487         106.844 
        1.69967         89.4972         12.3786         106.293 
        1.70581         89.2085         12.2714         105.792 
        1.71193         88.5337          12.166         105.396 
        1.71806         88.0731         12.0616         104.939 
        1.72421         87.5063         11.9582         104.487 
        1.73035         87.1506         11.8561         103.983 
        1.73649         86.5192         11.7552         103.481 
        1.74262          86.167         11.6556         103.153 
        1.74876          85.605         11.5571          102.71 
        1.75489         85.2132         11.4599         102.173 
        1.76101         84.7019         11.3639         101.705 
        1.76715         84.1834         11.2689         101.341 
        1.77329         83.7763         11.1748         100.909 
        1.77943         83.3838         11.0817         100.447 
        1.78557         82.9602         10.9899         100.071 
        1.79171          82.483         10.8991         99.7112 
        1.79785          81.799         10.8093         99.3185 
        1.80399         81.7597         10.7205         98.8682 
        1.81012         81.0023         10.6328         98.3435 
        1.81625         80.5655         10.5462         97.9271 
        1.82239         80.2004         10.4604         97.6132 
        1.82853         79.7267         10.3756         97.1988 
        1.83466         79.1558         10.2918         96.7399 
        1.84078         78.9535          10.209         96.3596 
        1.84692         78.7103          10.127         96.1023 
        1.85306         78.1639         10.0458         95.6539 
         1.8592         77.7793         9.96564         95.1615 
        1.86533         77.2626         9.88639         94.8368 
        1.87147         76.8806          9.8079         94.3065 
        1.87761         76.2163         9.73024         93.8831 
