# k  (h/Mpc)    P(k)  (Mpc/h)^3    P_linear(k)  (Mpc/h)^3     P_NL(k)  ShotnoiseSubtracted = false
     0.00783031         4399.05         4424.38         4405.06 
       0.013688         5448.94         5537.84         5510.33 
       0.019231         5636.52         5682.64         5649.27 
      0.0249154         5326.08         5317.49         5291.03 
      0.0312784         4627.39         4644.17         4627.12 
      0.0375637         3929.22         3958.39         3945.23 
      0.0433917         3427.02         3425.46         3413.71 
      0.0492413         3012.54         3025.22         3015.16 
      0.0555754         2733.97          2727.6         2717.59 
      0.0619321          2482.6         2524.57         2514.09 
       0.067871         2358.14         2373.65         2362.83 
      0.0738098         2215.61         2223.24         2205.69 
      0.0800417         2043.67         2044.72         2029.47 
      0.0862327         1838.08         1845.62         1839.38 
      0.0921407         1645.75         1649.27         1646.22 
      0.0982031          1472.6         1460.68         1467.88 
       0.104506         1295.33          1295.5         1310.45 
       0.110769         1176.59         1170.73         1181.16 
       0.116806         1107.28         1086.06         1095.38 
       0.122832         1038.58         1028.23         1038.29 
       0.129052         996.799         984.439         992.725 
       0.135211         964.508         944.714         952.696 
       0.141259         910.141         900.343         910.953 
       0.147318          848.01         846.771         863.071 
       0.153489         792.201         784.241         796.488 
       0.159709          738.36         718.416         736.578 
       0.165845         667.002         657.133          684.36 
       0.171974         634.183          604.64         631.163 
       0.178125         595.505         563.185         594.798 
       0.184229         555.647         532.873         563.084 
        0.19034           540.7         510.904         539.227 
       0.196428         523.286         493.779         517.603 
       0.202534         494.641         477.687          502.21 
       0.208729         484.925         459.564         482.797 
       0.214876         466.485         438.426         467.805 
       0.220989         434.081         414.574         446.519 
       0.227147          419.61         389.231         422.295 
        0.23329         398.634         364.669         402.038 
       0.239377         383.133         342.799         381.312 
       0.245482          361.48         324.362         359.978 
       0.251667         344.889         309.447         347.179 
       0.257832         339.599         297.742         333.964 
       0.263955         322.284         288.139           322.9 
       0.270079         311.718         279.336         313.502 
        0.27624         299.389         270.247         303.222 
       0.282372         291.083         260.368         294.616 
        0.28843         287.562         249.731         284.531 
       0.294538         273.136         238.454         274.838 
       0.300721         261.052         227.103         265.377 
        0.30691         255.329         216.415         255.673 
       0.313033         243.503         206.978         245.107 
       0.319153         238.521         198.833         237.351 
       0.325316         230.438         191.862         230.947 
        0.33145         223.855         185.837          222.86 
       0.337538         216.812         180.391          216.67 
       0.343633         210.287         175.087         212.598 
       0.349808         204.265         169.622         207.849 
       0.355968         199.005         163.945         203.351 
       0.362074         194.314         158.164         197.305 
       0.368217         190.056         152.336         190.266 
       0.374374         185.139         146.679         185.205 
       0.380519         177.092         141.403          179.52 
       0.386598         173.265         136.631         175.019 
       0.392688         168.305         132.331         170.647 
        0.39888         164.957         128.378         165.886 
       0.405048         161.327         124.746         162.788 
       0.411186         158.537         121.316         159.344 
       0.417313         154.561         117.959          154.79 
       0.423458         150.711         114.593         151.743 
       0.429607         147.565         111.222         148.427 
       0.435692          144.84         107.897         145.121 
       0.441815         140.697          104.62         142.898 
       0.447964          136.35         101.462         139.134 
       0.454126         133.801         98.4699         135.176 
       0.460267         132.578         95.6778         133.296 
       0.466387          129.39         93.0897         130.083 
        0.47254         127.838         90.6485         127.726 
       0.478662         123.428         88.3374         125.181 
       0.484765         121.586         86.1151         122.017 
       0.490885         118.927         83.9424         120.432 
       0.497035         117.826         81.7925          118.63 
       0.503198          115.18         79.6671         116.147 
       0.509342         112.177         77.5935         114.264 
       0.515458         110.728         75.5909         112.865 
       0.521598         107.981         73.6542         109.856 
       0.527764         106.795         71.7912         107.311 
       0.533884         105.819         70.0298         105.711 
           0.54         102.933         68.3567         104.008 
       0.546137         100.429         66.7505         102.688 
       0.552299         98.9574          65.196         100.351 
       0.558452         97.0729         63.6896         98.5511 
       0.564573          96.588           62.23         97.4944 
       0.570708         93.7436         60.8034         95.9119 
       0.576825         92.7779          59.415         94.1885 
       0.582926         91.6634         58.0638         92.6594 
       0.589034         89.9998         56.7485         91.6474 
       0.595184         88.8127         55.4668         90.0087 
       0.601379         86.6259         54.2232         88.9598 
       0.607522         85.2455         53.0371         86.9737 
       0.613639         84.4266          51.898         86.0164 
       0.619772         82.9202         50.7932         84.5377 
       0.625918         81.9547         49.7191         83.7453 
       0.632068         80.6718         48.6738         82.2306 
       0.638161         79.2168          47.666         81.3693 
         0.6443         78.6542         46.6778         79.9559 
       0.650464         76.9518         45.7123         78.5238 
       0.656582         76.5828         44.7794         77.9073 
       0.662703         75.5003         43.8711         76.5215 
       0.668861         73.8103         42.9826         75.7182 
       0.675024         73.5508         42.1185         74.5184 
       0.681124         72.4728         41.2881          73.527 
       0.687237         71.0291         40.4806         72.5481 
       0.693381         70.4445         39.6929         71.4957 
       0.699536         69.6535          38.926          71.051 
       0.705665         68.5332         38.1834         70.2459 
       0.711789         67.5297          37.461         68.7734 
       0.717957         66.5928         36.7516         68.2846 
        0.72409         66.0138         36.0635         67.7345 
       0.730186         65.5457         35.3964         66.8024 
       0.736317         64.3361          34.742         65.8002 
       0.742472         63.5832         34.1015         65.0829 
       0.748622         62.5879         33.4778         64.2418 
        0.75476         61.8675         32.8715         63.5164 
       0.760888         61.6644         32.2818         62.7199 
       0.767043         60.4169         31.7048          62.338 
       0.773185         59.7372         31.1437         61.7136 
       0.779291         59.0175         30.5998          61.002 
       0.785407         58.1815         30.0683         60.1031 
       0.791564         58.1559         29.5463         59.4593 
       0.797719         57.2234          29.037         59.0474 
       0.803834          56.695         28.5428         58.2122 
       0.809972         56.0811         28.0583         57.6362 
       0.816124         55.4697         27.5838          57.163 
       0.822261         54.6942         27.1216          56.387 
       0.828378         54.4651         26.6714         55.6213 
       0.834502         53.7103          26.231         55.4261 
       0.840667         53.3002         25.7978         54.8582 
       0.846816         52.5544         25.3756         54.2844 
       0.852925         52.1424         24.9656         53.8334 
       0.859047         51.8927          24.564         53.1235 
       0.865192         50.9933         24.1699         52.6921 
       0.871341         50.4387         23.7844         52.1844 
       0.877463         50.0765          23.409         51.7217 
       0.883569         49.8531         23.0429         51.3639 
       0.889708         49.2843         22.6827         50.7697 
       0.895864         48.7789         22.3294         50.2859 
       0.902008         48.2509         21.9843         49.8216 
       0.908149         47.8036         21.6469          49.475 
       0.914301         47.4372          21.316         49.1182 
       0.920448         47.1154         20.9923         48.5464 
       0.926574         46.2855         20.6766         48.0163 
       0.932687         45.9858          20.368         47.7222 
       0.938823         45.5007         20.0647         47.1674 
       0.944975         45.0429         19.7669         46.7512 
       0.951105          44.699         19.4762         46.5174 
       0.957225         44.4574         19.1919         46.0639 
       0.963368         43.9686         18.9124         45.5697 
       0.969511         43.5965         18.6384          45.189 
       0.975621         43.2556         18.3714         45.0137 
       0.981748         42.7745          18.109          44.577 
       0.987916         42.4596           17.85         44.2407 
        0.99406         42.0691         17.5972         43.8675 
        1.00019         41.7422         17.3498          43.491 
        1.00632         41.3977         17.1074         43.1584 
        1.01246         41.0575         16.8692         42.7941 
        1.01859         40.7326         16.6361         42.5195 
        1.02471         40.2881         16.4076         42.2073 
        1.03085         40.1068         16.1827         41.8208 
        1.03698         39.8136         15.9625         41.4762 
        1.04314         39.4868         15.7455         41.0745 
        1.04929         39.0016         15.5331         40.9036 
        1.05541         38.8768         15.3254         40.7451 
        1.06154         38.6223         15.1211         40.2771 
        1.06769         38.0314         14.9202         39.9753 
        1.07382         37.9051         14.7236         39.7281 
        1.07993         37.5925          14.531          39.358 
        1.08607          37.319         14.3411         39.1038 
        1.09222         37.0745         14.1544         38.8894 
        1.09836         36.7249         13.9712         38.6046 
        1.10449         36.5679         13.7916         38.2517 
        1.11063          36.187         13.6149         37.9982 
        1.11677         36.1218         13.4414         37.7233 
         1.1229         35.7335         13.2712          37.478 
        1.12903         35.5021         13.1038         37.2234 
        1.13518         35.3922         12.9392         36.9168 
        1.14131         35.0057         12.7775         36.7178 
        1.14745         34.6489         12.6187         36.4775 
        1.15359         34.3254         12.4626         36.2585 
        1.15973         34.2034          12.309         36.0262 
        1.16584         33.9623         12.1588         35.7357 
        1.17197          33.541         12.0108          35.523 
        1.17811         33.4227         11.8649         35.1743 
        1.18424         33.0041         11.7218         34.9866 
        1.19038         32.9177         11.5806         34.9026 
        1.19652         32.6938         11.4419         34.5542 
        1.20267         32.5217         11.3054         34.4113 
        1.20881         32.2649         11.1713         34.1609 
        1.21495         32.1106         11.0395         34.0314 
        1.22108         31.9978         10.9098         33.7253 
         1.2272         31.7182         10.7826         33.5818 
        1.23334         31.5049         10.6571         33.3523 
        1.23949         31.2625         10.5333         33.0674 
        1.24562         30.9778         10.4118         32.9188 
        1.25174         30.8173         10.2925         32.7359 
        1.25789         30.7369         10.1746         32.5103 
        1.26402         30.5141         10.0588         32.2919 
        1.27014         30.3079         9.94513         32.1398 
        1.27628         30.0146         9.83285         31.9136 
        1.28244         29.9787          9.7221          31.819 
        1.28858         29.6888         9.61321         31.5762 
        1.29471         29.4892         9.50624         31.4028 
        1.30084         29.2839           9.401         31.2064 
        1.30697         29.1572          9.2972         30.9748 
        1.31312          28.902         9.19483         30.8518 
        1.31925         28.7075         9.09432         30.6676 
        1.32537         28.5304         8.99542         30.5136 
        1.33151         28.3348         8.89765         30.3588 
        1.33765          28.279         8.80139         30.1833 
        1.34378         28.1178         8.70675         30.0069 
        1.34992          27.888         8.61344         29.8665 
        1.35606         27.7269         8.52131         29.7206 
         1.3622         27.5258         8.43068         29.5635 
        1.36833         27.4269          8.3416         29.4051 
        1.37445         27.2142         8.25385         29.1882 
        1.38059         27.0648          8.1671         29.0725 
        1.38675          26.847         8.08139         28.9361 
        1.39288         26.7397         7.99726         28.7747 
        1.39901         26.5507         7.91436         28.6281 
        1.40515         26.4352         7.83245         28.4426 
         1.4113         26.3612         7.75173         28.2773 
        1.41742         26.1933         7.67247         28.1765 
        1.42355         25.9497         7.59416          27.999 
         1.4297          25.806         7.51672         27.8222 
        1.43585         25.6415         7.44039         27.7359 
        1.44198         25.5458         7.36541         27.5842 
        1.44809          25.392         7.29161         27.4453 
        1.45423         25.2724         7.21855         27.2508 
        1.46036          25.131         7.14663         27.1223 
        1.46649         24.9729         7.07567         27.0264 
        1.47263         24.8011         7.00561          26.918 
        1.47877         24.7147         6.93654         26.8008 
        1.48491         24.5903         6.86829         26.6126 
        1.49104         24.3994         6.80111          26.488 
        1.49718         24.3428         6.73477         26.3666 
        1.50333         24.2358         6.66922         26.2632 
        1.50947         24.0474         6.60468         26.1585 
         1.5156         23.9236         6.54109         26.0186 
        1.52172         23.7564         6.47833         25.8566 
        1.52787         23.6583         6.41628         25.7283 
          1.534         23.5492         6.35512          25.626 
        1.54013         23.4734         6.29481         25.4868 
        1.54627         23.2546         6.23519         25.3434 
        1.55241         23.1462         6.17632         25.2364 
        1.55855         23.0623         6.11831         25.1472 
        1.56467         22.9799          6.0612         25.0388 
         1.5708         22.8256         6.00465         24.9123 
        1.57695         22.7278         5.94875         24.7719 
        1.58308         22.5081         5.89369         24.6579 
        1.58922           22.41         5.83929         24.5834 
        1.59535         22.3256          5.7856          24.475 
         1.6015         22.2143         5.73251         24.3418 
        1.60764         22.1161         5.68011         24.2109 
        1.61376         22.0068         5.62852          24.101 
        1.61989         21.8251         5.57752         24.0207 
        1.62604         21.7528         5.52705         23.9555 
        1.63218         21.6655         5.47723         23.8633 
        1.63831          21.538         5.42814         23.7444 
        1.64444         21.4276         5.37964         23.6367 
        1.65059         21.3197         5.33162         23.5139 
        1.65673         21.2394         5.28423         23.4054 
        1.66285         21.1165         5.23755          23.318 
        1.66898         21.0207         5.19142         23.2248 
        1.67512         20.9673         5.14576         23.1013 
        1.68127         20.8477         5.10061         23.0167 
         1.6874         20.7425          5.0561         22.9171 
        1.69353         20.5948         5.01214         22.7444 
        1.69967         20.5107         4.96861         22.6778 
        1.70581         20.3969         4.92561         22.6298 
        1.71193         20.2631         4.88329         22.5382 
        1.71806         20.2164         4.84137         22.4343 
        1.72421         20.1445         4.79987         22.3363 
        1.73035         20.0061         4.75889         22.2563 
        1.73649         19.9136         4.71841         22.1693 
        1.74262         19.7976         4.67843         22.0329 
        1.74876         19.7151         4.63889         21.9385 
        1.75489         19.6414         4.59989          21.878 
        1.76101         19.5293         4.56134         21.8001 
        1.76715         19.4669         4.52319         21.6895 
        1.77329         19.3345         4.48543         21.5808 
        1.77943         19.2772         4.44808         21.4987 
        1.78557         19.1881         4.41122         21.4332 
        1.79171         19.0712         4.37476         21.3453 
        1.79785         18.9912         4.33871         21.2624 
        1.80399         18.8911         4.30308         21.2071 
        1.81012         18.8479         4.26789         21.0925 
        1.81625         18.7121         4.23312         20.9924 
        1.82239         18.6293         4.19868         20.9396 
        1.82853         18.5491         4.16463         20.8578 
        1.83466          18.449           4.131         20.7745 
        1.84078         18.3895         4.09778         20.7003 
        1.84692          18.342         4.06487         20.6153 
        1.85306         18.2187         4.03228         20.5308 
         1.8592          18.178         4.00009         20.4532 
        1.86533         18.0047         3.96828          20.374 
        1.87147         17.9382         3.93678         20.2883 
        1.87761         17.8813         3.90561         20.2101 
