# k  (h/Mpc)    P(k)  (Mpc/h)^3    P_linear(k)  (Mpc/h)^3     P_NL(k)  ShotnoiseSubtracted = false
     0.00783031         3205.01         3224.44          3210.4 
       0.013688         3978.51          4036.7         4017.42 
       0.019231          4113.5         4142.51         4119.55 
      0.0249154         3881.77         3876.45          3859.3 
      0.0312784         3376.59         3385.66         3376.24 
      0.0375637          2869.2         2885.75         2879.01 
      0.0433917         2500.21         2497.25         2491.86 
      0.0492413         2199.11         2205.48         2201.11 
      0.0555754         1994.53         1988.51         1983.74 
      0.0619321         1815.62          1840.5         1835.29 
       0.067871         1722.54         1730.48         1724.72 
      0.0738098         1617.31         1620.82         1611.35 
      0.0800417         1491.58         1490.68         1482.51 
      0.0862327         1341.95         1345.53         1342.35 
      0.0921407         1200.61         1202.38         1201.13 
      0.0982031         1072.56         1064.89          1069.3 
       0.104506         943.918          944.47         953.112 
       0.110769         856.456         853.508         859.616 
       0.116806         804.351         791.786         797.174 
       0.122832         755.042         749.625         755.374 
       0.129052         725.051         717.698         722.386 
       0.135211         700.354         688.737         693.285 
       0.141259          661.93         656.389         662.332 
       0.147318         617.358         617.333         626.522 
       0.153489         575.964         571.746         578.682 
       0.159709          534.77         523.757         533.954 
       0.165845         483.484         479.079          494.33 
       0.171974         457.537         440.809         455.548 
       0.178125          428.44         410.587         428.115 
       0.184229         400.867         388.488         405.325 
        0.19034         389.261         372.472         388.198 
       0.196428         376.303         359.986         373.065 
       0.202534         356.725         348.255         361.706 
       0.208729         348.807         335.043         347.942 
       0.214876         335.532         319.632         336.011 
       0.220989         312.223         302.243         320.003 
       0.227147         300.861         283.767          302.03 
        0.23329         285.083          265.86         286.577 
       0.239377         272.566         249.916         271.379 
       0.245482         257.182         236.475         256.209 
       0.251667         244.964           225.6         246.551 
       0.257832         240.595         217.068         237.167 
       0.263955         228.797         210.066         229.265 
       0.270079         221.361         203.648         222.443 
        0.27624          212.66         197.022         215.079 
       0.282372         206.286          189.82         208.708 
        0.28843         203.081         182.065         201.292 
       0.294538          193.15         173.843         193.931 
       0.300721          183.96         165.568         186.785 
        0.30691         179.398         157.777         179.458 
       0.313033         171.158         150.896         171.935 
       0.319153         167.504         144.958         166.317 
       0.325316         160.901         139.876         161.567 
        0.33145         156.017         135.484         156.019 
       0.337538         151.397         131.513         151.536 
       0.343633         147.025         127.646         148.185 
       0.349808         142.594         123.662         144.652 
       0.355968          138.52         119.524         141.391 
       0.362074         135.476         115.309         136.917 
       0.368217         131.838          111.06         131.852 
       0.374374         128.408         106.936         128.215 
       0.380519         122.693         103.089         124.065 
       0.386598         119.567         99.6102          120.69 
       0.392688         115.985         96.4753         117.624 
        0.39888         113.791         93.5932         114.203 
       0.405048         111.174         90.9452         111.648 
       0.411186         108.741         88.4446         109.506 
       0.417313         105.827         85.9971          106.26 
       0.423458         103.118         83.5432         104.037 
       0.429607          101.12         81.0858         101.502 
       0.435692         99.2598         78.6619          99.191 
       0.441815         95.8653         76.2724         97.4332 
       0.447964         92.8316         73.9701         94.6748 
       0.454126         91.0879          71.789         92.0046 
       0.460267         90.2331         69.7534         90.4706 
       0.466387         87.8533         67.8666         88.1567 
        0.47254         86.7155         66.0869         86.5039 
       0.478662         83.7214          64.402         84.6575 
       0.484765         82.2596         62.7818         82.5328 
       0.490885         80.1616         61.1978         81.3912 
       0.497035         79.3013         59.6304         80.0262 
       0.503198         77.3672         58.0809         78.1032 
       0.509342         75.3308         56.5692         76.7517 
       0.515458         74.3307         55.1092         75.7199 
       0.521598         72.4838         53.6972         73.5609 
       0.527764         71.5875          52.339         71.7204 
       0.533884          70.542         51.0549         70.5235 
           0.54         68.7622         49.8351         69.3111 
       0.546137         66.8868         48.6641         68.3433 
       0.552299         65.8037         47.5308         66.7095 
       0.558452         64.4812         46.4326         65.4278 
       0.564573         64.0719         45.3684         64.6524 
       0.570708         62.1505         44.3284         63.5232 
       0.576825         61.5102         43.3162         62.3735 
       0.582926         60.6259         42.3311         61.2984 
       0.589034         59.4399         41.3722         60.5155 
       0.595184         58.5941         40.4378          59.316 
       0.601379         57.0654         39.5311         58.5364 
       0.607522         56.1754         38.6664         57.1815 
       0.613639         55.5183          37.836         56.4224 
       0.619772         54.4719         37.0306         55.4734 
       0.625918         53.5967         36.2474         54.8752 
       0.632068         53.0191         35.4854          53.796 
       0.638161         51.9249         34.7507         53.0731 
         0.6443         51.3592         34.0302         52.1066 
       0.650464          50.154         33.3263          51.304 
       0.656582           49.86         32.6462         50.7223 
       0.662703         49.1815          31.984         49.7705 
       0.668861         47.9946         31.3362         49.2252 
       0.675024          47.614         30.7063         48.3414 
       0.681124         47.0869         30.1009         47.6345 
       0.687237         46.1223         29.5122         46.9384 
       0.693381         45.4887         28.9379          46.218 
       0.699536         45.1155         28.3788         45.8605 
       0.705665         44.3094         27.8375         45.2614 
       0.711789         43.5922         27.3107         44.3085 
       0.717957         42.8424         26.7936         43.9449 
        0.72409         42.4381         26.2919         43.4704 
       0.730186         42.1761         25.8056         42.8097 
       0.736317         41.3572         25.3285         42.1801 
       0.742472         40.8696         24.8615         41.7058 
       0.748622         40.2049         24.4068          41.076 
        0.75476          39.423         23.9648          40.612 
       0.760888         39.3441         23.5349         40.1254 
       0.767043         38.5886         23.1143         39.7477 
       0.773185         38.2006         22.7052         39.2406 
       0.779291         37.6998         22.3086         38.8091 
       0.785407         37.1333         21.9212         38.2323 
       0.791564         37.0449         21.5406         37.7728 
       0.797719         36.3005         21.1693         37.4291 
       0.803834         36.0612          20.809         36.8896 
       0.809972          35.491         20.4558         36.5025 
       0.816124         35.1206         20.1099         36.0884 
       0.822261         34.6813         19.7729         35.5868 
       0.828378         34.4243         19.4447         35.1166 
       0.834502         34.0085         19.1236         34.9513 
       0.840667         33.6863         18.8077         34.4697 
       0.846816         33.0383            18.5         34.1101 
       0.852925         32.9065         18.2011         33.9027 
       0.859047         32.6181         17.9083         33.3693 
       0.865192          32.098          17.621          33.014 
       0.871341         31.7246         17.3399         32.7361 
       0.877463         31.4271         17.0663         32.3778 
       0.883569         31.2551         16.7993         32.1081 
       0.889708         30.8234         16.5367         31.6886 
       0.895864         30.4473         16.2791         31.3346 
       0.902008         30.1011         16.0276         31.0634 
       0.908149         29.8106         15.7815         30.8237 
       0.914301         29.6049         15.5403         30.5893 
       0.920448         29.2345         15.3043         30.1703 
       0.926574         28.8623         15.0741         29.8291 
       0.932687         28.5942         14.8492         29.5664 
       0.938823         28.2353         14.6281         29.2476 
       0.944975         28.0086         14.4109         28.9602 
       0.951105          27.757          14.199         28.6974 
       0.957225         27.5764         13.9918         28.4471 
       0.963368         27.1773          13.788         28.1487 
       0.969511         26.9568         13.5883         27.8799 
       0.975621          26.721         13.3936         27.6795 
       0.981748         26.3965         13.2023         27.4517 
       0.987916         26.2345         13.0135         27.1415 
        0.99406         25.8991         12.8292         26.9205 
        1.00019         25.7426         12.6488         26.6692 
        1.00632         25.5056          12.472         26.4725 
        1.01246         25.2883         12.2984         26.2751 
        1.01859         24.9924         12.1285          26.037 
        1.02471         24.7627         11.9619         25.7844 
        1.03085         24.6545         11.7979         25.5548 
        1.03698         24.4408         11.6374         25.3312 
        1.04314         24.1688         11.4792         25.0651 
        1.04929         23.8788         11.3243         24.9335 
        1.05541          23.789         11.1729         24.8057 
        1.06154         23.6174          11.024         24.4774 
        1.06769         23.2818         10.8775         24.2568 
        1.07382          23.108         10.7342         24.1246 
        1.07993         22.9026         10.5938         23.8884 
        1.08607         22.7611         10.4553         23.7152 
        1.09222         22.5413         10.3192         23.5786 
        1.09836         22.3418         10.1857           23.36 
        1.10449         22.2122         10.0547         23.1365 
        1.11063          22.025         9.92587         22.9994 
        1.11677         21.9334         9.79936         22.7866 
         1.1229          21.698         9.67529          22.623 
        1.12903         21.5102         9.55327         22.4571 
        1.13518         21.3742         9.43326         22.2337 
        1.14131          21.209         9.31539         22.0923 
        1.14745         20.9382         9.19961         21.9544 
        1.15359         20.7449         9.08578         21.7725 
        1.15973         20.6154         8.97384         21.6324 
        1.16584         20.4569         8.86429         21.4835 
        1.17197         20.2336         8.75642         21.3555 
        1.17811         20.1362         8.65002          21.083 
        1.18424         19.9458          8.5457         20.9919 
        1.19038         19.8611         8.44282         20.8876 
        1.19652         19.6519         8.34167          20.675 
        1.20267         19.5593         8.24218         20.5511 
        1.20881          19.365         8.14435         20.4291 
        1.21495         19.2469         8.04827         20.3035 
        1.22108         19.1886         7.95375         20.1322 
         1.2272         19.0242         7.86099         19.9971 
        1.23334         18.8835          7.7695         19.8919 
        1.23949         18.7178         7.67925         19.7053 
        1.24562         18.5217         7.59069         19.5807 
        1.25174         18.4596         7.50367         19.4655 
        1.25789         18.3354         7.41775         19.3243 
        1.26402         18.2277         7.33334          19.175 
        1.27014         18.1091         7.25045         19.0688 
        1.27628         17.9082          7.1686         18.9137 
        1.28244         17.8966         7.08785         18.8604 
        1.28858          17.693         7.00847         18.6932 
        1.29471          17.511         6.93048          18.566 
        1.30084         17.4101         6.85376         18.5052 
        1.30697         17.3478         6.77808         18.3456 
        1.31312         17.1893         6.70345         18.2149 
        1.31925         17.0954         6.63017         18.1404 
        1.32537         16.9521         6.55807          18.042 
        1.33151          16.842         6.48679         17.9114 
        1.33765         16.7827         6.41661         17.7963 
        1.34378         16.6784         6.34762         17.6898 
        1.34992         16.5392         6.27959         17.5973 
        1.35606         16.3994         6.21242         17.4647 
         1.3622         16.2777         6.14635          17.364 
        1.36833         16.2432         6.08141         17.2932 
        1.37445         16.1351         6.01743         17.1467 
        1.38059         16.0177         5.95419         17.0263 
        1.38675         15.9084          5.8917         16.9636 
        1.39288         15.7791         5.83036         16.8481 
        1.39901         15.6978         5.76993         16.7575 
        1.40515         15.6008         5.71021         16.6617 
         1.4113         15.5076         5.65137         16.5699 
        1.41742          15.434         5.59358         16.4862 
        1.42355         15.2902         5.53649         16.3592 
         1.4297         15.2063         5.48003         16.2734 
        1.43585         15.1237         5.42438         16.2131 
        1.44198         15.0595         5.36972         16.1125 
        1.44809         14.9525         5.31592         16.0349 
        1.45423         14.8557         5.26265         15.9191 
        1.46036         14.7643         5.21022          15.818 
        1.46649         14.6689         5.15848         15.7471 
        1.47263         14.5977         5.10741         15.6896 
        1.47877         14.5181         5.05705         15.6114 
        1.48491         14.4237          5.0073           15.47 
        1.49104         14.3276         4.95832         15.4057 
        1.49718         14.2672         4.90996         15.3464 
        1.50333          14.196         4.86217         15.2611 
        1.50947         14.1058         4.81511         15.1885 
         1.5156         14.0353         4.76875         15.1074 
        1.52172         13.9255           4.723         15.0027 
        1.52787         13.8731         4.67776         14.9238 
          1.534         13.8049         4.63317         14.8506 
        1.54013         13.7312         4.58921         14.7441 
        1.54627         13.6128         4.54573         14.6617 
        1.55241          13.519         4.50282         14.6112 
        1.55855          13.478         4.46052          14.541 
        1.56467          13.423         4.41889         14.4665 
         1.5708         13.3561         4.37767         14.4066 
        1.57695         13.2663         4.33691         14.3327 
        1.58308         13.1618         4.29677           14.26 
        1.58922         13.1162         4.25711         14.2094 
        1.59535         13.0399         4.21796         14.1332 
         1.6015         12.9249         4.17926         14.0546 
        1.60764         12.8793         4.14106         13.9734 
        1.61376         12.8387         4.10345         13.8942 
        1.61989         12.7318         4.06627         13.8518 
        1.62604         12.7003         4.02947         13.8051 
        1.63218         12.6373         3.99315          13.732 
        1.63831         12.5358         3.95736         13.6583 
        1.64444          12.463           3.922         13.6033 
        1.65059         12.3956         3.88699         13.5185 
        1.65673         12.3643         3.85244         13.4638 
        1.66285         12.2588         3.81841         13.4112 
        1.66898          12.242         3.78478          13.323 
        1.67512          12.191         3.75149         13.2556 
        1.68127           12.08         3.71857         13.1987 
         1.6874          12.057         3.68612         13.1358 
        1.69353         11.9365         3.65408          13.069 
        1.69967         11.8991         3.62234         13.0236 
        1.70581         11.8497           3.591         12.9776 
        1.71193         11.7814         3.56014         12.9175 
        1.71806         11.7368         3.52958         12.8541 
        1.72421         11.6647         3.49932          12.807 
        1.73035         11.6077         3.46945          12.749 
        1.73649         11.5745         3.43994         12.6771 
        1.74262         11.4588         3.41079         12.6258 
        1.74876         11.4491         3.38196         12.5657 
        1.75489         11.3936         3.35353         12.4968 
        1.76101         11.3076         3.32543         12.4397 
        1.76715          11.277         3.29761         12.4049 
        1.77329         11.2097         3.27008         12.3421 
        1.77943         11.1362         3.24285         12.2781 
        1.78557         11.1245         3.21598         12.2475 
        1.79171         11.0456          3.1894         12.1893 
        1.79785         11.0118         3.16312         12.1226 
        1.80399         10.9333         3.13714         12.0864 
        1.81012         10.9021         3.11149         12.0317 
        1.81625         10.8248         3.08613         11.9855 
        1.82239         10.7796         3.06103         11.9521 
        1.82853         10.7198         3.03621         11.8884 
        1.83466          10.651         3.01169         11.8327 
        1.84078         10.6278         2.98747         11.7907 
        1.84692         10.6033         2.96347         11.7326 
        1.85306         10.5404         2.93971         11.6817 
         1.8592          10.498         2.91625         11.6403 
        1.86533         10.4174         2.89306          11.591 
        1.87147         10.3739         2.87009         11.5422 
        1.87761         10.3376         2.84736         11.5024 
