# k  (h/Mpc)    Pcb(k)  (Mpc/h)^3    Pcb_linear(k) (Mpc/h)^3    Pcb_NL(k) (Mpc/h)^3   ShotnoiseSubtracted = false
     0.00783031         7973.25         8013.94         7977.82 
       0.013688         9825.26         10025.8         9970.04 
       0.019231         10173.5         10286.4           10216 
      0.0249154         9641.56         9624.72         9560.72 
      0.0312784         8351.85         8405.61          8352.3 
      0.0375637         7079.99          7164.2         7119.44 
      0.0433917         6186.84         6199.55         6154.95 
      0.0492413         5431.82         5475.12         5434.99 
      0.0555754         4934.08         4936.43         4899.52 
      0.0619321          4456.1         4568.97         4531.86 
       0.067871         4241.86          4295.8         4260.11 
      0.0738098         3992.85         4023.57         3967.09 
      0.0800417         3682.49         3700.48         3650.83 
      0.0862327         3310.67         3340.15         3317.79 
      0.0921407         2971.12         2984.79         2971.07 
      0.0982031         2668.88         2643.48         2660.77 
       0.104506         2346.96         2344.54         2385.62 
       0.110769         2137.84         2118.73          2147.1 
       0.116806         2019.88         1965.51         1991.12 
       0.122832         1893.39         1860.85         1888.69 
       0.129052         1812.37         1781.59         1804.81 
       0.135211          1761.2          1709.7         1731.28 
       0.141259         1655.46          1629.4         1659.62 
       0.147318         1540.74         1532.44         1577.97 
       0.153489         1443.69         1419.28         1453.83 
       0.159709         1358.16         1300.15         1352.41 
       0.165845         1226.92         1189.24         1267.35 
       0.171974          1176.8         1094.25         1172.14 
       0.178125         1113.82         1019.22         1112.03 
       0.184229         1032.44         964.363         1051.79 
        0.19034          1009.8         924.605         1007.34 
       0.196428         979.905         893.612         965.558 
       0.202534         922.233         864.491         938.388 
       0.208729         907.884         831.692         900.135 
       0.214876         872.029         793.438         878.331 
       0.220989         814.944         750.272         843.285 
       0.227147         791.136         704.408         802.408 
        0.23329         755.181         659.956         769.283 
       0.239377          735.38         620.377         731.675 
       0.245482         694.621         587.014         691.709 
       0.251667         665.645         560.021         670.075 
       0.257832         657.028         538.837         644.754 
       0.263955         623.105         521.457         624.116 
       0.270079         603.117         505.524         607.173 
        0.27624          578.85         489.075         588.485 
       0.282372         566.288         471.199         573.537 
        0.28843         561.158         451.947         556.112 
       0.294538         531.893         431.539         539.723 
       0.300721         513.735         410.997         522.876 
        0.30691         504.008         391.655         507.591 
       0.313033           480.7         374.575         487.611 
       0.319153         471.872         359.838         472.751 
       0.325316         461.798          347.22         461.507 
        0.33145         450.763         336.317         444.887 
       0.337538          434.96          326.46         434.341 
       0.343633         421.918         316.862         429.189 
       0.349808         411.365         306.969         420.861 
       0.355968         402.902         296.699         412.651 
       0.362074          390.51         286.236         402.105 
       0.368217         386.551         275.688         389.025 
       0.374374         377.841         265.453         379.575 
       0.380519         362.387         255.903         369.287 
       0.386598         357.339         247.267         362.644 
       0.392688         348.472         239.485         352.591 
        0.39888         339.785          232.33         345.127 
       0.405048         333.239         225.757         340.453 
       0.411186         330.851         219.549         331.679 
       0.417313         324.802         213.474         323.965 
       0.423458         316.095         207.383         318.661 
       0.429607         308.077         201.281         312.518 
       0.435692          302.56         195.266         305.785 
       0.441815         297.148         189.334         302.453 
       0.447964         289.231         183.619         296.048 
       0.454126         285.054         178.204          287.73 
       0.460267         281.131         173.153         285.226 
       0.466387         275.604         168.467         279.251 
        0.47254          271.99          164.05         274.708 
       0.478662         264.435         159.867         269.501 
       0.484765         261.262         155.846         263.378 
       0.490885         257.794         151.914         260.161 
       0.497035         253.733         148.023         256.896 
       0.503198         251.458         144.177         252.767 
       0.509342         244.778         140.424         249.404 
       0.515458         241.572           136.8         246.736 
       0.521598         236.275         133.295         241.371 
       0.527764         233.618         129.923         237.608 
       0.533884         232.649         126.736         234.423 
           0.54         227.562         123.708         230.682 
       0.546137         222.479         120.801         228.081 
       0.552299         220.946         117.987         223.899 
       0.558452         217.048         115.261         220.923 
       0.564573         215.533          112.62          218.96 
       0.570708         210.843         110.038         216.245 
       0.576825         207.849         107.525         211.981 
       0.582926         205.747          105.08         209.433 
       0.589034         202.674           102.7         207.309 
       0.595184         200.994          100.38         203.431 
       0.601379         197.149         98.1298         202.165 
       0.607522         193.402          95.983         199.015 
       0.613639         192.022         93.9218         197.075 
       0.619772         190.198         91.9224         194.665 
       0.625918         188.275         89.9783         192.361 
       0.632068         184.299         88.0868         189.313 
       0.638161         182.587          86.263         188.296 
         0.6443         181.421         84.4746         185.887 
       0.650464         177.966         82.7272         182.407 
       0.656582         176.784         81.0389         181.053 
       0.662703         175.013         79.3951         179.113 
       0.668861         171.566         77.7871         177.167 
       0.675024         171.427         76.2233         174.906 
       0.681124         168.884         74.7207         173.111 
       0.687237         166.798         73.2593         171.084 
       0.693381          165.08         71.8336         169.082 
       0.699536         163.279         70.4459         167.581 
       0.705665         161.371          69.102         166.636 
       0.711789         159.431         67.7944         164.167 
       0.717957         157.646         66.5107          162.59 
        0.72409         156.192         65.2655         161.713 
       0.730186         156.135         64.0581         160.109 
       0.736317         153.516         62.8738         157.977 
       0.742472         151.396         61.7147         156.547 
       0.748622         149.096          60.586         154.726 
        0.75476          149.64         59.4888         153.399 
       0.760888         147.854         58.4215         151.409 
       0.767043         145.348         57.3774         150.585 
       0.773185         143.876          56.362         149.641 
       0.779291         142.194         55.3776         147.955 
       0.785407         141.088         54.4158          146.21 
       0.791564         140.059         53.4711         145.261 
       0.797719         138.173         52.5493         144.416 
       0.803834         138.014          51.655         142.611 
       0.809972         136.873         50.7781         141.447 
       0.816124          134.84         49.9195         140.493 
       0.822261         133.557          49.083         139.111 
       0.828378          133.32         48.2682         137.435 
       0.834502           131.3         47.4712         136.644 
       0.840667         130.756         46.6871         135.936 
       0.846816         129.371         45.9231         134.563 
       0.852925         128.062         45.1812         133.407 
       0.859047         126.944         44.4543         132.326 
       0.865192         126.086         43.7412         131.385 
       0.871341         124.746         43.0434         130.064 
       0.877463         123.819         42.3642         129.323 
       0.883569         123.572         41.7015         128.486 
       0.889708         122.379         41.0497         127.414 
       0.895864         121.221         40.4102         126.709 
       0.902008         119.964         39.7859         125.301 
       0.908149         118.506         39.1751         124.286 
       0.914301         118.433         38.5763         123.594 
       0.920448         118.007         37.9906         122.755 
       0.926574         115.788         37.4191         121.431 
       0.932687         115.627         36.8607         120.567 
       0.938823         114.723         36.3118         119.873 
       0.944975         113.517         35.7728         119.054 
       0.951105         112.522         35.2468         118.068 
       0.957225          112.32         34.7323          117.31 
       0.963368         111.042         34.2264         116.073 
       0.969511          110.21         33.7306         115.425 
       0.975621         109.169         33.2474         115.541 
       0.981748         108.363         32.7725          114.33 
       0.987916         107.682         32.3039         113.664 
        0.99406         107.249         31.8463         112.661 
        1.00019         106.083         31.3985         111.707 
        1.00632         105.337         30.9598         110.983 
        1.01246         104.632         30.5289         110.057 
        1.01859         104.105         30.1069         109.745 
        1.02471         103.306         29.6935         109.334 
        1.03085         102.344         29.2865         108.366 
        1.03698         101.613          28.888         107.459 
        1.04314         100.963         28.4953         106.898 
        1.04929         100.503         28.1108          106.42 
        1.05541         99.7597          27.735         105.851 
        1.06154         99.0678         27.3652         105.234 
        1.06769         98.3149         27.0016         104.569 
        1.07382         97.5403         26.6458         103.912 
        1.07993         97.0994         26.2973         103.232 
        1.08607         96.3226         25.9536         102.645 
        1.09222          95.881         25.6157         101.937 
        1.09836         94.9482         25.2843         101.193 
        1.10449         94.4074         24.9591         100.664 
        1.11063         93.7672         24.6393         99.7763 
        1.11677         93.1387         24.3253         99.2775 
         1.1229         92.4396         24.0173         98.9697 
        1.12903         92.0612         23.7144         98.2188 
        1.13518         91.4572         23.4165         97.6658 
        1.14131         90.8028         23.1239         97.0065 
        1.14745         90.3069         22.8365         96.5679 
        1.15359         89.2301          22.554         95.8818 
        1.15973         89.0791         22.2761         95.6964 
        1.16584         88.4721         22.0041         94.7864 
        1.17197          87.941         21.7364         94.4457 
        1.17811         87.2226         21.4723         93.9162 
        1.18424         86.6082         21.2133         93.4553 
        1.19038         86.4645         20.9579         92.8758 
        1.19652         85.7885         20.7068         92.2734 
        1.20267         85.1482         20.4599         91.8125 
        1.20881         84.6291          20.217         91.3462 
        1.21495         84.1448         19.9785         90.6643 
        1.22108         83.7917         19.7439         90.4478 
         1.2272         82.9753         19.5136         89.8291 
        1.23334         82.7779         19.2865         89.4904 
        1.23949         82.2061         19.0625         88.7412 
        1.24562         81.4926         18.8427         88.3412 
        1.25174         81.0569         18.6266         87.9472 
        1.25789         80.8823         18.4134         87.4599 
        1.26402         80.3033         18.2038         87.0406 
        1.27014         79.8635         17.9981         86.8841 
        1.27628         79.1245         17.7949         86.3996 
        1.28244         79.0251         17.5944           85.55 
        1.28858         78.3322         17.3974         85.1294 
        1.29471         77.8569         17.2038         84.9009 
        1.30084         77.2347         17.0133         84.2542 
        1.30697         77.2138         16.8255         83.9292 
        1.31312         76.5909         16.6402         83.5829 
        1.31925         76.0881         16.4583         83.0765 
        1.32537          75.687         16.2793         82.7129 
        1.33151         75.4396         16.1024         82.2489 
        1.33765         74.8595         15.9282         81.8814 
        1.34378         74.5238         15.7569          81.465 
        1.34992         74.1868         15.5881         81.0844 
        1.35606         73.6201         15.4213         80.6316 
         1.3622         73.3854         15.2573         80.2701 
        1.36833          72.769         15.0961         79.7976 
        1.37445         72.2618         14.9373         79.3989 
        1.38059         72.0416         14.7803         79.1767 
        1.38675         71.3022         14.6252         78.5726 
        1.39288         71.2604         14.4729         78.3713 
        1.39901         70.5868         14.3229         77.9937 
        1.40515          70.328         14.1747         77.7169 
         1.4113         70.0501         14.0286          77.404 
        1.41742         69.5265         13.8851         76.8344 
        1.42355         69.2853         13.7434         76.4014 
         1.4297         68.8451         13.6033         76.0906 
        1.43585         68.3875         13.4651          75.771 
        1.44198         68.0455         13.3294         75.5179 
        1.44809         67.5319         13.1959         74.9743 
        1.45423         67.3202         13.0637         74.6659 
        1.46036         66.8443         12.9335         74.4028 
        1.46649         66.5197         12.8051         74.1489 
        1.47263         66.2275         12.6783         73.8113 
        1.47877         65.9212         12.5533         73.2498 
        1.48491         65.4844         12.4298         73.0872 
        1.49104         64.9747         12.3082         72.7046 
        1.49718         64.7631         12.1882         72.3514 
        1.50333          64.444         12.0695         71.9807 
        1.50947         64.1674         11.9527         71.6383 
         1.5156         63.9132         11.8376         71.3764 
        1.52172         63.3565         11.7241         71.1134 
        1.52787         62.9788         11.6118         70.7739 
          1.534         62.6984         11.5011         70.4743 
        1.54013         62.5369         11.3919         70.1013 
        1.54627         61.9299          11.284         69.7926 
        1.55241         61.6816         11.1775         69.5339 
        1.55855         61.3785         11.0725         69.1139 
        1.56467         60.8536         10.9692         68.8532 
         1.5708         60.7507         10.8668         68.6411 
        1.57695         60.3729         10.7657         68.3664 
        1.58308         60.0854          10.666         68.0791 
        1.58922         59.7784         10.5676         67.7246 
        1.59535         59.6141         10.4704         67.4055 
         1.6015         59.4065         10.3743         67.0709 
        1.60764         58.9796         10.2795         66.8682 
        1.61376         58.6167         10.1861         66.7404 
        1.61989         58.1703         10.0938         66.3496 
        1.62604         57.9837         10.0025          65.939 
        1.63218         57.6931         9.91234         65.6614 
        1.63831         57.4769          9.8235         65.4927 
        1.64444         57.2221         9.73572         65.2078 
        1.65059          56.823         9.64881         64.7805 
        1.65673         56.4426         9.56306         64.5765 
        1.66285         56.1992         9.47858          64.413 
        1.66898         55.7775          9.3951          64.075 
        1.67512         55.6405         9.31247         63.8652 
        1.68127         55.4085         9.23075         63.5353 
         1.6874          55.052          9.1502         63.1743 
        1.69353         54.7889         9.07065         63.0227 
        1.69967          54.571         8.99187         62.8181 
        1.70581         54.2091         8.91406         62.5335 
        1.71193         53.9537         8.83746         62.2595 
        1.71806         53.6515          8.7616          62.053 
        1.72421         53.4548         8.68649         61.7588 
        1.73035         53.1994         8.61234         61.5134 
        1.73649         52.8136         8.53907         61.3313 
        1.74262         52.4275         8.46672           61.01 
        1.74876         52.4315         8.39516         60.7176 
        1.75489         52.0023         8.32457         60.5007 
        1.76101         51.7554         8.25482          60.277 
        1.76715         51.6726         8.18578         59.9692 
        1.77329         51.1509         8.11744          59.747 
        1.77943         51.1217         8.04985          59.533 
        1.78557         50.8333         7.98313          59.209 
        1.79171         50.5723         7.91716         58.9633 
        1.79785          50.295         7.85192         58.7883 
        1.80399          50.016         7.78743          58.578 
        1.81012         49.7937         7.72376         58.3432 
        1.81625         49.5382         7.66082         58.0837 
        1.82239         49.2737         7.59849         57.8631 
        1.82853         49.0205         7.53688         57.7296 
        1.83466         48.8183         7.47602         57.4546 
        1.84078         48.5768         7.41589         57.1299 
        1.84692         48.3352         7.35633         57.0473 
        1.85306         48.0737         7.29735         56.8337 
         1.8592         47.8697         7.23911         56.5184 
        1.86533         47.6126         7.18154         56.3563 
        1.87147         47.3705         7.12453         56.1089 
