# k  (h/Mpc)    Pcb(k)  (Mpc/h)^3    Pcb_linear(k) (Mpc/h)^3    Pcb_NL(k) (Mpc/h)^3   ShotnoiseSubtracted = false
     0.00783031         307.485         309.778         308.363 
       0.013688         384.959         388.138          386.45 
       0.019231         397.144         398.424         396.547 
      0.0249154         372.612         372.887         371.718 
      0.0312784          325.54         325.706         325.459 
      0.0375637         277.434         277.628         277.638 
      0.0433917         240.737         240.259         240.457 
      0.0492413         212.307         212.192         212.419 
      0.0555754         191.848         191.321         191.408 
      0.0619321         176.492         177.083         177.079 
       0.067871         166.402         166.498         166.378 
      0.0738098         155.889         155.949         155.745 
      0.0800417         143.524         143.428         143.259 
      0.0862327           129.4         129.463         129.395 
      0.0921407         115.615          115.69         115.706 
      0.0982031         102.675         102.461         102.577 
       0.104506         90.7748         90.8749         91.0454 
       0.110769         82.0917          82.123         82.2618 
       0.116806         76.3999         76.1843         76.2717 
       0.122832         72.0963         72.1277         72.1914 
       0.129052         69.1355         69.0558         69.0771 
       0.135211         66.4093         66.2692          66.272 
       0.141259         63.1242         63.1569          63.172 
       0.147318         59.2112         59.3991         59.4606 
       0.153489         54.9559         55.0127         55.0718 
       0.159709         50.4464         50.3954         50.5036 
       0.165845         45.9423         46.0965         46.2644 
       0.171974         42.5903         42.4143         42.5753 
       0.178125         39.6524         39.5063         39.6893 
       0.184229          37.417           37.38         37.5503 
        0.19034         36.0242         35.8389         35.9878 
       0.196428         34.7489         34.6376         34.7481 
       0.202534         33.4092         33.5089         33.6187 
       0.208729         32.2811         32.2376         32.3465 
       0.214876         30.9017         30.7548         30.9037 
       0.220989         29.0241         29.0816         29.2501 
       0.227147         27.4691         27.3039         27.4785 
        0.23329         25.7783         25.5809         25.7842 
       0.239377         24.2763         24.0468         24.2614 
       0.245482         22.9639         22.7536         22.9465 
       0.251667         21.8383         21.7073         21.9113 
       0.257832         21.1153         20.8862         21.0787 
       0.263955         20.3512         20.2125         20.3907 
       0.270079         19.7156         19.5949         19.7649 
        0.27624         19.0058         18.9573         19.1183 
       0.282372         18.3267         18.2644         18.4405 
        0.28843         17.6894         17.5182         17.7015 
       0.294538         16.8805         16.7272         16.9179 
       0.300721         16.0274         15.9309         16.1345 
        0.30691         15.3666         15.1812         15.3885 
       0.313033         14.6849         14.5192         14.7201 
       0.319153         14.2152         13.9479         14.1548 
       0.325316         13.5847         13.4588         13.6683 
        0.33145         13.1578         13.0362         13.2326 
       0.337538         12.7954         12.6541         12.8428 
       0.343633         12.4457         12.2821         12.4678 
       0.349808         12.0363         11.8986          12.092 
       0.355968           11.62         11.5005         11.7157 
       0.362074         11.2626          11.095         11.3001 
       0.368217         10.8477         10.6861         10.8761 
       0.374374         10.5093         10.2894         10.4924 
       0.380519         10.0785         9.91924          10.115 
       0.386598          9.7271         9.58449         9.78466 
       0.392688         9.40862         9.28284           9.481 
        0.39888         9.16138         9.00552         9.20186 
       0.405048         8.91288         8.75073         8.93397 
       0.411186         8.65738         8.51012         8.70975 
       0.417313         8.42356         8.27463         8.46695 
       0.423458         8.15558         8.03853         8.23341 
       0.429607         7.96181         7.80202         7.99034 
       0.435692         7.74104         7.56885         7.76349 
       0.441815         7.48398         7.33892         7.54284 
       0.447964         7.23161          7.1174         7.31365 
       0.454126         7.06033         6.90751         7.10088 
       0.460267          6.8957         6.71172         6.90985 
       0.466387           6.695         6.53009         6.71837 
        0.47254         6.53732         6.35887         6.54844 
       0.478662         6.36007         6.19674         6.38169 
       0.484765         6.20583         6.04086          6.2255 
       0.490885          6.0349         5.88844         6.08547 
       0.497035         5.86598         5.73763         5.93679 
       0.503198         5.73925         5.58854         5.77214 
       0.509342         5.56979         5.44308         5.63052 
       0.515458         5.45248          5.3026         5.49807 
       0.521598         5.31771         5.16674         5.34758 
       0.527764         5.20842         5.03605         5.21556 
       0.533884         5.04577          4.9125         5.09121 
           0.54         4.93936         4.79513         4.97059 
       0.546137         4.80669         4.68246         4.86223 
       0.552299         4.70817         4.57341         4.74035 
       0.558452         4.60105         4.46774         4.63729 
       0.564573         4.50415         4.36535         4.54703 
       0.570708         4.40239         4.26528         4.44255 
       0.576825         4.30592         4.16788         4.34118 
       0.582926          4.2005          4.0731         4.24898 
       0.589034         4.12322         3.98083         4.16202 
       0.595184         4.04244         3.89092         4.05417 
       0.601379         3.93737         3.80369          3.9801 
       0.607522         3.85145         3.72047         3.89283 
       0.613639         3.75868         3.64058         3.80971 
       0.619772         3.69702         3.56308         3.73724 
       0.625918          3.6175         3.48772         3.65485 
       0.632068         3.54899          3.4144         3.57814 
       0.638161         3.47216         3.34371         3.50735 
         0.6443         3.39936         3.27439         3.43422 
       0.650464         3.32993         3.20666         3.37328 
       0.656582         3.27735         3.14122         3.30466 
       0.662703         3.21066          3.0775         3.23771 
       0.668861         3.12927         3.01517         3.17998 
       0.675024         3.07409         2.95455         3.11515 
       0.681124         3.04438         2.89631         3.05381 
       0.687237         2.97032         2.83966         2.99081 
       0.693381         2.89769          2.7844         2.93199 
       0.699536         2.86177         2.73061         2.87992 
       0.705665          2.8068         2.67852         2.83692 
       0.711789         2.74232         2.62784         2.78261 
       0.717957         2.69321         2.57807         2.72734 
        0.72409         2.64724         2.52981         2.68006 
       0.730186         2.61237         2.48301         2.62863 
       0.736317         2.55306          2.4371         2.58046 
       0.742472          2.5158         2.39217         2.54281 
       0.748622         2.47301         2.34842           2.499 
        0.75476         2.41787         2.30589         2.44969 
       0.760888         2.38652         2.26452          2.4088 
       0.767043         2.32251         2.22405         2.36962 
       0.773185         2.29239         2.18469         2.33152 
       0.779291         2.26875         2.14654         2.29195 
       0.785407         2.22223         2.10926         2.25168 
       0.791564         2.18443         2.07264         2.21477 
       0.797719         2.14672         2.03691         2.17356 
       0.803834         2.11129         2.00224         2.14023 
       0.809972         2.07608         1.96825         2.11041 
       0.816124          2.0416         1.93497         2.07139 
       0.822261         2.01195         1.90255         2.03722 
       0.828378         1.97567         1.87096         2.00563 
       0.834502         1.94448         1.84007         1.97167 
       0.840667         1.91872         1.80968         1.94257 
       0.846816         1.88515         1.78007         1.91742 
       0.852925         1.85174         1.75131         1.88466 
       0.859047         1.82387         1.72313         1.85994 
       0.865192         1.79598         1.69549         1.82863 
       0.871341         1.77124         1.66844         1.79995 
       0.877463          1.7385         1.64211         1.77107 
       0.883569         1.71365         1.61643         1.74754 
       0.889708         1.69155         1.59116         1.72145 
       0.895864         1.66605         1.56638         1.69432 
       0.902008          1.6355         1.54217         1.66988 
       0.908149         1.61521          1.5185         1.64596 
       0.914301         1.59459         1.49529          1.6205 
       0.920448         1.57165         1.47258         1.59613 
       0.926574         1.55327         1.45043         1.57524 
       0.932687         1.52834         1.42879         1.54854 
       0.938823         1.49932         1.40751         1.53295 
       0.944975         1.48361         1.38662         1.50585 
       0.951105         1.45485         1.36623         1.48524 
       0.957225         1.43705         1.34629         1.46768 
       0.963368         1.42091         1.32668         1.44528 
       0.969511         1.40292         1.30746         1.42611 
       0.975621         1.37839         1.28873         1.40237 
       0.981748         1.35372         1.27032           1.384 
       0.987916         1.33826         1.25216         1.36984 
        0.99406         1.32429         1.23442          1.3523 
        1.00019         1.30516         1.21706         1.33402 
        1.00632         1.29207         1.20006         1.31386 
        1.01246         1.27241         1.18336           1.296 
        1.01859         1.25562           1.167         1.28046 
        1.02471         1.23424         1.15098         1.26361 
        1.03085         1.21812          1.1352         1.24449 
        1.03698         1.20505         1.11975         1.22815 
        1.04314         1.18933         1.10453         1.21331 
        1.04929         1.17656         1.08963         1.19812 
        1.05541         1.15579         1.07506         1.18455 
        1.06154         1.14459         1.06073         1.16945 
        1.06769         1.13158         1.04663         1.15462 
        1.07382         1.11525         1.03284          1.1397 
        1.07993         1.10119         1.01933         1.12524 
        1.08607         1.08854         1.00601         1.11245 
        1.09222         1.07228        0.992913         1.09676 
        1.09836         1.06238        0.980065         1.08461 
        1.10449         1.04486        0.967462         1.07175 
        1.11063         1.03231        0.955067         1.05662 
        1.11677         1.02213        0.942895         1.04582 
         1.1229         1.00553        0.930957         1.03343 
        1.12903        0.997263        0.919216         1.02056 
        1.13518        0.982912        0.907669         1.00857 
        1.14131         0.97257        0.896327        0.996809 
        1.14745        0.963185        0.885186        0.983034 
        1.15359        0.949597        0.874234         0.97354 
        1.15973         0.93952        0.863463        0.962727 
        1.16584        0.926732        0.852922        0.950099 
        1.17197         0.91496        0.842543        0.939967 
        1.17811        0.903984        0.832305        0.930028 
        1.18424        0.893877        0.822268        0.917583 
        1.19038        0.882139        0.812368        0.907561 
        1.19652        0.875652        0.802635        0.898322 
        1.20267        0.866512        0.793063        0.885711 
        1.20881        0.852014         0.78365        0.877202 
        1.21495        0.844651        0.774404        0.869869 
        1.22108        0.835546         0.76531        0.858109 
         1.2272        0.823351        0.756385          0.8475 
        1.23334        0.815798        0.747581        0.839281 
        1.23949        0.808193        0.738898        0.831427 
        1.24562        0.798567        0.730377        0.822038 
        1.25174        0.790177        0.722003        0.811913 
        1.25789        0.778749        0.713736        0.803161 
        1.26402        0.771586        0.705614        0.794613 
        1.27014        0.760893        0.697638        0.786046 
        1.27628        0.755338        0.689762        0.777301 
        1.28244         0.74711        0.681993        0.769119 
        1.28858        0.737369        0.674355        0.760018 
        1.29471        0.729456        0.666851        0.752776 
        1.30084        0.722361        0.659469        0.746856 
        1.30697        0.716952        0.652187         0.73837 
        1.31312        0.708224        0.645006        0.730306 
        1.31925         0.70056        0.637955        0.723803 
        1.32537         0.69342        0.631018        0.716327 
        1.33151         0.68568        0.624159        0.708902 
        1.33765        0.678463        0.617407        0.701686 
        1.34378        0.670299        0.610768        0.694791 
        1.34992        0.666113        0.604222        0.687909 
        1.35606        0.657685        0.597759        0.679652 
         1.3622        0.651437        0.591402        0.673296 
        1.36833         0.64547        0.585153        0.667536 
        1.37445        0.638867        0.578998        0.661169 
        1.38059         0.63207        0.572912        0.654116 
        1.38675        0.625373          0.5669        0.647137 
        1.39288        0.618494        0.560998        0.640901 
        1.39901        0.613334        0.555182        0.635057 
        1.40515        0.606544        0.549437        0.628359 
         1.4113        0.602933        0.543775        0.622972 
        1.41742        0.595539        0.538214        0.618543 
        1.42355        0.587497        0.532721        0.609816 
         1.4297        0.584534        0.527289        0.606243 
        1.43585        0.577237        0.521934        0.599947 
        1.44198         0.57255        0.516675        0.592181 
        1.44809        0.566173        0.511498         0.58914 
        1.45423        0.561428        0.506373        0.581396 
        1.46036        0.555877        0.501327        0.576685 
        1.46649        0.550254        0.496349        0.572731 
        1.47263        0.544163        0.491435        0.566786 
        1.47877        0.542271         0.48659        0.561348 
        1.48491        0.533468        0.481802        0.557103 
        1.49104        0.531601        0.477089        0.550505 
        1.49718        0.524385        0.472436        0.547098 
        1.50333        0.520676        0.467838        0.540408 
        1.50947        0.516205         0.46331         0.53519 
         1.5156        0.510877        0.458849        0.531666 
        1.52172        0.506763        0.454447        0.526191 
        1.52787        0.500583        0.450094        0.521297 
          1.534        0.497684        0.445804        0.517391 
        1.54013        0.492692        0.441574        0.512703 
        1.54627        0.488201        0.437391         0.50774 
        1.55241        0.483316        0.433262        0.503227 
        1.55855        0.479181        0.429192        0.498867 
        1.56467        0.475242        0.425186        0.494966 
         1.5708        0.470458        0.421219        0.489957 
        1.57695        0.465931        0.417298        0.485364 
        1.58308        0.460789        0.413435        0.482093 
        1.58922        0.458409        0.409619         0.47803 
        1.59535        0.453352        0.405853        0.473516 
         1.6015        0.449536        0.402129        0.468952 
        1.60764         0.44569        0.398453        0.465547 
        1.61376        0.441754        0.394834        0.462678 
        1.61989         0.43784        0.391257        0.458399 
        1.62604         0.43362        0.387716        0.454298 
        1.63218        0.430952        0.384221        0.450712 
        1.63831        0.426373        0.380778        0.446937 
        1.64444        0.423263        0.377375        0.442676 
        1.65059        0.418974        0.374006        0.438959 
        1.65673        0.415594        0.370682        0.435661 
        1.66285        0.412466        0.367408        0.432153 
        1.66898        0.408779        0.364172        0.428218 
        1.67512         0.40453        0.360969        0.424718 
        1.68127        0.400896        0.357802        0.421522 
         1.6874        0.398665        0.354679        0.418411 
        1.69353        0.394773        0.351596        0.415072 
        1.69967        0.391567        0.348542        0.411157 
        1.70581        0.388864        0.345526        0.407885 
        1.71193        0.385935        0.342557        0.405033 
        1.71806        0.382356        0.339617        0.401404 
        1.72421        0.378845        0.336705        0.398583 
        1.73035        0.375124        0.333831        0.395394 
        1.73649        0.373589        0.330991        0.391478 
        1.74262        0.369222        0.328186         0.38854 
        1.74876        0.367164        0.325413        0.386204 
        1.75489         0.36413        0.322677        0.383341 
        1.76101        0.360631        0.319973        0.379896 
        1.76715        0.358072        0.317296        0.377235 
        1.77329        0.355009        0.314647        0.374613 
        1.77943        0.352054        0.312028        0.371529 
        1.78557        0.350355        0.309442        0.368242 
        1.79171        0.347296        0.306884        0.365081 
        1.79785        0.343946        0.304356        0.362439 
        1.80399        0.340452        0.301856        0.360126 
        1.81012        0.338694        0.299388        0.356637 
        1.81625        0.336519        0.296948        0.353746 
        1.82239        0.334095        0.294532        0.352097 
        1.82853        0.330741        0.292144        0.349827 
        1.83466        0.328098        0.289785        0.346827 
        1.84078        0.325239        0.287454        0.343869 
        1.84692        0.323205        0.285146        0.341669 
        1.85306        0.320859         0.28286        0.338818 
         1.8592        0.318295        0.280602        0.335806 
        1.86533        0.316274         0.27837        0.333772 
        1.87147        0.313008        0.276161        0.331451 
