# k  (h/Mpc)    P(k)  (Mpc/h)^3    P_linear(k)  (Mpc/h)^3     P_NL(k)  ShotnoiseSubtracted = false
     0.00783031         16758.4         16827.2         16743.2 
       0.013688         20447.3         21026.4         20876.5 
       0.019231         21200.4         21565.4           21364 
      0.0249154         20187.9         20174.9         19957.3 
      0.0312784         17384.4         17617.8         17390.9 
      0.0375637         14695.1           15015         14815.3 
      0.0433917           12876         12992.8         12782.5 
      0.0492413         11285.4         11474.3         11279.9 
      0.0555754         10251.2         10345.1         10173.5 
      0.0619321         9180.31         9574.92         9407.11 
       0.067871         8754.99         9002.38          8846.4 
      0.0738098         8276.66         8431.81         8189.55 
      0.0800417         7619.24          7754.7         7541.29 
      0.0862327         6853.09         6999.56         6894.68 
      0.0921407         6184.95         6254.85         6184.43 
      0.0982031         5596.93         5539.57         5589.42 
       0.104506         4932.14         4913.11         5058.02 
       0.110769         4519.22         4439.91         4546.07 
       0.116806         4285.73         4118.82         4215.21 
       0.122832         4031.87         3899.49         4002.01 
       0.129052         3825.81         3733.39         3822.53 
       0.135211         3744.83         3582.73          3658.9 
       0.141259         3496.73         3414.45          3528.7 
       0.147318         3266.12         3211.28         3370.52 
       0.153489         3075.28         2974.14         3104.18 
       0.159709         2939.81          2724.5         2920.53 
       0.165845         2672.84         2492.09         2774.62 
       0.171974         2580.04         2293.02         2587.67 
       0.178125         2480.62          2135.8         2479.91 
       0.184229         2281.08         2020.84         2339.73 
        0.19034         2252.03         1937.53         2244.36 
       0.196428          2192.9         1872.58         2157.96 
       0.202534         2070.93         1811.56          2102.4 
       0.208729         2035.15         1742.83         2010.43 
       0.214876         1947.59         1662.66         1973.88 
       0.220989         1854.14         1572.21         1915.93 
       0.227147         1799.36          1476.1         1848.76 
        0.23329         1725.28         1382.95         1784.91 
       0.239377         1712.01         1300.01         1703.93 
       0.245482         1629.69         1230.09         1621.03 
       0.251667         1569.82         1173.52         1575.83 
       0.257832         1543.23         1129.14         1520.79 
       0.263955         1476.53         1092.72          1479.1 
       0.270079         1440.84         1059.33         1443.05 
        0.27624         1381.96         1024.86         1405.64 
       0.282372         1367.33         987.402         1385.22 
        0.28843         1341.56         947.063         1358.53 
       0.294538         1281.98         904.294         1319.44 
       0.300721         1258.71         861.248         1278.16 
        0.30691         1226.28         820.717         1256.81 
       0.313033         1180.05         784.927         1212.94 
       0.319153         1167.62         754.039         1175.84 
       0.325316         1152.96         727.601         1154.85 
        0.33145         1127.33         704.755         1114.91 
       0.337538         1091.49         684.098         1098.48 
       0.343633         1067.37         663.985         1088.07 
       0.349808         1048.88         643.259         1072.99 
       0.355968         1027.31         621.733          1055.4 
       0.362074         996.886          599.81          1036.5 
       0.368217         993.935         577.706         1010.94 
       0.374374          978.33         556.255         990.337 
       0.380519          944.83         536.247         969.086 
       0.386598         940.218         518.148         955.515 
       0.392688         915.432         501.841         933.367 
        0.39888         898.512         486.849         917.986 
       0.405048         879.949         473.075         902.859 
       0.411186         877.679         460.067         887.809 
       0.417313         872.302         447.336         877.485 
       0.423458         847.097         434.571         862.679 
       0.429607          824.87         421.789         849.364 
       0.435692         817.401          409.18         831.169 
       0.441815         801.725          396.75         827.823 
       0.447964         792.612         384.774         816.804 
       0.454126          782.42         373.429         793.111 
       0.460267         772.956          362.84          791.03 
       0.466387         759.176         353.025         776.901 
        0.47254         747.954         343.767          765.84 
       0.478662         737.159         335.003         754.845 
       0.484765         729.053         326.575         746.829 
       0.490885         721.523         318.336         733.333 
       0.497035         707.482         310.182         727.098 
       0.503198          706.58         302.122         719.146 
       0.509342         693.529         294.259          706.64 
       0.515458         679.935         286.664         701.711 
       0.521598         678.915         279.319         694.627 
       0.527764         662.973         272.254         687.723 
       0.533884         655.765         265.575         679.355 
           0.54         651.311          259.23         670.937 
       0.546137         642.332         253.138         663.389 
       0.552299         638.196         247.243         654.243 
       0.558452          630.12         241.531         649.202 
       0.564573         626.498         235.995         643.596 
       0.570708         619.233         230.585         635.725 
       0.576825          607.11          225.32         627.193 
       0.582926         605.542         220.196         622.935 
       0.589034         597.112         215.208         613.652 
       0.595184         590.839         210.347         607.457 
       0.601379         582.104         205.631          601.97 
       0.607522         573.335         201.133         593.081 
       0.613639         572.707         196.813         591.695 
       0.619772         568.013         192.624         589.692 
       0.625918         559.066          188.55          581.37 
       0.632068         556.619         184.586         578.145 
       0.638161          549.33         180.764         569.376 
         0.6443           543.3         177.017         564.929 
       0.650464          539.04         173.355         557.074 
       0.656582         534.704         169.817         554.146 
       0.662703         528.863         166.373         549.988 
       0.668861         522.328         163.003         547.539 
       0.675024         520.236         159.726         543.743 
       0.681124         509.655         156.577         535.297 
       0.687237         509.999         153.515          530.51 
       0.693381         501.821         150.527         525.654 
       0.699536         502.532         147.619         522.201 
       0.705665          494.59         144.803         515.853 
       0.711789         493.598         142.063         512.251 
       0.717957         487.054         139.373         511.598 
        0.72409          482.91         136.764         505.878 
       0.730186         482.149         134.234         500.716 
       0.736317         474.922         131.752         497.334 
       0.742472         470.269         129.323         493.879 
       0.748622         468.991         126.958          489.04 
        0.75476         462.781         124.659         489.628 
       0.760888         460.794         122.422         483.545 
       0.767043         457.658         120.234         477.658 
       0.773185         453.722         118.107         474.982 
       0.779291         449.265         116.044         470.961 
       0.785407         445.929         114.028         468.134 
       0.791564         443.753         112.049         466.394 
       0.797719         436.779         110.117         461.885 
       0.803834          437.73         108.243         459.183 
       0.809972         430.797         106.406         456.323 
       0.816124         427.761         104.606         450.884 
       0.822261         424.977         102.854         448.829 
       0.828378         423.194         101.146         445.481 
       0.834502         416.266          99.476         443.986 
       0.840667         415.596          97.833         440.315 
       0.846816         411.336          96.232          437.03 
       0.852925         411.159         94.6773         434.511 
       0.859047         406.421         93.1541          430.28 
       0.865192         404.279         91.6598         427.382 
       0.871341          399.33         90.1976         425.062 
       0.877463         398.626         88.7742         422.723 
       0.883569         394.873         87.3855         420.862 
       0.889708         390.615         86.0196         416.461 
       0.895864         386.481         84.6797         414.336 
       0.902008         385.658         83.3713         411.427 
       0.908149         381.883         82.0915         407.752 
       0.914301         380.537         80.8366         404.556 
       0.920448         375.951         79.6092         403.666 
       0.926574         374.198         78.4118         400.745 
       0.932687         373.015         77.2416          397.51 
       0.938823         368.819         76.0913         396.714 
       0.944975         367.773         74.9619         393.643 
       0.951105         364.383         73.8596         390.663 
       0.957225         359.984         72.7815         388.694 
       0.963368          360.28         71.7214         386.253 
       0.969511         355.082         70.6825          384.03 
       0.975621         353.051         69.6699          381.42 
       0.981748         351.832         68.6747         379.375 
       0.987916         349.387         67.6928         377.622 
        0.99406         345.672         66.7339         375.018 
        1.00019         342.517         65.7956         371.768 
        1.00632         341.979         64.8763          369.46 
        1.01246         338.881         63.9733         367.126 
        1.01859         336.033         63.0891         364.927 
        1.02471         334.153         62.2228         363.228 
        1.03085         332.737         61.3698         362.012 
        1.03698         330.567         60.5348         360.524 
        1.04314         328.212         59.7119          357.83 
        1.04929          326.91         58.9062         354.735 
        1.05541         323.315         58.1187         352.647 
        1.06154         321.071         57.3438         350.987 
        1.06769         318.631         56.5819         348.575 
        1.07382         315.905         55.8363          346.69 
        1.07993         315.433          55.106         344.941 
        1.08607         313.667         54.3858         342.516 
        1.09222         310.523         53.6777         340.695 
        1.09836         308.906         52.9832         339.458 
        1.10449         306.741         52.3018         337.775 
        1.11063         305.355         51.6318         334.819 
        1.11677         301.877         50.9737         333.375 
         1.1229         301.127         50.3283         331.327 
        1.12903          298.34         49.6936         329.601 
        1.13518         296.641         49.0694         327.341 
        1.14131         295.044         48.4562         325.909 
        1.14745         292.203         47.8539         323.397 
        1.15359         289.878         47.2618         322.776 
        1.15973         288.531         46.6795          320.58 
        1.16584         286.897         46.1097         319.425 
        1.17197          285.07         45.5486         317.779 
        1.17811         281.928         44.9951         315.419 
        1.18424          281.06         44.4525         313.915 
        1.19038         279.589         43.9173         312.896 
        1.19652         276.731         43.3912         310.344 
        1.20267         275.729         42.8737         309.047 
        1.20881         273.989         42.3648         307.376 
        1.21495         271.963          41.865         305.512 
        1.22108         270.603         41.3733         303.616 
         1.2272         267.263         40.8908         302.496 
        1.23334         266.194         40.4149         300.653 
        1.23949         264.608         39.9454         299.077 
        1.24562          263.39         39.4848         297.293 
        1.25174         261.878         39.0321         295.898 
        1.25789         259.281         38.5852         294.213 
        1.26402         258.386         38.1461         293.349 
        1.27014         256.888         37.7149         291.166 
        1.27628          255.16         37.2891         290.563 
        1.28244         252.562         36.8691         289.176 
        1.28858         251.787         36.4562          287.42 
        1.29471         250.155         36.0505         285.472 
        1.30084         249.613         35.6514          283.77 
        1.30697         246.679         35.2578         282.755 
        1.31312         245.372         34.8695          281.31 
        1.31925         244.049         34.4884         279.831 
        1.32537          243.04         34.1134         278.028 
        1.33151          240.53         33.7426         276.932 
        1.33765         238.808         33.3775         275.836 
        1.34378         238.209         33.0186         274.012 
        1.34992         235.609         32.6648         272.541 
        1.35606         234.491         32.3154         270.927 
         1.3622         232.656         31.9717         270.166 
        1.36833         232.443         31.6339         269.114 
        1.37445          231.26         31.3011         266.926 
        1.38059         228.238         30.9721         266.124 
        1.38675         226.876         30.6471         265.142 
        1.39288         226.317          30.328         263.311 
        1.39901         224.106         30.0136          261.77 
        1.40515         223.124          29.703          260.27 
         1.4113         221.549         29.3969         258.949 
        1.41742         219.936         29.0963         257.951 
        1.42355         218.978         28.7993         256.511 
         1.4297         217.521         28.5057         254.985 
        1.43585         216.202         28.2162         254.601 
        1.44198         214.722         27.9319         253.023 
        1.44809         213.583          27.652         251.803 
        1.45423         212.319         27.3749         249.972 
        1.46036         211.491         27.1022         249.052 
        1.46649         209.758         26.8331         248.094 
        1.47263         208.229         26.5674         246.479 
        1.47877         207.083         26.3054         245.067 
        1.48491         205.539         26.0466         243.703 
        1.49104         203.583         25.7918         242.829 
        1.49718         203.079         25.5403         242.376 
        1.50333         201.431         25.2917         240.746 
        1.50947         200.215         25.0469         239.443 
         1.5156         199.126         24.8058         238.524 
        1.52172          197.84         24.5678         237.207 
        1.52787         196.659         24.3325         236.203 
          1.534         196.064         24.1005         234.991 
        1.54013         194.208         23.8718         233.943 
        1.54627          193.37         23.6457         233.064 
        1.55241         192.292         23.4225         232.001 
        1.55855         190.923         23.2025         230.848 
        1.56467          189.83         22.9859         229.415 
         1.5708         188.296         22.7715         228.241 
        1.57695         187.684         22.5595         227.227 
        1.58308         186.523         22.3506         226.012 
        1.58922         184.962         22.1443         224.996 
        1.59535         183.741         21.9407         224.226 
         1.6015         182.947         21.7394          223.41 
        1.60764         181.473         21.5407         222.171 
        1.61376         180.296          21.345         220.844 
        1.61989          179.21         21.1516         219.889 
        1.62604         178.426         20.9602         218.717 
        1.63218         177.081         20.7713         217.725 
        1.63831          176.31         20.5851         216.933 
        1.64444         174.786         20.4012         215.798 
        1.65059         173.936         20.2191         214.895 
        1.65673         172.887         20.0394         213.976 
        1.66285         171.766         19.8624         212.852 
        1.66898          170.91         19.6874         211.682 
        1.67512          169.68         19.5143         210.854 
        1.68127         168.724          19.343         209.879 
         1.6874         167.662         19.1742         208.869 
        1.69353          167.01         19.0076         208.142 
        1.69967         165.605         18.8425         207.137 
        1.70581         164.922         18.6794         206.184 
        1.71193         163.648         18.5189         205.282 
        1.71806         162.599         18.3599         204.107 
        1.72421         161.667         18.2025         203.213 
        1.73035         160.616         18.0472         202.326 
        1.73649         159.375         17.8936         201.292 
        1.74262         158.635          17.742         200.426 
        1.74876         157.834         17.5921         199.537 
        1.75489         157.236         17.4441         198.725 
        1.76101         156.017          17.298         198.029 
        1.76715         154.959         17.1533         197.143 
        1.77329         153.859         17.0101         196.286 
        1.77943         152.935         16.8685         195.387 
        1.78557         151.881         16.7286         194.326 
        1.79171          151.31         16.5904         193.466 
        1.79785         150.102         16.4537         192.648 
        1.80399         149.367         16.3186         191.681 
        1.81012         148.915         16.1851         191.112 
        1.81625         147.269         16.0532         190.349 
        1.82239         147.012         15.9226         189.233 
        1.82853         145.828         15.7935         188.422 
        1.83466         144.603          15.666         187.557 
        1.84078         144.057           15.54         186.677 
        1.84692         143.397         15.4152         186.137 
        1.85306          142.33         15.2916         185.205 
         1.8592         141.646         15.1696         184.157 
        1.86533         140.299         15.0489         183.621 
        1.87147         139.527         14.9294         182.932 
        1.87761         138.974         14.8112         182.043 
