# k  (h/Mpc)    P(k)  (Mpc/h)^3    P_linear(k)  (Mpc/h)^3     P_NL(k)  ShotnoiseSubtracted = false
     0.00783031         7479.51         7518.19         7484.45 
       0.013688         9222.09         9406.16         9354.51 
       0.019231         9548.06          9650.8         9585.84 
      0.0249154         9045.99         9030.07         8971.86 
      0.0312784         7838.56         7886.32         7838.88 
      0.0375637         6646.05         6721.62         6682.01 
      0.0433917         5806.53         5816.58         5777.39 
      0.0492413         5098.56          5136.9         5101.76 
      0.0555754         4631.05          4631.5         4599.01 
      0.0619321          4184.8         4286.74         4253.99 
       0.067871         3982.84         4030.45         3998.81 
      0.0738098         3748.22         3775.03         3724.87 
      0.0800417         3457.03         3471.91         3427.84 
      0.0862327         3108.05         3133.83         3114.16 
      0.0921407         2788.49         2800.42         2788.52 
      0.0982031         2503.76         2480.19         2496.02 
       0.104506          2201.7         2199.72         2236.79 
       0.110769         2004.87         1987.86         2013.44 
       0.116806         1893.55          1844.1         1867.19 
       0.122832         1774.94         1745.91         1771.01 
       0.129052         1699.64         1671.54         1692.45 
       0.135211         1650.86         1604.09         1623.62 
       0.141259         1552.41         1528.75         1555.93 
       0.147318         1444.87         1437.79         1478.86 
       0.153489         1353.43         1331.61         1362.71 
       0.159709         1271.95         1219.84          1266.8 
       0.165845          1148.9         1115.79         1186.03 
       0.171974          1101.1         1026.66         1096.52 
       0.178125         1041.21         956.266         1039.55 
       0.184229         965.798         904.796         983.372 
        0.19034         944.093         867.494         941.763 
       0.196428         915.882         838.416         902.748 
       0.202534         862.213         811.093         877.201 
       0.208729         848.563         780.321         841.663 
       0.214876         815.248         744.429         820.729 
       0.220989         761.318         703.929         787.465 
       0.227147         738.888         660.898         748.733 
        0.23329         705.014         619.192         717.343 
       0.239377         685.549         582.058         682.105 
       0.245482         647.404         550.753          644.68 
       0.251667         620.111         525.427         624.263 
       0.257832         612.069         505.554         600.637 
       0.263955         580.351         489.248         581.312 
       0.270079         561.614           474.3           565.4 
        0.27624         539.065         458.867         547.833 
       0.282372         526.997         442.094          533.71 
        0.28843         522.227         424.033         517.224 
       0.294538         495.034         404.884         501.798 
       0.300721         477.564         385.611         486.052 
        0.30691         468.493         367.464         471.429 
       0.313033         446.779         351.439          452.76 
       0.319153         438.421          337.61         438.933 
       0.325316         428.549         325.773         428.358 
        0.33145         418.135         315.544         412.953 
       0.337538         403.582         306.295         402.942 
       0.343633         391.371          297.29         397.922 
       0.349808         381.433          288.01         390.089 
       0.355968         373.429         278.372         382.367 
       0.362074          362.23         268.556         372.432 
       0.368217         358.152         258.659         360.203 
       0.374374         349.863         249.055         351.343 
       0.380519          335.48         240.097         341.705 
       0.386598         330.562         231.993         335.284 
       0.392688         322.244         224.692         326.127 
        0.39888         314.368          217.98         318.937 
       0.405048          308.24         211.813         314.546 
       0.411186         305.758         205.989         306.513 
       0.417313         299.892         200.288         299.169 
       0.423458         291.943         194.573         294.153 
       0.429607         284.673          188.85         288.483 
       0.435692         279.504         183.204         282.245 
       0.441815         274.322         177.639         279.061 
       0.447964         266.805         172.277         273.005 
       0.454126         262.806         167.197         265.308 
       0.460267         259.352         162.457         262.867 
       0.466387         254.142         158.062         257.289 
        0.47254         250.873         153.917         253.016 
       0.478662         243.652         149.993         248.227 
       0.484765         240.694         146.219         242.468 
       0.490885         237.334          142.53         239.517 
       0.497035         233.831          138.88         236.465 
       0.503198          231.36         135.271         232.591 
       0.509342         225.174          131.75          229.43 
       0.515458         222.295          128.35          226.94 
       0.521598         217.277         125.061         221.891 
       0.527764         214.906         121.898         218.259 
       0.533884         213.995         118.907         215.322 
           0.54         209.077         116.067         211.892 
       0.546137         204.401         113.339         209.496 
       0.552299           202.8           110.7         205.524 
       0.558452         199.195         108.142         202.692 
       0.564573         197.887         105.664         200.869 
       0.570708         193.366         103.241         198.275 
       0.576825         190.727         100.884          194.39 
       0.582926         188.749         98.5897         191.977 
       0.589034         185.903         96.3564         190.069 
       0.595184         184.287           94.18         186.499 
       0.601379         180.625         92.0684         185.308 
       0.607522         177.263         90.0545         182.274 
       0.613639         175.928         88.1204         180.464 
       0.619772         174.073         86.2446         178.095 
       0.625918         172.455         84.4206         176.072 
       0.632068         168.701         82.6458         173.257 
       0.638161         167.013         80.9347         172.278 
         0.6443         166.034         79.2568         169.988 
       0.650464          162.82         77.6174         166.777 
       0.656582         161.818         76.0333         165.575 
       0.662703         160.079         74.4911         163.625 
       0.668861         156.888         72.9824         161.868 
       0.675024         156.814         71.5152         159.732 
       0.681124         154.388         70.1054         158.129 
       0.687237         152.348         68.7342         156.224 
       0.693381         150.915         67.3966         154.351 
       0.699536         149.179         66.0946         152.998 
       0.705665         147.375         64.8337         152.135 
       0.711789         145.565         63.6069         149.725 
       0.717957         143.911         62.4025         148.284 
        0.72409          142.66         61.2342         147.512 
       0.730186         142.421         60.1014         146.004 
       0.736317         140.024         58.9902         144.017 
       0.742472         138.092         57.9027         142.713 
       0.748622          135.97         56.8438         141.029 
        0.75476         136.386         55.8143         139.697 
       0.760888         134.856         54.8129         137.906 
       0.767043           132.5         53.8333          137.18 
       0.773185         131.077         52.8806         136.319 
       0.779291         129.582          51.957         134.778 
       0.785407          128.46         51.0546          133.11 
       0.791564          127.63         50.1683         132.229 
       0.797719         125.959         49.3034          131.44 
       0.803834         125.617         48.4644          129.71 
       0.809972         124.645         47.6416         128.652 
       0.816124         122.838         46.8361         127.819 
       0.822261         121.582         46.0513          126.51 
       0.828378         121.348         45.2868         124.938 
       0.834502          119.51          44.539         124.258 
       0.840667          118.94         43.8034         123.644 
       0.846816         117.771         43.0866         122.331 
       0.852925         116.495         42.3905         121.237 
       0.859047         115.576         41.7085         120.209 
       0.865192         114.611         41.0394           119.4 
       0.871341         113.428         40.3847         118.162 
       0.877463         112.619         39.7475          117.47 
       0.883569         112.361         39.1257         116.682 
       0.889708         111.288         38.5141         115.714 
       0.895864         110.245         37.9142          115.04 
       0.902008         109.105         37.3284         113.749 
       0.908149         107.745         36.7554         112.854 
       0.914301          107.68         36.1935         112.213 
       0.920448         107.282          35.644         111.442 
       0.926574         105.185         35.1078           110.2 
       0.932687         105.028         34.5839          109.41 
       0.938823         104.199         34.0689         108.728 
       0.944975         103.055         33.5632         107.957 
       0.951105         102.163         33.0697         107.094 
       0.957225          102.02         32.5869         106.427 
       0.963368         100.839         32.1123         105.264 
       0.969511          100.11         31.6472         104.672 
       0.975621         99.1665         31.1938         104.793 
       0.981748         98.3919         30.7482         103.653 
       0.987916         97.7338         30.3085         103.072 
        0.99406         97.3797         29.8792         102.117 
        1.00019         96.2376         29.4591         101.242 
        1.00632         95.5591         29.0475         100.627 
        1.01246         94.9427         28.6432         99.7828 
        1.01859         94.5033         28.2473         99.4522 
        1.02471         93.7198         27.8594         99.0605 
        1.03085         92.8407         27.4775         98.1666 
        1.03698         92.2063         27.1036         97.3377 
        1.04314         91.5586         26.7352         96.8224 
        1.04929         91.1196         26.3745         96.4007 
        1.05541         90.4575         26.0219         95.8968 
        1.06154         89.8588         25.6749         95.3138 
        1.06769         89.1223         25.3338         94.6984 
        1.07382         88.3675              25         94.0856 
        1.07993         88.0349          24.673         93.4802 
        1.08607         87.3208         24.3505         92.9194 
        1.09222         86.9457         24.0335         92.2046 
        1.09836         86.0697         23.7225         91.5636 
        1.10449            85.6         23.4174         91.1042 
        1.11063         84.9867         23.1174          90.288 
        1.11677         84.4416         22.8228         89.8041 
         1.1229         83.7915         22.5338         89.5788 
        1.12903         83.4771         22.2496         88.8723 
        1.13518         82.9807         21.9701         88.3546 
        1.14131         82.3136         21.6956         87.7837 
        1.14745         81.8383          21.426         87.3746 
        1.15359         80.8558         21.1609         86.7554 
        1.15973         80.7677         20.9001         86.5531 
        1.16584         80.1959          20.645         85.7451 
        1.17197         79.6566         20.3938         85.4394 
        1.17811         79.0615          20.146         84.9024 
        1.18424         78.4147          19.903         84.5102 
        1.19038         78.3267         19.6634         83.9871 
        1.19652          77.744         19.4278         83.4093 
        1.20267         77.1336         19.1961         83.0113 
        1.20881         76.6764         18.9683         82.5659 
        1.21495         76.2353         18.7445         81.9784 
        1.22108         75.9388         18.5244         81.7548 
         1.2272         75.1673         18.3083          81.219 
        1.23334         74.9672         18.0952         80.8655 
        1.23949         74.4441          17.885         80.2058 
        1.24562         73.8224         17.6788         79.8641 
        1.25174          73.419         17.4761         79.5148 
        1.25789          73.321          17.276         79.0408 
        1.26402         72.7394         17.0794         78.6555 
        1.27014         72.3755         16.8864         78.4845 
        1.27628         71.6897         16.6957         78.0233 
        1.28244         71.5871         16.5077         77.2924 
        1.28858         71.0004         16.3228         76.9279 
        1.29471         70.5496         16.1411         76.7296 
        1.30084         69.9505         15.9625         76.0998 
        1.30697         69.9783         15.7862         75.7867 
        1.31312         69.3955         15.6124         75.5307 
        1.31925         68.9276         15.4417         75.0555 
        1.32537         68.5544         15.2738         74.7016 
        1.33151         68.2943         15.1078         74.2942 
        1.33765         67.8154         14.9443         73.9469 
        1.34378            67.5         14.7837         73.5699 
        1.34992         67.1663         14.6252         73.2452 
        1.35606         66.6568         14.4688         72.8429 
         1.3622         66.4128         14.3149          72.496 
        1.36833         65.9148         14.1636         72.0644 
        1.37445         65.3963         14.0147         71.7207 
        1.38059         65.2365         13.8674         71.5532 
        1.38675         64.5473         13.7218         70.9786 
        1.39288          64.549          13.579          70.805 
        1.39901         63.9287         13.4382         70.4418 
        1.40515         63.6982         13.2991         70.1921 
         1.4113         63.4658         13.1621         69.9115 
        1.41742          62.992         13.0275         69.3736 
        1.42355         62.7389         12.8945         68.9922 
         1.4297         62.3595          12.763         68.7018 
        1.43585         61.9345         12.6334         68.4509 
        1.44198         61.6082         12.5061         68.2225 
        1.44809         61.1709         12.3808         67.6836 
        1.45423         60.9482         12.2568         67.4292 
        1.46036          60.551         12.1346         67.2017 
        1.46649         60.2939         12.0141         66.9661 
        1.47263          59.991         11.8952         66.6653 
        1.47877         59.7375         11.7779         66.1698 
        1.48491         59.3464          11.662         65.9964 
        1.49104         58.8789          11.548          65.619 
        1.49718         58.6711         11.4353         65.3438 
        1.50333         58.3959          11.324         65.0015 
        1.50947         58.1138         11.2144         64.6889 
         1.5156         57.8859         11.1065         64.4667 
        1.52172         57.3994         10.9999         64.2242 
        1.52787         57.0627         10.8945         63.9308 
          1.534          56.813         10.7907           63.65 
        1.54013         56.6757         10.6883         63.3168 
        1.54627         56.1155         10.5871         63.0366 
        1.55241          55.872         10.4871         62.7842 
        1.55855         55.6593         10.3886          62.412 
        1.56467         55.1906         10.2916         62.1749 
         1.5708         55.0955         10.1956         61.9987 
        1.57695         54.7374         10.1007         61.7681 
        1.58308         54.4569         10.0072         61.4981 
        1.58922         54.1822         9.91484         61.1711 
        1.59535         54.0338         9.82367         60.8828 
         1.6015         53.8783         9.73353         60.5811 
        1.60764         53.4692         9.64456          60.391 
        1.61376         53.1471         9.55696         60.2661 
        1.61989         52.7583         9.47037          59.914 
        1.62604         52.5727         9.38467         59.5525 
        1.63218         52.2814         9.30008         59.3038 
        1.63831         52.1238         9.21673         59.1389 
        1.64444         51.8646         9.13437         58.8854 
        1.65059         51.5321         9.05283         58.5292 
        1.65673         51.1845         8.97237         58.3289 
        1.66285          51.018         8.89311         58.1675 
        1.66898         50.5915         8.81479         57.8972 
        1.67512         50.4811         8.73726         57.7043 
        1.68127          50.251         8.66059         57.3947 
         1.6874         49.9463         8.58501         57.0618 
        1.69353         49.7425         8.51038         56.9164 
        1.69967         49.5302         8.43646         56.7462 
        1.70581         49.1798         8.36346         56.5203 
        1.71193         48.9656         8.29159          56.274 
        1.71806         48.7074         8.22042         56.0267 
        1.72421         48.5001         8.14994         55.7613 
        1.73035         48.2632         8.08038         55.5964 
        1.73649         47.9134         8.01164         55.4595 
        1.74262         47.5803         7.94375         55.0959 
        1.74876         47.5998         7.87661         54.8222 
        1.75489         47.2045         7.81038         54.6593 
        1.76101         46.9913         7.74494         54.4649 
        1.76715         46.9281         7.68016          54.198 
        1.77329         46.4239         7.61604         53.9908 
        1.77943         46.4322         7.55263         53.7906 
        1.78557         46.1751         7.49003         53.5126 
        1.79171         45.9279         7.42814         53.2895 
        1.79785         45.6757         7.36693         53.1292 
        1.80399         45.4296         7.30642         52.9555 
        1.81012          45.238         7.24668         52.7239 
        1.81625         44.9674         7.18763         52.4788 
        1.82239         44.7365         7.12915         52.2973 
        1.82853          44.558         7.07135         52.1752 
        1.83466         44.3398         7.01425         51.9222 
        1.84078         44.1463         6.95783         51.6299 
        1.84692         43.8835         6.90195         51.5539 
        1.85306         43.6542         6.84661         51.3656 
         1.8592         43.4974         6.79197         51.0912 
        1.86533         43.2757         6.73795         50.9573 
        1.87147         43.0474         6.68446         50.7533 
        1.87761         42.8054         6.63153         50.4911 
