# k  (h/Mpc)    Pcb(k)  (Mpc/h)^3    Pcb_linear(k) (Mpc/h)^3    Pcb_NL(k) (Mpc/h)^3   ShotnoiseSubtracted = false
     0.00783031         845.917         851.858         848.074 
       0.013688         1056.41         1067.03         1062.34 
       0.019231         1090.59         1095.21         1089.88 
      0.0249154         1025.02         1024.96         1021.53 
      0.0312784         894.437         895.245         894.283 
      0.0375637         761.595         763.083         762.783 
      0.0433917         661.727         660.365         660.569 
      0.0492413         583.089         583.217         583.555 
      0.0555754         527.567         525.849         525.843 
      0.0619321         483.786         486.714         486.506 
       0.067871         457.062         457.621         457.112 
      0.0738098         428.419         428.625         427.746 
      0.0800417         394.692          394.21         393.474 
      0.0862327         355.575         355.827          355.56 
      0.0921407         317.711         317.972         317.994 
      0.0982031         282.605         281.613         282.134 
       0.104506         249.398         249.768         250.629 
       0.110769         225.708         225.713         226.367 
       0.116806         210.617          209.39         209.892 
       0.122832         198.392         198.241         198.713 
       0.129052         190.423         189.798         190.123 
       0.135211         183.156         182.139         182.424 
       0.141259         173.819         173.585         173.966 
       0.147318         162.746         163.256         163.919 
       0.153489         151.266         151.201         151.731 
       0.159709         139.188          138.51         139.315 
       0.165845         126.418         126.695         127.901 
       0.171974         117.879         116.574         117.724 
       0.178125         109.825         108.582         109.926 
       0.184229         103.423         102.737         104.029 
        0.19034         99.8332          98.502         99.6846 
       0.196428         96.2952         95.2002         96.1454 
       0.202534         92.1899         92.0979         93.0609 
       0.208729         89.3814         88.6038         89.5533 
       0.214876         85.7361         84.5284          85.756 
       0.220989         80.2073         79.9297         81.2688 
       0.227147         76.3427         75.0437         76.4082 
        0.23329         71.8025         70.3081         71.8715 
       0.239377         67.8255         66.0916          67.732 
       0.245482         64.1052         62.5373         64.0248 
       0.251667         60.9212         59.6616         61.2429 
       0.257832         59.1822         57.4048         58.9158 
       0.263955         56.8161         55.5533         56.9746 
       0.270079          55.024         53.8558         55.2289 
        0.27624         52.9544         52.1035         53.4113 
       0.282372         51.1225         50.1991         51.6032 
        0.28843         49.6239         48.1481          49.593 
       0.294538         47.3274         45.9739         47.4712 
       0.300721         44.8961         43.7855         45.3737 
        0.30691         43.2653         41.7249         43.3399 
       0.313033         41.3262         39.9053         41.4711 
       0.319153         40.1853         38.3353         39.9435 
       0.325316         38.3001          36.991         38.6233 
        0.33145         37.0803         35.8295           37.37 
       0.337538         36.0833         34.7794         36.2682 
       0.343633         35.1202         33.7569         35.2395 
       0.349808         33.9631         32.7029         34.2353 
       0.355968         32.7974         31.6088          33.275 
       0.362074         31.9235         30.4942         32.1004 
       0.368217         30.7831         29.3704         30.8769 
       0.374374           29.92           28.28         29.8666 
       0.380519         28.6195         27.2626         28.8027 
       0.386598         27.6456         26.3426         27.9056 
       0.392688         26.7485         25.5135         27.0727 
        0.39888         26.1283         24.7513         26.2846 
       0.405048         25.4579          24.051          25.516 
       0.411186         24.7251         23.3897         24.9576 
       0.417313         24.0436         22.7425         24.2469 
       0.423458          23.287         22.0936          23.621 
       0.429607         22.8105         21.4435         22.9316 
       0.435692         22.2579         20.8027         22.3262 
       0.441815         21.4422         20.1707         21.7551 
       0.447964         20.7126         19.5619         21.0929 
       0.454126         20.2921          18.985         20.4919 
       0.460267         19.9233         18.4469         19.9897 
       0.466387         19.3192         17.9477         19.4289 
        0.47254           18.93         17.4771         18.9723 
       0.478662         18.3804         17.0315         18.4993 
       0.484765         17.9461          16.603         18.0561 
       0.490885         17.4324         16.1841         17.7109 
       0.497035         16.9991         15.7696         17.3109 
       0.503198         16.6439         15.3599         16.8119 
       0.509342         16.1461         14.9601         16.4377 
       0.515458         15.8629          14.574         16.1047 
       0.521598         15.4778         14.2006         15.6356 
       0.527764         15.2063         13.8414         15.2522 
       0.533884         14.7294         13.5018         14.9094 
           0.54         14.4382         13.1792         14.5711 
       0.546137         14.0133         12.8695         14.2899 
       0.552299         13.7513         12.5698         13.9173 
       0.558452         13.4398         12.2794         13.6318 
       0.564573         13.2073          11.998         13.4143 
       0.570708         12.8999         11.7229         13.1171 
       0.576825          12.649         11.4552         12.8296 
       0.582926         12.3595         11.1948         12.5812 
       0.589034          12.121         10.9411         12.3522 
       0.595184         11.9272          10.694         12.0111 
       0.601379         11.5965         10.4543         11.8402 
       0.607522         11.3714         10.2256         11.5781 
       0.613639         11.1112          10.006         11.3407 
       0.619772         10.9332         9.79297         11.1527 
       0.625918         10.6926         9.58586         10.9154 
       0.632068         10.5408         9.38434         10.6902 
       0.638161         10.3081         9.19004         10.4897 
         0.6443         10.1034         8.99951         10.2775 
       0.650464         9.86678         8.81336         10.1277 
       0.656582         9.76088          8.6335         9.92978 
       0.662703         9.59215         8.45838          9.7349 
       0.668861         9.33063         8.28707         9.58761 
       0.675024           9.172         8.12047         9.38452 
       0.681124         9.12523         7.96038         9.21349 
       0.687237         8.90694         7.80469         9.02296 
       0.693381         8.67508         7.65281         8.85773 
       0.699536         8.60006         7.50497         8.71373 
       0.705665         8.43107          7.3618         8.61145 
       0.711789         8.24613          7.2225         8.44256 
       0.717957         8.07691         7.08573         8.27943 
        0.72409         7.98253         6.95307         8.15612 
       0.730186         7.90156         6.82445         8.00178 
       0.736317         7.71383         6.69827          7.8631 
       0.742472         7.61161         6.57479         7.77611 
       0.748622         7.48447         6.45455         7.63921 
        0.75476         7.29301         6.33765         7.49447 
       0.760888         7.22487         6.22395         7.38428 
       0.767043         7.05224         6.11271         7.27975 
       0.773185         6.95927         6.00453         7.17016 
       0.779291         6.91273         5.89966         7.05949 
       0.785407         6.76424          5.7972         6.93751 
       0.791564         6.66488         5.69655         6.83495 
       0.797719         6.53866         5.59835         6.71041 
       0.803834         6.46352         5.50308          6.6128 
       0.809972         6.34124         5.40966         6.54443 
       0.816124         6.25076         5.31819         6.42159 
       0.822261         6.16398         5.22907         6.32363 
       0.828378         6.06374         5.14226         6.23447 
       0.834502         5.97859         5.05736         6.13993 
       0.840667         5.91052         4.97383         6.05073 
       0.846816         5.79082         4.89243         5.97767 
       0.852925          5.7143         4.81339         5.89471 
       0.859047         5.63165         4.73595          5.8174 
       0.865192         5.54569         4.65998          5.7276 
       0.871341         5.46405         4.58564         5.65397 
       0.877463         5.38299         4.51328         5.56301 
       0.883569         5.31692         4.44268         5.49577 
       0.889708         5.23906         4.37324         5.42107 
       0.895864         5.16643         4.30512         5.33898 
       0.902008          5.0794          4.2386         5.27486 
       0.908149         5.01291         4.17353         5.19965 
       0.914301         4.95782         4.10973         5.13838 
       0.920448         4.88937         4.04733         5.05364 
       0.926574         4.84734         3.98646         5.00139 
       0.932687         4.76171         3.92697         4.90602 
       0.938823         4.67715         3.86848         4.87075 
       0.944975         4.64048         3.81106         4.79502 
       0.951105          4.5514         3.75502         4.72913 
       0.957225          4.5153         3.70021         4.68678 
       0.963368         4.45952         3.64632         4.61799 
       0.969511         4.40195          3.5935         4.56517 
       0.975621         4.33478         3.54202         4.49009 
       0.981748         4.25631         3.49142         4.43688 
       0.987916         4.21576          3.4415         4.39633 
        0.99406         4.18045         3.39275         4.34413 
        1.00019         4.12781         3.34505         4.29846 
        1.00632         4.08336         3.29831         4.23718 
        1.01246         4.02116          3.2524         4.19085 
        1.01859         3.97003         3.20745         4.13329 
        1.02471         3.90541         3.16341         4.07409 
        1.03085         3.87623         3.12004          4.0278 
        1.03698         3.82855         3.07759         3.98698 
        1.04314          3.7845         3.03575         3.93829 
        1.04929         3.73008         2.99479         3.89473 
        1.05541         3.68227         2.95476         3.85538 
        1.06154         3.64972         2.91536         3.81089 
        1.06769         3.62194         2.87662         3.77246 
        1.07382         3.55753         2.83872         3.72575 
        1.07993         3.51171         2.80159         3.67991 
        1.08607          3.4859         2.76497         3.64111 
        1.09222         3.43223         2.72898         3.59462 
        1.09836         3.42039         2.69367         3.55378 
        1.10449         3.34471         2.65903         3.51994 
        1.11063         3.32106         2.62496         3.47522 
        1.11677          3.2867         2.59151         3.44283 
         1.1229         3.24491         2.55869         3.41039 
        1.12903         3.21997         2.52643         3.37428 
        1.13518         3.16911         2.49469         3.33784 
        1.14131         3.13456         2.46352         3.29502 
        1.14745         3.09694          2.4329         3.25468 
        1.15359         3.06638         2.40279         3.23206 
        1.15973         3.03057         2.37319         3.19527 
        1.16584         3.00169         2.34422         3.16482 
        1.17197         2.96358         2.31569         3.12978 
        1.17811         2.93089         2.28755         3.09695 
        1.18424         2.89946         2.25997         3.06175 
        1.19038          2.8703         2.23276         3.03164 
        1.19652         2.84604         2.20601         3.00815 
        1.20267         2.81946          2.1797         2.96622 
        1.20881         2.78264         2.15383          2.9412 
        1.21495         2.75644         2.12842         2.91866 
        1.22108         2.72876         2.10342         2.88726 
         1.2272         2.68906         2.07889           2.851 
        1.23334         2.67729         2.05469         2.82943 
        1.23949         2.64295         2.03083         2.80909 
        1.24562         2.61831         2.00741         2.77984 
        1.25174         2.59735          1.9844         2.74465 
        1.25789         2.55801         1.96167          2.7178 
        1.26402          2.5343         1.93935         2.68861 
        1.27014         2.50824         1.91743         2.67034 
        1.27628         2.48357         1.89578         2.64712 
        1.28244         2.46277         1.87443         2.61747 
        1.28858         2.44004         1.85344         2.59147 
        1.29471         2.40598         1.83281         2.56666 
        1.30084         2.38548         1.81252         2.55006 
        1.30697         2.36855         1.79251         2.52359 
        1.31312          2.3442         1.77277         2.49937 
        1.31925         2.32122         1.75339         2.48231 
        1.32537         2.30126         1.73433         2.45851 
        1.33151         2.27432         1.71547         2.43534 
        1.33765         2.25538         1.69692         2.41267 
        1.34378         2.23665         1.67867         2.39436 
        1.34992         2.21625         1.66068         2.37139 
        1.35606         2.19489         1.64292         2.34351 
         1.3622         2.17559         1.62544         2.32524 
        1.36833         2.14953         1.60827         2.31307 
        1.37445         2.12793         1.59135         2.29088 
        1.38059         2.10947         1.57462          2.2697 
        1.38675         2.09167          1.5581          2.2447 
        1.39288         2.07851         1.54188         2.23161 
        1.39901          2.0515          1.5259         2.21241 
        1.40515         2.03366          1.5101         2.19046 
         1.4113         2.02137         1.49454         2.17443 
        1.41742         1.99643         1.47926         2.15963 
        1.42355         1.97795         1.46416         2.13103 
         1.4297         1.96586         1.44923          2.1242 
        1.43585          1.9465         1.43451          2.1082 
        1.44198         1.92894         1.42006          2.0815 
        1.44809         1.91473         1.40583         2.07062 
        1.45423         1.89712         1.39174         2.04788 
        1.46036         1.88201         1.37788         2.03206 
        1.46649         1.85689         1.36419         2.01994 
        1.47263          1.8499         1.35069         2.00302 
        1.47877         1.83702         1.33737         1.98323 
        1.48491         1.81207         1.32421         1.97031 
        1.49104         1.80104         1.31126         1.95131 
        1.49718         1.78455         1.29847         1.93834 
        1.50333         1.76914         1.28583         1.92299 
        1.50947         1.75411         1.27339         1.90599 
         1.5156         1.73959         1.26113         1.89267 
        1.52172         1.72658         1.24903          1.8803 
        1.52787         1.71183         1.23707         1.86049 
          1.534         1.69902         1.22527         1.84701 
        1.54013         1.68264         1.21365         1.83321 
        1.54627         1.66903         1.20215         1.81742 
        1.55241         1.65246          1.1908         1.80409 
        1.55855         1.64182         1.17962         1.78975 
        1.56467          1.6294          1.1686         1.77831 
         1.5708         1.61493          1.1577         1.76266 
        1.57695         1.59892         1.14692         1.74962 
        1.58308         1.58472         1.13631         1.74062 
        1.58922         1.57865         1.12582         1.72582 
        1.59535         1.55983         1.11547          1.7129 
         1.6015         1.54712         1.10523         1.69943 
        1.60764         1.53847         1.09513         1.68771 
        1.61376         1.52264         1.08518         1.67822 
        1.61989         1.51201         1.07535         1.66449 
        1.62604         1.49711         1.06562         1.65241 
        1.63218         1.49123         1.05602         1.64142 
        1.63831           1.479         1.04655         1.62888 
        1.64444         1.46557          1.0372         1.61567 
        1.65059         1.45755         1.02794         1.60419 
        1.65673         1.44108          1.0188         1.59354 
        1.66285         1.43052         1.00981         1.58165 
        1.66898          1.4217         1.00091         1.56873 
        1.67512         1.40665        0.992108          1.5591 
        1.68127         1.39621        0.983402         1.55083 
         1.6874         1.39158         0.97482         1.54077 
        1.69353         1.37571        0.966346         1.52759 
        1.69967         1.36658        0.957953          1.5155 
        1.70581         1.36014        0.949663         1.50728 
        1.71193         1.34281        0.941503         1.49925 
        1.71806         1.33555        0.933421         1.48576 
        1.72421         1.32775        0.925419           1.475 
        1.73035         1.31296         0.91752         1.46594 
        1.73649         1.30924        0.909714         1.45577 
        1.74262         1.29707        0.902006         1.44535 
        1.74876          1.2874        0.894382         1.43755 
        1.75489         1.27824        0.886862         1.42845 
        1.76101           1.266        0.879432         1.41625 
        1.76715         1.25977        0.872076         1.40649 
        1.77329         1.24961        0.864795         1.39788 
        1.77943         1.24149        0.857595         1.38864 
        1.78557         1.23405        0.850487         1.37912 
        1.79171         1.22563        0.843459         1.37038 
        1.79785          1.2156        0.836508         1.36191 
        1.80399         1.20626        0.829638         1.35266 
        1.81012         1.19699        0.822854          1.3429 
        1.81625         1.18659        0.816149         1.33408 
        1.82239         1.18043        0.809509         1.32714 
        1.82853         1.17197        0.802946         1.32128 
        1.83466         1.16162        0.796462         1.31339 
        1.84078         1.15454        0.790056         1.30342 
        1.84692         1.14697        0.783711         1.29399 
        1.85306         1.14121        0.777427         1.28478 
         1.8592         1.13005        0.771222         1.27699 
        1.86533         1.12398        0.765089         1.27062 
        1.87147         1.11438        0.759015         1.26201 
