# k  (h/Mpc)    P(k)  (Mpc/h)^3    P_linear(k)  (Mpc/h)^3     P_NL(k)  ShotnoiseSubtracted = false
     0.00783031         15054.5         15118.7         15044.7 
       0.013688         18400.1         18896.1           18767 
       0.019231         19074.2         19381.8         19209.9 
      0.0249154         18149.6         18132.6         17951.1 
      0.0312784         15645.2         15834.6           15650 
      0.0375637           13231         13495.4         13333.6 
      0.0433917         11588.6           11678         11508.3 
      0.0492413         10159.4         10313.1         10156.7 
      0.0555754         9229.65         9298.32         9159.52 
      0.0619321         8275.93         8606.05         8469.87 
       0.067871         7891.48         8091.46         7964.53 
      0.0738098         7454.19         7578.64         7381.14 
      0.0800417         6865.22         6970.05         6795.84 
      0.0862327         6173.58         6291.32         6206.46 
      0.0921407         5565.87         5621.97         5565.11 
      0.0982031         5030.38         4979.07         5021.72 
       0.104506         4430.54            4416          4536.9 
       0.110769         4055.28         3990.67         4077.77 
       0.116806          3844.5         3702.07         3781.06 
       0.122832         3613.24         3504.94         3589.46 
       0.129052         3434.46         3355.65         3428.45 
       0.135211         3358.07         3220.23         3283.23 
       0.141259         3138.58         3068.98         3162.72 
       0.147318         2928.34         2886.37         3019.25 
       0.153489         2755.12         2673.22         2780.07 
       0.159709          2627.2         2448.84          2610.7 
       0.165845         2384.84         2239.94         2475.26 
       0.171974         2301.55         2061.01         2304.76 
       0.178125         2207.18          1919.7         2205.72 
       0.184229         2031.24         1816.38         2081.71 
        0.19034          2002.4         1741.49          1996.2 
       0.196428         1948.89         1683.12         1917.54 
       0.202534         1837.58         1628.27         1867.51 
       0.208729         1807.79         1566.49         1786.02 
       0.214876         1730.56         1494.44         1752.94 
       0.220989         1641.62         1413.13         1698.41 
       0.227147         1593.76         1326.75         1634.97 
        0.23329         1527.32         1243.02         1577.58 
       0.239377          1512.2         1168.48         1504.94 
       0.245482         1437.08         1105.63         1430.01 
       0.251667         1383.52         1054.79         1389.88 
       0.257832         1361.21         1014.89         1340.26 
       0.263955         1300.07          982.16         1302.15 
       0.270079         1266.32         952.153         1270.05 
        0.27624         1214.55          921.17         1236.32 
       0.282372         1199.53         887.499         1215.45 
        0.28843         1179.92         851.242         1189.68 
       0.294538         1124.65         812.799          1155.8 
       0.300721         1101.85         774.109          1119.5 
        0.30691          1075.5         737.679         1099.03 
       0.313033         1032.34          705.51         1059.88 
       0.319153         1020.13         677.748         1027.59 
       0.325316         1007.21         653.984         1008.06 
        0.33145         984.951          633.45         972.685 
       0.337538         952.195         614.883          957.11 
       0.343633         930.015         596.805         948.319 
       0.349808           912.4         578.176         934.147 
       0.355968         894.443         558.828         918.605 
       0.362074         865.846         539.123          901.03 
       0.368217          863.44         519.255         877.243 
       0.374374         850.025         499.974         859.142 
       0.380519         819.336         481.991         839.544 
       0.386598         814.294         465.724         828.441 
       0.392688         793.608         451.066         807.108 
        0.39888         776.729         437.591          794.38 
       0.405048          761.19         425.211         781.845 
       0.411186         759.504         413.519         766.887 
       0.417313         754.367         402.076         756.756 
       0.423458         732.036         390.603         745.004 
       0.429607          711.95         379.113         732.235 
       0.435692         704.965          367.78         716.783 
       0.441815         691.711         356.608         712.924 
       0.447964         682.132         345.844         702.272 
       0.454126          673.77         335.646         682.201 
       0.460267         664.441         326.129         680.076 
       0.466387         652.924         317.307         667.653 
        0.47254         642.924         308.986         658.273 
       0.478662         632.984         301.108         647.888 
       0.484765         625.964         293.533         639.874 
       0.490885         619.481         286.127         628.915 
       0.497035         606.991         278.799         623.021 
       0.503198         606.277         271.555         615.651 
       0.509342         594.781         264.486         605.613 
       0.515458         583.072          257.66         601.228 
       0.521598         580.215         251.059         594.107 
       0.527764         567.397         244.709          587.86 
       0.533884         562.213         238.705         580.375 
           0.54         557.274         233.002         572.488 
       0.546137         548.636         227.527         565.723 
       0.552299         546.071         222.228         557.873 
       0.558452         538.317         217.093         553.352 
       0.564573          534.34         212.118         548.872 
       0.570708         528.362         207.255         542.779 
       0.576825         518.056         202.523         534.397 
       0.582926         516.535         197.917         530.238 
       0.589034         508.599         193.434         522.291 
       0.595184         503.931         189.065         516.835 
       0.601379          496.28         184.826         511.921 
       0.607522         488.013         180.783         504.691 
       0.613639         487.237           176.9         503.408 
       0.619772         484.149         173.134         501.736 
       0.625918         475.339         169.473         493.831 
       0.632068         473.196          165.91         490.533 
       0.638161         467.783         162.475         483.865 
         0.6443         462.246         159.107         480.143 
       0.650464         457.965         155.816         472.403 
       0.656582         454.237         152.636          469.81 
       0.662703         449.903          149.54         466.759 
       0.668861         443.563         146.511         464.153 
       0.675024         441.659         143.566         460.486 
       0.681124         433.593         140.735         453.037 
       0.687237         432.966         137.983         449.024 
       0.693381         426.295         135.298         445.103 
       0.699536         425.935         132.684         442.134 
       0.705665         419.893         130.153         436.719 
       0.711789         418.594          127.69         433.933 
       0.717957          412.94         125.272         432.835 
        0.72409         408.826         122.927         428.011 
       0.730186         409.432         120.653         423.815 
       0.736317         402.449         118.422         420.467 
       0.742472         399.117         116.239         416.937 
       0.748622         396.885         114.113         413.179 
        0.75476         393.101         112.046         413.825 
       0.760888          390.41         110.036         408.082 
       0.767043         387.166         108.069         403.973 
       0.773185         384.207         106.157         401.475 
       0.779291          380.05         104.303         397.845 
       0.785407         377.472         102.491         395.592 
       0.791564         375.245         100.712          393.34 
       0.797719          369.31         98.9758         389.469 
       0.803834         370.903         97.2914         387.683 
       0.809972          364.72         95.6397         385.048 
       0.816124         361.628         94.0226         380.087 
       0.822261         359.098         92.4471         378.567 
       0.828378         357.537         90.9124         375.622 
       0.834502         351.714         89.4113         374.118 
       0.840667         351.851         87.9345          370.69 
       0.846816         346.767         86.4955         368.206 
       0.852925         347.139         85.0981         366.065 
       0.859047         343.614          83.729         362.954 
       0.865192         341.869         82.3859          360.04 
       0.871341         337.326         81.0717         358.249 
       0.877463         336.013         79.7923         356.037 
       0.883569          333.23         78.5441         354.564 
       0.889708         329.955         77.3164         350.929 
       0.895864         326.466         76.1121         349.085 
       0.902008         325.325          74.936         346.548 
       0.908149         322.239         73.7857         343.648 
       0.914301         320.816         72.6578         340.976 
       0.920448         317.854         71.5546         339.589 
       0.926574         315.963         70.4783         337.037 
       0.932687          314.89         69.4266          334.75 
       0.938823         311.282         68.3926         334.083 
       0.944975         310.538         67.3775         331.121 
       0.951105         307.385         66.3867         328.706 
       0.957225         303.951         65.4177         327.028 
       0.963368         304.383         64.4649         325.112 
       0.969511         299.009         63.5311         323.019 
       0.975621         297.751          62.621         320.921 
       0.981748         296.778         61.7264         319.151 
       0.987916          294.77         60.8439          317.63 
        0.99406         291.776          59.982         315.467 
        1.00019         289.322         59.1386         312.619 
        1.00632         288.967         58.3123         310.788 
        1.01246         286.308         57.5007         308.494 
        1.01859         283.326         56.7059         306.721 
        1.02471          281.57         55.9273         305.507 
        1.03085         280.574         55.1606         304.286 
        1.03698         279.022         54.4101         303.035 
        1.04314          277.47         53.6704         300.711 
        1.04929         275.906         52.9463         298.231 
        1.05541         273.058         52.2385         296.536 
        1.06154          271.14         51.5419         295.115 
        1.06769         268.981         50.8571         293.196 
        1.07382         267.193          50.187         291.604 
        1.07993         265.839         49.5305         290.186 
        1.08607          264.47         48.8832         287.926 
        1.09222         261.953         48.2468         286.481 
        1.09836         261.023         47.6225         285.424 
        1.10449         259.229         47.0101         283.805 
        1.11063          257.39         46.4078           281.7 
        1.11677         254.848         45.8163         280.119 
         1.1229         254.516         45.2363         278.659 
        1.12903         251.979         44.6658         277.335 
        1.13518         250.308         44.1047         275.475 
        1.14131         249.357         43.5536         273.956 
        1.14745         246.634         43.0122         272.212 
        1.15359         244.896           42.48         271.266 
        1.15973         243.909         41.9566         269.672 
        1.16584         242.254         41.4445         268.329 
        1.17197         240.992         40.9401         267.183 
        1.17811         238.598         40.4427          265.43 
        1.18424         237.414         39.9549         264.045 
        1.19038         236.459         39.4739         263.219 
        1.19652         233.619          39.001          261.26 
        1.20267         233.144         38.5359         259.841 
        1.20881         231.235         38.0784         258.549 
        1.21495         230.494         37.6292         256.973 
        1.22108         228.732         37.1873          255.38 
         1.2272          226.34         36.7536          253.98 
        1.23334         225.535         36.3258         252.795 
        1.23949         224.177         35.9039         251.718 
        1.24562         222.819         35.4898           250.1 
        1.25174         221.606          35.083         248.914 
        1.25789         219.453         34.6813         247.464 
        1.26402         219.011         34.2866         246.796 
        1.27014         217.879          33.899         245.042 
        1.27628         216.138         33.5163          244.52 
        1.28244         214.309         33.1388         243.352 
        1.28858          213.31         32.7677         241.775 
        1.29471         211.959         32.4031         239.861 
        1.30084         211.249         32.0443         238.813 
        1.30697         209.078         31.6905         237.939 
        1.31312         207.903         31.3416         236.478 
        1.31925          206.62          30.999         235.364 
        1.32537         205.893         30.6619         233.984 
        1.33151         204.201         30.3286         232.921 
        1.33765         202.727         30.0005         231.934 
        1.34378         202.033         29.6779          230.77 
        1.34992         200.044         29.3599         229.309 
        1.35606         199.306         29.0458         227.957 
         1.3622         197.725         28.7369         227.246 
        1.36833         196.912         28.4333         226.324 
        1.37445         196.441         28.1342         224.409 
        1.38059         193.989         27.8385         223.781 
        1.38675         192.765         27.5463         222.993 
        1.39288         191.884         27.2595         221.105 
        1.39901         190.235         26.9769         220.187 
        1.40515         189.681         26.6977         219.116 
         1.4113         188.299         26.4226         217.918 
        1.41742         186.827         26.1524         217.059 
        1.42355         186.454         25.8855         215.771 
         1.4297          185.02         25.6215         214.697 
        1.43585         184.199         25.3614         214.136 
        1.44198         182.513         25.1058         212.932 
        1.44809         181.755         24.8542         212.003 
        1.45423         180.672         24.6052         210.356 
        1.46036          179.62         24.3601         209.571 
        1.46649         178.385         24.1182         208.905 
        1.47263         177.604         23.8794         207.672 
        1.47877         176.348         23.6439         206.386 
        1.48491         174.953         23.4113         205.237 
        1.49104         173.385         23.1823         204.649 
        1.49718         173.042         22.9562         203.871 
        1.50333         171.346         22.7328         202.751 
        1.50947         170.687         22.5128         201.872 
         1.5156          169.63          22.296         200.847 
        1.52172         168.739         22.0821         199.488 
        1.52787         167.765         21.8706         198.865 
          1.534         167.052         21.6621         197.973 
        1.54013         165.595         21.4566         196.983 
        1.54627         164.935         21.2533         196.244 
        1.55241             164         21.0527         195.341 
        1.55855         163.081         20.8549         194.228 
        1.56467         162.004         20.6602         193.238 
         1.5708         160.661         20.4675         192.352 
        1.57695         160.051          20.277         191.467 
        1.58308         158.937         20.0893         190.532 
        1.58922         157.961         19.9038         189.594 
        1.59535           156.8         19.7208         188.911 
         1.6015         156.126         19.5399         188.076 
        1.60764         154.968         19.3613          187.05 
        1.61376         153.929         19.1854         186.191 
        1.61989         153.242         19.0116         185.349 
        1.62604         152.309         18.8395         184.309 
        1.63218         151.493         18.6697         183.492 
        1.63831         150.612         18.5024         182.875 
        1.64444          149.32         18.3371         181.959 
        1.65059         148.686         18.1734         181.184 
        1.65673         147.758         18.0119         180.302 
        1.66285         147.065         17.8528         179.382 
        1.66898         146.121         17.6955         178.598 
        1.67512         145.067         17.5399         177.839 
        1.68127         144.429          17.386         177.065 
         1.6874         143.417         17.2342         176.279 
        1.69353          142.88         17.0844         175.476 
        1.69967         141.768          16.936         174.646 
        1.70581         141.238         16.7895         173.951 
        1.71193         140.167         16.6452         173.201 
        1.71806         139.017         16.5023         172.119 
        1.72421          138.41         16.3609         171.422 
        1.73035         137.595         16.2212         170.764 
        1.73649         136.581         16.0832          169.91 
        1.74262         136.019         15.9469         169.195 
        1.74876         135.275         15.8121         168.467 
        1.75489         134.764         15.6792         167.726 
        1.76101         133.448         15.5478         167.051 
        1.76715         132.698         15.4178         166.413 
        1.77329         131.796         15.2891         165.606 
        1.77943         130.989         15.1618          164.74 
        1.78557         130.261         15.0361          164.01 
        1.79171         129.566         14.9118         163.344 
        1.79785         128.657          14.789          162.62 
        1.80399         128.067         14.6675         161.844 
        1.81012         127.445         14.5476         161.312 
        1.81625         126.487          14.429         160.638 
        1.82239         125.959         14.3116         159.733 
        1.82853         124.909         14.1956         159.005 
        1.83466         123.924          14.081         158.244 
        1.84078         123.604         13.9677         157.538 
        1.84692         123.054         13.8555         157.143 
        1.85306         122.098         13.7444          156.31 
         1.8592          121.52         13.6347         155.392 
        1.86533         120.513         13.5263         155.081 
        1.87147         119.883         13.4189         154.639 
        1.87761         119.171         13.3127         153.843 
