# k  (h/Mpc)    P(k)  (Mpc/h)^3    P_linear(k)  (Mpc/h)^3     P_NL(k)  ShotnoiseSubtracted = false
     0.00783031         6168.78         6202.06         6174.58 
       0.013688         7619.94         7760.92         7720.03 
       0.019231         7886.64          7963.2         7912.51 
      0.0249154         7464.33         7451.21         7407.84 
      0.0312784         6474.91         6507.55         6474.89 
      0.0375637         5493.05         5546.53         5519.89 
      0.0433917         4796.08         4799.74         4774.13 
      0.0492413          4213.1          4238.9         4216.24 
      0.0555754         3825.74         3821.86         3800.49 
      0.0619321         3463.59         3537.37          3515.6 
       0.067871         3294.15         3325.89         3304.47 
      0.0738098            3098         3115.13          3080.9 
      0.0800417         2857.61         2864.99         2835.03 
      0.0862327         2569.43         2586.02         2573.04 
      0.0921407         2303.25          2310.9          2303.5 
      0.0982031         2065.22         2046.64          2058.6 
       0.104506         1816.07          1815.2          1841.9 
       0.110769         1652.04         1640.37         1658.82 
       0.116806         1558.28         1521.75         1538.36 
       0.122832         1460.79         1440.72         1458.76 
       0.129052         1400.34         1379.35         1394.33 
       0.135211         1358.07         1323.69         1337.88 
       0.141259         1278.86         1261.52         1280.89 
       0.147318         1190.56         1186.46         1215.96 
       0.153489         1114.04         1098.84         1121.06 
       0.159709         1043.53         1006.61         1039.94 
       0.165845         942.378         920.745         970.708 
       0.171974         900.632         847.195          896.46 
       0.178125         849.168          789.11         847.877 
       0.184229         789.471         746.637         802.378 
        0.19034         770.339         715.855         768.357 
       0.196428         746.621          691.86          736.78 
       0.202534         703.746         669.313         715.527 
       0.208729         691.766          643.92         687.107 
       0.214876          665.06         614.302         668.449 
       0.220989         619.847         580.882         640.007 
       0.227147         600.889         545.373         607.139 
        0.23329          572.47         510.957         580.327 
       0.239377         554.074         480.314         551.324 
       0.245482         522.955         454.481          520.73 
       0.251667         500.133         433.582         503.505 
       0.257832         493.416         417.183         484.381 
       0.263955          467.75         403.727         468.571 
       0.270079         452.438         391.392         455.403 
        0.27624         434.393         378.657          440.87 
       0.282372         423.717         364.816         429.024 
        0.28843         419.663         349.912         415.139 
       0.294538         398.034          334.11         402.164 
       0.300721          382.51         318.206          389.21 
        0.30691         375.002         303.231         376.453 
       0.313033         357.553         290.008         361.264 
       0.319153         350.564         278.595          350.13 
       0.325316         341.198         268.827          341.32 
        0.33145         332.371         260.387         329.137 
       0.337538         321.175         252.755         320.628 
       0.343633         311.311         245.323         315.913 
       0.349808         303.013         237.666         309.381 
       0.355968          296.17         229.712         303.008 
       0.362074         288.076         221.612         294.702 
       0.368217         283.684         213.446         284.716 
       0.374374          276.67          205.52         277.459 
       0.380519         265.068         198.128          269.52 
       0.386598         260.511         191.441         263.743 
       0.392688         253.609         185.416         256.879 
        0.39888         247.885         179.877          250.51 
       0.405048          242.82         174.788         246.736 
       0.411186         240.059         169.982         240.769 
       0.417313         234.809         165.278         234.495 
       0.423458         228.798         160.562         230.267 
       0.429607         223.469         155.839         225.731 
       0.435692         219.312          151.18         220.798 
       0.441815         214.566         146.588          217.99 
       0.447964         208.273         142.163         212.872 
       0.454126         204.769         137.971         206.812 
       0.460267         202.488         134.059         204.563 
       0.466387         198.137         130.433         200.011 
        0.47254         195.722         127.012         196.514 
       0.478662         189.508         123.774         192.782 
       0.484765         187.073          120.66         188.078 
       0.490885         183.942         117.616         185.765 
       0.497035         181.802         114.604         183.268 
       0.503198         178.892         111.626         180.023 
       0.509342          174.11          108.72         177.383 
       0.515458         171.951         105.914         175.375 
       0.521598         167.822         103.201         171.176 
       0.527764         166.087          100.59         167.899 
       0.533884         165.212         98.1224         165.589 
           0.54         160.924         95.7781         162.963 
       0.546137         157.293         93.5275         161.072 
       0.552299         155.577         91.3495         157.721 
       0.558452          152.75         89.2387         155.283 
       0.564573         151.921         87.1936         153.815 
       0.570708         147.969         85.1948         151.588 
       0.576825         146.183         83.2495         148.715 
       0.582926         144.599         81.3562         146.647 
       0.589034         142.278         79.5133         145.215 
       0.595184         140.801         77.7173         142.555 
       0.601379          137.68         75.9748         141.413 
       0.607522         135.298          74.313         138.713 
       0.613639         134.153         72.7169         137.299 
       0.619772         132.284          71.169         135.165 
       0.625918          131.18         69.6639         133.798 
       0.632068         128.371         68.1993         131.601 
       0.638161         126.695         66.7873         130.664 
         0.6443         126.057         65.4027         128.692 
       0.650464          123.51         64.0499         126.214 
       0.656582         122.901         62.7427         125.384 
       0.662703         121.328           61.47         123.525 
       0.668861         118.808         60.2251         122.242 
       0.675024         118.766         59.0143         120.487 
       0.681124         116.798         57.8509          119.21 
       0.687237         114.877         56.7194         117.694 
       0.693381         114.071         55.6157         116.166 
       0.699536         112.627         54.5413         115.274 
       0.705665         111.087         53.5008         114.452 
       0.711789         109.643         52.4885          112.31 
       0.717957         108.338         51.4945         111.317 
        0.72409         107.502         50.5304         110.716 
       0.730186         106.934         49.5957         109.443 
       0.736317         105.067         48.6787         107.856 
       0.742472         103.696         47.7813         106.831 
       0.748622         102.083         46.9075         105.553 
        0.75476         101.974         46.0579         104.353 
       0.760888         101.146         45.2316         103.029 
       0.767043         99.2229         44.4233         102.553 
       0.773185         98.0339         43.6371         101.825 
       0.779291         96.9635         42.8749         100.644 
       0.785407         95.8583         42.1303         99.2671 
       0.791564         95.5351         41.3989         98.4882 
       0.797719         94.3013         40.6852         97.8576 
       0.803834         93.6257         39.9928         96.4524 
       0.809972          92.951         39.3139         95.6404 
       0.816124         91.7354         38.6491          95.051 
       0.822261         90.5727         38.0015         93.9372 
       0.828378         90.3637         37.3706         92.6887 
       0.834502         89.0076         36.7536         92.2801 
       0.840667         88.4612         36.1466         91.7641 
       0.846816         87.6367          35.555         90.7251 
       0.852925         86.6255         34.9806         89.8371 
       0.859047         86.1904         34.4178         88.9399 
       0.865192         85.0348         33.8657         88.3946 
       0.871341         84.1566         33.3255         87.4316 
       0.877463         83.6155         32.7996         86.8563 
       0.883569          83.355         32.2865         86.2497 
       0.889708          82.544         31.7819         85.4648 
       0.895864         81.8025         31.2868         84.8608 
       0.902008         80.9612         30.8034          83.946 
       0.908149         79.9756         30.3305         83.3367 
       0.914301         79.7345         29.8669         82.8231 
       0.920448         79.4515         29.4134         82.1279 
       0.926574         77.8118          28.971         81.1889 
       0.932687         77.5597         28.5386         80.6539 
       0.938823         76.9313         28.1136         79.9552 
       0.944975         76.0134         27.6963         79.3574 
       0.951105         75.4096         27.2891         78.8393 
       0.957225         75.2664         26.8908         78.3081 
       0.963368         74.4438         26.4991         77.3949 
       0.969511         73.8551         26.1152         76.9071 
       0.975621          73.244         25.7411         76.9176 
       0.981748          72.548         25.3734         76.0528 
       0.987916         72.0029         25.0106         75.6689 
        0.99406         71.7059         24.6563         74.9201 
        1.00019         70.8215         24.3096         74.2868 
        1.00632         70.3111           23.97         73.8346 
        1.01246         69.8547         23.6364          73.202 
        1.01859         69.5632         23.3097         72.8526 
        1.02471         68.8018         22.9896         72.4899 
        1.03085         68.2632         22.6745         71.8168 
        1.03698         67.8299         22.3659         71.2375 
        1.04314          67.311         22.0619         70.7542 
        1.04929         66.7902         21.7642         70.4573 
        1.05541          66.402         21.4733         70.1423 
        1.06154         65.9909         21.1869         69.6048 
        1.06769         65.2505         20.9054         69.1467 
        1.07382          64.761           20.63         68.6471 
        1.07993          64.533         20.3601         68.1925 
        1.08607         64.0196          20.094          67.752 
        1.09222         63.7311         19.8324         67.1552 
        1.09836         63.1259         19.5758         66.7619 
        1.10449         62.7873         19.3241          66.379 
        1.11063         62.2292         19.0765           65.78 
        1.11677         61.9805         18.8334          65.359 
         1.1229         61.3921         18.5949         65.2229 
        1.12903         61.1957         18.3604         64.7175 
        1.13518         60.9479         18.1298         64.2921 
        1.14131         60.2985         17.9032         63.9178 
        1.14745         59.8519         17.6807         63.5612 
        1.15359         59.1858         17.4619         63.1919 
        1.15973         59.1726         17.2468         62.8442 
        1.16584         58.7113         17.0363         62.3184 
        1.17197         58.1281         16.8289         62.0721 
        1.17811         57.8548         16.6245         61.5884 
        1.18424         57.1657          16.424          61.263 
        1.19038          57.098         16.2262         60.9977 
        1.19652         56.7956         16.0318         60.4948 
        1.20267         56.3415         15.8406         60.2676 
        1.20881         55.9732         15.6526         59.8633 
        1.21495         55.7226         15.4679         59.5423 
        1.22108          55.523         15.2863         59.2543 
         1.2272         54.9321          15.108          58.934 
        1.23334         54.6726         14.9322         58.5619 
        1.23949         54.3351         14.7587          58.127 
        1.24562         53.9293         14.5885         57.8719 
        1.25174         53.5826         14.4213         57.6427 
        1.25789         53.5616         14.2562         57.2334 
        1.26402         53.0867         14.0939         56.8975 
        1.27014         52.8545         13.9346         56.7115 
        1.27628         52.3014         13.7773         56.3691 
        1.28244         52.2203         13.6221         55.9775 
        1.28858         51.8168         13.4696         55.7159 
        1.29471         51.4748         13.3197         55.5269 
        1.30084         51.0268         13.1722         55.0085 
        1.30697         51.0547         13.0268         54.7176 
        1.31312         50.5698         12.8833         54.6107 
        1.31925         50.1927         12.7425         54.2472 
        1.32537         49.9504         12.6039         53.9569 
        1.33151         49.6554         12.4669         53.6852 
        1.33765         49.4086         12.3321         53.4052 
        1.34378         49.2064         12.1995         53.1202 
        1.34992         48.8413         12.0687         52.8953 
        1.35606            48.5         11.9396          52.664 
         1.3622         48.2633         11.8127         52.3586 
        1.36833          48.039         11.6878          52.061 
        1.37445         47.5822         11.5649         51.8255 
        1.38059          47.496         11.4433         51.7384 
        1.38675         46.9778         11.3232          51.313 
        1.39288         46.9857         11.2054         51.1504 
        1.39901         46.5759         11.0892         50.8668 
        1.40515         46.3861         10.9744         50.6273 
         1.4113         46.3155         10.8613         50.4032 
        1.41742         45.9389         10.7503         50.0977 
        1.42355         45.6085         10.6406         49.8381 
         1.4297         45.4025         10.5321         49.5676 
        1.43585         45.0867         10.4251         49.4211 
        1.44198         44.8035           10.32         49.2397 
        1.44809         44.5311         10.2166         48.8268 
        1.45423         44.3838         10.1143         48.6229 
        1.46036         44.1551         10.0135         48.4569 
        1.46649         43.9382         9.91407         48.2824 
        1.47263         43.6631         9.81592         48.0756 
        1.47877         43.4868         9.71913         47.7711 
        1.48491         43.2734         9.62351         47.5591 
        1.49104         42.8988         9.52937         47.2836 
        1.49718         42.7741         9.43643         47.1035 
        1.50333         42.6129         9.34459         46.8989 
        1.50947         42.2797         9.25415         46.6913 
         1.5156         42.1197         9.16505         46.5104 
        1.52172         41.7995         9.07712         46.3126 
        1.52787         41.6282         8.99018         46.0886 
          1.534         41.3956         8.90447          45.884 
        1.54013         41.3375         8.81998         45.6694 
        1.54627          40.919         8.73644         45.4457 
        1.55241         40.7084         8.65396         45.2324 
        1.55855         40.6497         8.57267         45.0196 
        1.56467         40.3535         8.49265         44.8332 
         1.5708         40.2148         8.41342         44.6959 
        1.57695         39.9801          8.3351         44.5337 
        1.58308         39.6766         8.25795         44.3043 
        1.58922         39.5006         8.18173         44.0769 
        1.59535         39.3694          8.1065         43.8918 
         1.6015          39.288         8.03211         43.6799 
        1.60764         38.9794         7.95869         43.4949 
        1.61376         38.7379          7.8864         43.3581 
        1.61989          38.507         7.81495          43.141 
        1.62604          38.341         7.74423         42.9301 
        1.63218          38.121         7.67443         42.7701 
        1.63831         38.0178         7.60565         42.6224 
        1.64444         37.7905         7.53769         42.4279 
        1.65059         37.5843          7.4704         42.2361 
        1.65673         37.3837           7.404         42.0486 
        1.66285         37.3095          7.3386         41.8942 
        1.66898          36.963         7.27397         41.7762 
        1.67512         36.9046         7.20999         41.6107 
        1.68127         36.6824         7.14672          41.369 
         1.6874         36.4867         7.08435         41.1326 
        1.69353         36.4015         7.02277         40.9946 
        1.69967         36.2409         6.96177         40.8806 
        1.70581         35.9212         6.90153         40.7807 
        1.71193         35.7603         6.84222         40.6198 
        1.71806         35.6433         6.78349         40.3239 
        1.72421         35.4497         6.72533         40.1421 
        1.73035         35.2617         6.66793         40.0967 
        1.73649         35.0129          6.6112         40.0056 
        1.74262         34.7974         6.55519         39.6738 
        1.74876         34.7782         6.49978         39.4782 
        1.75489         34.5383         6.44513         39.3951 
        1.76101         34.4173         6.39113         39.2644 
        1.76715         34.3134         6.33767         39.1098 
        1.77329         33.9811         6.28476         38.9499 
        1.77943         33.9784         6.23243         38.7892 
        1.78557         33.8129         6.18078         38.6292 
        1.79171         33.6591          6.1297         38.4715 
        1.79785         33.4577         6.07919          38.353 
        1.80399         33.3047         6.02926         38.2592 
        1.81012         33.1972         5.97996         38.0167 
        1.81625         32.8951         5.93123         37.8049 
        1.82239          32.773         5.88298          37.724 
        1.82853         32.6643         5.83528         37.6173 
        1.83466         32.4769         5.78816         37.4489 
        1.84078          32.337          5.7416         37.2777 
        1.84692         32.1749         5.69549         37.1815 
        1.85306         31.9687         5.64983         37.0557 
         1.8592         31.9263         5.60473         36.8974 
        1.86533         31.7436         5.56016         36.7766 
        1.87147         31.5801         5.51602         36.6449 
        1.87761         31.3794         5.47234         36.4812 
