# k  (h/Mpc)    Pcb(k)  (Mpc/h)^3    Pcb_linear(k) (Mpc/h)^3    Pcb_NL(k) (Mpc/h)^3   ShotnoiseSubtracted = false
     0.00783031         6219.48         6253.03         6225.33 
       0.013688         7682.56          7824.7         7783.48 
       0.019231         7951.45         8028.64         7977.54 
      0.0249154         7525.67         7512.45         7468.72 
      0.0312784         6528.13         6561.03          6528.1 
      0.0375637         5538.19         5592.11         5565.25 
      0.0433917         4835.49         4839.19         4813.37 
      0.0492413         4247.72         4273.74         4250.89 
      0.0555754         3857.18         3853.27         3831.72 
      0.0619321         3492.05         3566.44         3544.49 
       0.067871         3321.22         3353.23         3331.62 
      0.0738098         3123.46         3140.73         3106.22 
      0.0800417          2881.1         2888.54         2858.33 
      0.0862327         2590.55         2607.27         2594.19 
      0.0921407         2322.18         2329.89         2322.43 
      0.0982031         2082.19         2063.46         2075.52 
       0.104506         1830.99         1830.12         1857.03 
       0.110769         1665.61         1653.86         1672.45 
       0.116806         1571.08         1534.25            1551 
       0.122832         1472.79         1452.56         1470.75 
       0.129052         1411.85         1390.69         1405.78 
       0.135211         1369.23         1334.57         1348.87 
       0.141259         1289.37         1271.89         1291.42 
       0.147318         1200.34         1196.21         1225.96 
       0.153489          1123.2         1107.87         1130.27 
       0.159709         1052.11         1014.89         1048.49 
       0.165845         950.123         928.312         978.686 
       0.171974         908.034         854.157         903.827 
       0.178125         856.147         795.594         854.844 
       0.184229         795.959         752.772         808.971 
        0.19034          776.67         721.738         774.671 
       0.196428         752.757         697.545         742.835 
       0.202534          709.53         674.814         721.407 
       0.208729         697.451         649.211         692.753 
       0.214876         670.525          619.35         673.942 
       0.220989         624.941         585.655         645.267 
       0.227147         605.827         549.855         612.129 
        0.23329         577.175         515.156         585.096 
       0.239377         558.627         484.261         555.855 
       0.245482         527.252         458.218         525.011 
       0.251667         504.243         437.147         507.646 
       0.257832         497.471         420.611         488.362 
       0.263955         471.594         407.045         472.422 
       0.270079         456.156         394.607         459.144 
        0.27624         437.963         381.768         444.492 
       0.282372         427.199         367.814          432.55 
        0.28843         423.112         352.786         418.549 
       0.294538         401.306         336.856          405.47 
       0.300721         385.653         320.821         392.409 
        0.30691         378.083         305.723         379.547 
       0.313033         360.491          292.39         364.232 
       0.319153         353.445         280.886         353.009 
       0.325316         344.002         271.037         344.125 
        0.33145         335.102         262.526         331.841 
       0.337538         323.814         254.832         323.263 
       0.343633          313.87          247.34          318.51 
       0.349808         305.503         239.617         311.921 
       0.355968         298.604         231.601         305.499 
       0.362074         290.443         223.434         297.124 
       0.368217         286.015           215.2         287.055 
       0.374374         278.944          207.21          279.74 
       0.380519         267.246         199.756         271.735 
       0.386598         262.652         193.014         265.911 
       0.392688         255.693          186.94          258.99 
        0.39888         249.922         181.355         252.569 
       0.405048         244.815         176.224         248.764 
       0.411186         242.032         171.379         242.747 
       0.417313         236.739         166.636         236.422 
       0.423458         230.678         161.881         232.159 
       0.429607         225.306         157.119         227.585 
       0.435692         221.114         152.423         222.613 
       0.441815         216.329         147.793         219.782 
       0.447964         209.985         143.332         214.622 
       0.454126         206.452         139.105         208.512 
       0.460267         204.152         135.162         206.246 
       0.466387         199.765         131.504         201.654 
        0.47254         197.331         128.056         198.129 
       0.478662         191.065         124.791         194.367 
       0.484765          188.61         121.652         189.623 
       0.490885         185.453         118.582         187.291 
       0.497035         183.296         115.545         184.775 
       0.503198         180.363         112.543         181.502 
       0.509342          175.54         109.614         178.841 
       0.515458         173.364         106.785         176.816 
       0.521598         169.201         104.049         172.583 
       0.527764         167.452         101.417         169.279 
       0.533884          166.57         98.9288          166.95 
           0.54         162.246         96.5652         164.303 
       0.546137         158.586         94.2962         162.396 
       0.552299         156.856         92.1001         159.017 
       0.558452         154.006         89.9722         156.559 
       0.564573         153.169         87.9102          155.08 
       0.570708         149.185         85.8949         152.833 
       0.576825         147.384         83.9335         149.937 
       0.582926         145.788         82.0249         147.852 
       0.589034         143.447         80.1666         146.408 
       0.595184         141.958         78.3561         143.727 
       0.601379         138.812         76.5993         142.575 
       0.607522          136.41         74.9236         139.853 
       0.613639         135.256         73.3146         138.427 
       0.619772         133.371         71.7539         136.275 
       0.625918         132.258         70.2363         134.897 
       0.632068         129.426         68.7598         132.683 
       0.638161         127.736         67.3362         131.738 
         0.6443         127.093         65.9402         129.749 
       0.650464         124.525         64.5762         127.252 
       0.656582         123.911         63.2583         126.414 
       0.662703         122.325         61.9752         124.541 
       0.668861         119.785           60.72         123.246 
       0.675024         119.742         59.4993         121.477 
       0.681124         117.758         58.3264         120.189 
       0.687237         115.821         57.1856         118.661 
       0.693381         115.008         56.0727         117.121 
       0.699536         113.552         54.9895         116.222 
       0.705665             112         53.9405         115.393 
       0.711789         110.544         52.9198         113.233 
       0.717957         109.229         51.9177         112.232 
        0.72409         108.385         50.9457         111.626 
       0.730186         107.813         50.0033         110.342 
       0.736317         105.931         49.0788         108.742 
       0.742472         104.548          48.174         107.709 
       0.748622         102.922          47.293          106.42 
        0.75476         102.812         46.4365         105.211 
       0.760888         101.977         45.6034         103.876 
       0.767043         100.038         44.7883         103.396 
       0.773185         98.8396         43.9957         102.662 
       0.779291         97.7603         43.2273         101.471 
       0.785407         96.6461         42.4765         100.083 
       0.791564         96.3202         41.7391         99.2976 
       0.797719         95.0763         41.0196         98.6617 
       0.803834         94.3951         40.3215         97.2451 
       0.809972         93.7149          39.637         96.4264 
       0.816124         92.4894         38.9668         95.8321 
       0.822261         91.3171         38.3138         94.7092 
       0.828378         91.1063         37.6778         93.4504 
       0.834502         89.7391         37.0556         93.0385 
       0.840667         89.1882         36.4436         92.5183 
       0.846816         88.3569         35.8472         91.4707 
       0.852925         87.3374         35.2681         90.5754 
       0.859047         86.8987         34.7007         89.6708 
       0.865192         85.7337          34.144          89.121 
       0.871341         84.8483         33.5994         88.1502 
       0.877463         84.3027         33.0692         87.5701 
       0.883569           84.04         32.5519         86.9585 
       0.889708         83.2224         32.0431         86.1672 
       0.895864         82.4748         31.5439         85.5582 
       0.902008         81.6266         31.0565         84.6359 
       0.908149         80.6328         30.5798         84.0215 
       0.914301         80.3898         30.1123         83.5038 
       0.920448         80.1045         29.6551         82.8028 
       0.926574         78.4513         29.2091         81.8562 
       0.932687         78.1971         28.7732         81.3168 
       0.938823         77.5636         28.3447         80.6123 
       0.944975         76.6381          27.924         80.0096 
       0.951105         76.0294         27.5133         79.4872 
       0.957225         75.8849         27.1117         78.9516 
       0.963368         75.0556         26.7168          78.031 
       0.969511         74.4621         26.3299         77.5391 
       0.975621         73.8459         25.9527         77.5498 
       0.981748         73.1442         25.5819         76.6779 
       0.987916         72.5947         25.2162         76.2908 
        0.99406         72.2952          24.859         75.5358 
        1.00019         71.4035         24.5094         74.8973 
        1.00632          70.889          24.167         74.4414 
        1.01246         70.4287         23.8306         73.8036 
        1.01859         70.1349         23.5012         73.4513 
        1.02471         69.3672         23.1785         73.0856 
        1.03085         68.8242         22.8608          72.407 
        1.03698         68.3874         22.5497         71.8229 
        1.04314         67.8641         22.2432         71.3357 
        1.04929         67.3391         21.9431         71.0363 
        1.05541         66.9477         21.6497         70.7188 
        1.06154         66.5332         21.3611         70.1769 
        1.06769         65.7868         21.0772         69.7149 
        1.07382         65.2932         20.7995         69.2112 
        1.07993         65.0633         20.5275         68.7529 
        1.08607         64.5458         20.2592         68.3088 
        1.09222         64.2548         19.9954         67.7071 
        1.09836         63.6447         19.7367         67.3106 
        1.10449         63.3033         19.4829         66.9245 
        1.11063         62.7406         19.2333         66.3206 
        1.11677         62.4899         18.9882         65.8962 
         1.1229         61.8966         18.7477         65.7589 
        1.12903         61.6987         18.5113         65.2493 
        1.13518         61.4487         18.2788         64.8205 
        1.14131         60.7941         18.0504         64.4431 
        1.14745         60.3438          17.826         64.0835 
        1.15359         59.6722         17.6054         63.7112 
        1.15973         59.6589         17.3885         63.3607 
        1.16584         59.1938         17.1763         62.8306 
        1.17197         58.6058         16.9672         62.5822 
        1.17811         58.3302         16.7611         62.0945 
        1.18424         57.6355         16.5589         61.7665 
        1.19038         57.5672         16.3596          61.499 
        1.19652         57.2624         16.1636          60.992 
        1.20267         56.8046         15.9708         60.7629 
        1.20881         56.4332         15.7812         60.3552 
        1.21495         56.1806         15.5951         60.0316 
        1.22108         55.9793         15.4119         59.7412 
         1.2272         55.3835         15.2322         59.4184 
        1.23334         55.1219         15.0549         59.0431 
        1.23949         54.7816           14.88         58.6047 
        1.24562         54.3725         14.7084         58.3475 
        1.25174         54.0229         14.5398         58.1164 
        1.25789         54.0018         14.3733         57.7037 
        1.26402          53.523         14.2098         57.3651 
        1.27014         53.2889         14.0491         57.1775 
        1.27628         52.7312         13.8905         56.8323 
        1.28244         52.6495         13.7341         56.4376 
        1.28858         52.2426         13.5803         56.1738 
        1.29471         51.8979         13.4291         55.9832 
        1.30084         51.4461         13.2805         55.4605 
        1.30697         51.4743         13.1338         55.1673 
        1.31312         50.9854         12.9892         55.0595 
        1.31925         50.6052         12.8472          54.693 
        1.32537         50.3609         12.7075         54.4003 
        1.33151         50.0635         12.5694         54.1264 
        1.33765         49.8147         12.4334         53.8441 
        1.34378         49.6108         12.2997         53.5568 
        1.34992         49.2427         12.1679           53.33 
        1.35606         48.8986         12.0378         53.0968 
         1.3622         48.6599         11.9097         52.7889 
        1.36833         48.4338         11.7839         52.4888 
        1.37445         47.9733         11.6599         52.2514 
        1.38059         47.8864         11.5374         52.1636 
        1.38675         47.3638         11.4163         51.7347 
        1.39288         47.3719         11.2974         51.5708 
        1.39901         46.9586         11.1803         51.2848 
        1.40515         46.7673         11.0646         51.0434 
         1.4113         46.6961         10.9506         50.8174 
        1.41742         46.3165         10.8386         50.5094 
        1.42355         45.9833          10.728         50.2477 
         1.4297         45.7756         10.6186         49.9749 
        1.43585         45.4572         10.5108         49.8272 
        1.44198         45.1717         10.4049         49.6443 
        1.44809          44.897         10.3006         49.2281 
        1.45423         44.7486         10.1974         49.0224 
        1.46036          44.518         10.0958         48.8552 
        1.46649         44.2993         9.99555         48.6792 
        1.47263          44.022         9.89659         48.4707 
        1.47877         43.8442         9.79901         48.1637 
        1.48491          43.629          9.7026         47.9499 
        1.49104         43.2513         9.60769         47.6722 
        1.49718         43.1256         9.51398         47.4906 
        1.50333         42.9631         9.42138         47.2843 
        1.50947         42.6271          9.3302          47.075 
         1.5156         42.4659         9.24037         46.8927 
        1.52172         42.1431         9.15172         46.6932 
        1.52787         41.9703         9.06406         46.4674 
          1.534         41.7358         8.97765         46.2611 
        1.54013         41.6773         8.89247         46.0447 
        1.54627         41.2552         8.80823         45.8192 
        1.55241         41.0429         8.72508         45.6041 
        1.55855         40.9838         8.64312         45.3896 
        1.56467         40.6851         8.56244         45.2016 
         1.5708         40.5453         8.48257         45.0632 
        1.57695         40.3087          8.4036         44.8997 
        1.58308         40.0026         8.32581         44.6684 
        1.58922         39.8252         8.24896         44.4391 
        1.59535         39.6929         8.17312         44.2525 
         1.6015         39.6108         8.09812         44.0389 
        1.60764         39.2997          8.0241         43.8523 
        1.61376         39.0562         7.95121         43.7144 
        1.61989         38.8234         7.87918         43.4955 
        1.62604         38.6561         7.80787         43.2829 
        1.63218         38.4343          7.7375         43.1216 
        1.63831         38.3303         7.66815         42.9727 
        1.64444         38.1011         7.59963         42.7766 
        1.65059         37.8932         7.53179         42.5832 
        1.65673         37.6909         7.46485         42.3942 
        1.66285         37.6162         7.39891         42.2385 
        1.66898         37.2668         7.33374         42.1195 
        1.67512         37.2078         7.26924         41.9527 
        1.68127         36.9838         7.20545         41.7089 
         1.6874         36.7866         7.14257         41.4706 
        1.69353         36.7007         7.08048         41.3315 
        1.69967         36.5388         7.01898         41.2165 
        1.70581         36.2164         6.95824         41.1158 
        1.71193         36.0542         6.89845         40.9536 
        1.71806         35.9362         6.83924         40.6553 
        1.72421          35.741         6.78061          40.472 
        1.73035         35.5515         6.72273         40.4262 
        1.73649         35.3007         6.66554         40.3344 
        1.74262         35.0834         6.60906         39.9998 
        1.74876          35.064          6.5532         39.8026 
        1.75489         34.8221          6.4981         39.7189 
        1.76101         34.7002         6.44365         39.5871 
        1.76715         34.5954         6.38975         39.4312 
        1.77329         34.2603         6.33641           39.27 
        1.77943         34.2577         6.28365          39.108 
        1.78557         34.0907         6.23157         38.9466 
        1.79171         33.9357         6.18007         38.7877 
        1.79785         33.7327         6.12915         38.6682 
        1.80399         33.5784         6.07881         38.5737 
        1.81012         33.4701         6.02911         38.3292 
        1.81625         33.1654         5.97998         38.1156 
        1.82239         33.0423         5.93132          38.034 
        1.82853         32.9327         5.88323         37.9264 
        1.83466         32.7438         5.83572         37.7567 
        1.84078         32.6027         5.78879          37.584 
        1.84692         32.4393          5.7423          37.487 
        1.85306         32.2314         5.69626         37.3602 
         1.8592         32.1887         5.65079         37.2007 
        1.86533         32.0045         5.60586         37.0789 
        1.87147         31.8396         5.56135         36.9461 
