# k  (h/Mpc)    P(k)  (Mpc/h)^3    P_linear(k)  (Mpc/h)^3     P_NL(k)  ShotnoiseSubtracted = false
     0.00783031         17965.4         18054.6         17963.1 
       0.013688         21894.1           22556         22390.4 
       0.019231         22703.3         23133.2         22909.2 
      0.0249154         21630.1         21641.1         21395.7 
      0.0312784         18613.2         18897.9         18638.1 
      0.0375637         15729.2         16105.8         15876.7 
      0.0433917         13785.6         13936.7         13694.9 
      0.0492413           12081         12307.8           12084 
      0.0555754         10972.7         11096.6         10899.5 
      0.0619321         9818.47         10270.4         10078.2 
       0.067871         9364.13         9656.28         9477.84 
      0.0738098         8857.89         9044.26         8767.46 
      0.0800417          8151.6         8317.96         8074.44 
      0.0862327         7333.25         7507.96         7387.69 
      0.0921407         6623.22         6709.16         6628.42 
      0.0982031         5998.82         5941.93         5997.29 
       0.104506         5288.44         5269.96         5433.23 
       0.110769         4849.33         4762.38         4883.51 
       0.116806         4599.66         4417.97         4528.12 
       0.122832         4330.34         4182.71         4299.31 
       0.129052         4104.18         4004.55         4106.62 
       0.135211         4020.25         3842.95         3929.52 
       0.141259         3751.69         3662.44         3792.89 
       0.147318         3507.35         3444.52         3624.11 
       0.153489          3304.1         3190.15         3338.46 
       0.159709         3163.75         2922.38         3144.88 
       0.165845         2879.93         2673.09         2991.74 
       0.171974         2779.88         2459.56         2793.41 
       0.178125         2677.34         2290.92          2679.4 
       0.184229         2461.05         2167.62         2527.49 
        0.19034         2432.11         2078.25         2424.99 
       0.196428         2369.09         2008.59         2333.39 
       0.202534         2240.12         1943.13         2273.81 
       0.208729         2199.54         1869.41         2174.51 
       0.214876         2104.75         1783.42         2135.16 
       0.220989          2008.6         1686.39         2074.99 
       0.227147         1948.84          1583.3          2005.5 
        0.23329         1869.23         1483.39         1936.74 
       0.239377         1857.24         1394.43         1849.91 
       0.245482         1770.07         1319.43         1761.36 
       0.251667         1705.65         1258.76          1712.3 
       0.257832         1675.87         1211.15         1653.52 
       0.263955          1605.4         1172.08         1609.43 
       0.270079         1568.57         1136.27         1570.51 
        0.27624         1504.57          1099.3         1530.38 
       0.282372         1490.48         1059.12         1510.69 
        0.28843         1459.76         1015.85         1483.51 
       0.294538          1397.6         969.972          1440.5 
       0.300721         1374.11         923.799         1395.76 
        0.30691         1336.91         880.325         1373.75 
       0.313033         1288.97         841.936         1326.46 
       0.319153         1276.46         808.804         1285.73 
       0.325316         1260.27         780.446         1263.81 
        0.33145         1232.14         755.941          1220.6 
       0.337538         1194.33         733.784         1203.67 
       0.343633         1168.79          712.21         1191.92 
       0.349808         1149.88         689.979         1176.31 
       0.355968          1125.4         666.889         1157.26 
       0.362074         1094.37         643.373         1137.38 
       0.368217         1090.72         619.664         1110.71 
       0.374374         1073.14         596.655         1088.12 
       0.380519         1037.95         575.194            1066 
       0.386598         1033.75         555.781         1050.26 
       0.392688         1005.93         538.289         1028.05 
        0.39888         989.428         522.208         1010.45 
       0.405048           968.6         507.434         993.415 
       0.411186          965.53         493.481         978.516 
       0.417313         959.669         479.825         967.986 
       0.423458          932.67         466.134         950.758 
       0.429607          909.32         452.422         937.268 
       0.435692         901.138         438.898         916.945 
       0.441815         883.776         425.566         914.039 
       0.447964         875.209          412.72         902.942 
       0.454126         863.709          400.55         876.655 
       0.460267         854.077         389.193         874.419 
       0.466387         838.692         378.665         859.074 
        0.47254         826.746         368.735         846.774 
       0.478662         815.119         359.334         835.416 
       0.484765         806.224         350.294         827.358 
       0.490885         797.996         341.456          812.03 
       0.497035         782.708         332.711         805.666 
       0.503198         781.893         324.065          797.23 
       0.509342         767.399          315.63         783.028 
       0.515458         752.592         307.484         777.551 
       0.521598         752.973         299.606         770.296 
       0.527764         734.919         292.028         763.039 
       0.533884         726.094         284.863         754.187 
           0.54         722.137         278.057         745.384 
       0.546137         712.839         271.524         737.417 
       0.552299         707.364           265.2         727.445 
       0.558452         699.151         259.073         721.924 
       0.564573          696.07         253.135         715.391 
       0.570708         687.488         247.332         706.083 
       0.576825         674.223         241.685          697.55 
       0.582926         672.488         236.188         693.175 
       0.589034         663.958         230.838         683.205 
       0.595184         656.227         225.624          676.32 
       0.601379         646.699         220.566         670.438 
       0.607522         637.809         215.741         660.374 
       0.613639         637.114         211.107         658.605 
       0.619772         630.951         206.614         656.257 
       0.625918         622.637         202.244         647.821 
       0.632068         619.465         197.992         644.396 
       0.638161          610.78         193.893         634.467 
         0.6443         604.607         189.873         629.195 
       0.650464         600.246         185.946         621.653 
       0.656582          595.33         182.151         618.157 
       0.662703          588.48         178.456         613.281 
       0.668861         581.745         174.842         610.825 
       0.675024         579.351         171.327         606.866 
       0.681124         567.364         167.949         597.884 
       0.687237         567.961         164.664         592.612 
       0.693381          558.82          161.46         586.993 
       0.699536         560.341         158.341         583.222 
       0.705665         550.928          155.32         576.232 
       0.711789         549.986         152.381         572.034 
       0.717957         542.994         149.496         571.424 
        0.72409         538.601         146.697         565.388 
       0.730186          537.07         143.983         559.384 
       0.736317         529.725         141.321         555.935 
       0.742472         523.991         138.716         552.673 
       0.748622         523.404         136.179         546.901 
        0.75476         515.292         133.713         547.092 
       0.760888         513.807         131.314         541.125 
       0.767043         510.732         128.967         533.973 
       0.773185         506.167         126.684         531.007 
       0.779291         501.281         124.472          526.62 
       0.785407          497.54          122.31         523.385 
       0.791564         495.247         120.187         522.078 
       0.797719         487.446         118.115         517.334 
       0.803834         487.937         116.105         513.785 
       0.809972         480.656         114.134         510.612 
       0.816124          477.53         112.204         505.148 
       0.822261          474.34         110.324         502.536 
       0.828378         472.738         108.492         498.929 
       0.834502         465.195         106.701         497.214 
       0.840667         463.513         104.938         493.559 
       0.846816         460.121         103.221         489.803 
       0.852925         459.207         101.554         486.846 
       0.859047         453.506         99.9197         481.954 
       0.865192         451.371         98.3169         479.172 
       0.871341         446.263         96.7485         476.167 
       0.877463         445.666         95.2218         473.845 
       0.883569         441.562         93.7322         471.567 
       0.889708         436.388         92.2671         466.731 
       0.895864         431.921         90.8299         464.296 
       0.902008         431.256         89.4264         461.125 
       0.908149         426.994         88.0537         456.672 
       0.914301          425.42         86.7076         453.237 
       0.920448         420.083         85.3911         452.638 
       0.926574          418.28         84.1067         449.635 
       0.932687         416.705         82.8516         445.525 
       0.938823         412.349         81.6177         444.404 
       0.944975         410.929         80.4063         441.641 
       0.951105         407.449         79.2239         438.233 
       0.957225         402.516         78.0675         435.831 
       0.963368         402.429         76.9304         432.941 
       0.969511         397.669         75.8161         430.388 
       0.975621         394.867           74.73         427.778 
       0.981748         393.425         73.6625         425.503 
       0.987916          390.67         72.6092         423.407 
        0.99406         386.478         71.5807          420.54 
        1.00019         383.108         70.5742         417.066 
        1.00632         382.037         69.5881         414.433 
        1.01246         378.618         68.6196         412.162 
        1.01859         376.048         67.6711          409.59 
        1.02471         374.227         66.7419         407.382 
        1.03085         372.034          65.827         406.224 
        1.03698         369.566         64.9314         404.655 
        1.04314         366.531         64.0486         401.517 
        1.04929         365.581         63.1845         398.045 
        1.05541         361.491         62.3398         395.681 
        1.06154         358.955         61.5086         393.791 
        1.06769         356.317         60.6913         391.063 
        1.07382          353.09         59.8916         388.811 
        1.07993         353.074         59.1083          386.85 
        1.08607         350.866         58.3357         384.403 
        1.09222         347.321         57.5763         382.246 
        1.09836         345.266         56.8313         380.778 
        1.10449         342.575         56.1004          379.37 
        1.11063         341.562         55.3817         375.856 
        1.11677         337.753         54.6759         374.306 
         1.1229         336.281         53.9836         371.843 
        1.12903         333.375         53.3028         369.744 
        1.13518         332.034         52.6332           367.1 
        1.14131         329.763         51.9755          365.99 
        1.14745         326.906         51.3295         362.794 
        1.15359         324.078         50.6944         362.278 
        1.15973         322.658         50.0698         359.778 
        1.16584         321.137         49.4586         358.425 
        1.17197         318.743         48.8567         356.539 
        1.17811         315.086         48.2631         353.834 
        1.18424         314.458          47.681         352.091 
        1.19038         312.662          47.107         350.932 
        1.19652         309.551         46.5426         347.954 
        1.20267         308.096         45.9875         346.731 
        1.20881         306.707         45.4417         344.796 
        1.21495          303.51         44.9056          342.78 
        1.22108         302.809         44.3782         340.622 
         1.2272         298.839         43.8606         339.708 
        1.23334         297.429         43.3502         337.383 
        1.23949         295.694         42.8466          335.39 
        1.24562         294.536         42.3525         333.518 
        1.25174         292.725          41.867         332.015 
        1.25789         289.904         41.3876         330.081 
        1.26402         288.664         40.9166         328.961 
        1.27014         286.845         40.4541         326.625 
        1.27628         285.066         39.9974         325.859 
        1.28244         282.031         39.5469         324.259 
        1.28858         281.177          39.104         322.392 
        1.29471         279.558         38.6688         320.483 
        1.30084         278.745         38.2407          318.21 
        1.30697         275.546         37.8185         317.101 
        1.31312         274.089         37.4021         315.671 
        1.31925           272.6         36.9932         313.865 
        1.32537         271.457          36.591         311.952 
        1.33151         268.391         36.1932         310.824 
        1.33765         266.691         35.8017         309.525 
        1.34378         265.902         35.4167         307.216 
        1.34992         263.194         35.0372          305.77 
        1.35606         261.502         34.6624          304.01 
         1.3622         259.627         34.2938          303.16 
        1.36833         259.535         33.9314         301.955 
        1.37445         258.056         33.5745         299.665 
        1.38059          254.67         33.2216         298.613 
        1.38675           253.3         32.8729         297.362 
        1.39288         252.767         32.5307         295.654 
        1.39901         250.363         32.1935         293.821 
        1.40515         249.165         31.8603         292.085 
         1.4113         247.274          31.532         290.555 
        1.41742          245.67         31.2095         289.332 
        1.42355         244.231          30.891          288.04 
         1.4297         242.733          30.576         286.065 
        1.43585         240.946         30.2655         285.554 
        1.44198         239.506         29.9605         283.898 
        1.44809         238.175         29.6603         282.409 
        1.45423         236.793         29.3631         280.447 
        1.46036         236.168         29.0706         279.388 
        1.46649         234.006         28.7819         278.206 
        1.47263          231.94         28.4969         276.373 
        1.47877         230.945          28.216         274.872 
        1.48491         229.148         27.9383         273.323 
        1.49104         226.969         27.6651         272.273 
        1.49718         226.257         27.3952         271.885 
        1.50333         224.744         27.1286         269.781 
        1.50947         223.197          26.866          268.24 
         1.5156         221.954         26.6074         267.512 
        1.52172         220.322         26.3521         266.263 
        1.52787         219.123         26.0997         264.864 
          1.534         218.397         25.8509         263.461 
        1.54013          216.37         25.6056          262.36 
        1.54627         215.139         25.3631         261.343 
        1.55241         214.206         25.1236         260.179 
        1.55855          212.54         24.8876         258.926 
        1.56467         211.148         24.6553         257.259 
         1.5708         209.657         24.4253         255.874 
        1.57695           209.1         24.1979          254.69 
        1.58308         207.796         23.9739          253.37 
        1.58922         205.922         23.7527         252.335 
        1.59535         204.627         23.5342         251.375 
         1.6015         203.656         23.3183         250.564 
        1.60764         202.188         23.1052           249.2 
        1.61376         200.747         22.8953         247.483 
        1.61989         199.532         22.6879         246.549 
        1.62604         198.521         22.4825         245.231 
        1.63218         196.998         22.2799         244.058 
        1.63831         195.998         22.0802         243.167 
        1.64444         194.541         21.8829         241.869 
        1.65059         193.624         21.6876         240.961 
        1.65673         192.337         21.4948         239.984 
        1.66285         191.048         21.3049         238.656 
        1.66898          189.99         21.1173         237.234 
        1.67512         188.716         20.9316         236.287 
        1.68127         187.494         20.7479         235.224 
         1.6874         186.404         20.5668         234.141 
        1.69353          185.75          20.388         233.374 
        1.69967         184.182          20.211         232.219 
        1.70581          183.17         20.0361         231.047 
        1.71193         181.824         19.8639         229.997 
        1.71806         180.558         19.6934          228.81 
        1.72421         179.739         19.5246         227.722 
        1.73035         178.432         19.3579         226.705 
        1.73649         177.035         19.1932         225.625 
        1.74262         176.359         19.0306         224.448 
        1.74876         175.029         18.8697         223.472 
        1.75489         174.467         18.7111         222.737 
        1.76101         173.309         18.5543         221.962 
        1.76715         172.172         18.3991         220.771 
        1.77329         170.911         18.2455         219.864 
        1.77943         169.818         18.0936         219.012 
        1.78557         168.689         17.9436         217.744 
        1.79171         167.926         17.7953         216.669 
        1.79785         166.585         17.6487          215.76 
        1.80399         165.762         17.5038         214.773 
        1.81012         165.216         17.3606         214.049 
        1.81625         163.523         17.2192         213.194 
        1.82239         163.009         17.0791         212.084 
        1.82853         161.845         16.9406         211.135 
        1.83466         160.573         16.8038         210.175 
        1.84078         159.788         16.6686         209.232 
        1.84692         159.158         16.5348         208.493 
        1.85306         157.978         16.4022         207.492 
         1.8592         157.125         16.2713         206.407 
        1.86533         155.674         16.1419         205.623 
        1.87147         154.904         16.0137         204.711 
        1.87761         154.162         15.8869         203.822 
