#  k  (h/Mpc)          P(k)  (Mpc/h)^3     P_linear(k)   P_NL(k) (Mpc/h)^3
     0.00783031            2595         2611.72         2611.72 
       0.013688         3257.93         3303.03         3303.03 
       0.019231         3383.19         3404.98         3404.98 
      0.0249154         3210.81         3207.12         3207.12 
      0.0312784         2834.64         2841.52         2841.52 
      0.0375637         2465.98         2479.47         2479.47 
      0.0433917         2207.37         2205.83         2205.83 
      0.0492413         1994.52         2001.88         2001.88 
      0.0555754         1844.04            1842            1842 
      0.0619321         1689.56         1713.22         1713.22 
       0.067871         1587.08         1595.83         1595.83 
      0.0738098         1464.47         1468.51         1468.51 
      0.0800417         1325.96         1324.99         1324.99 
      0.0862327         1181.37         1183.35         1183.35 
      0.0921407         1060.44         1061.55         1061.55 
      0.0982031         964.267         958.857         958.857 
       0.104506         875.434         878.403         878.403 
       0.110769         819.305         820.753         820.753 
       0.116806         784.643         778.372         778.372 
       0.122832         740.022         740.646         740.646 
       0.129052         702.425         699.883         699.883 
       0.135211         662.642         654.828         654.828 
       0.141259          611.43         607.134         607.134 
       0.147318         560.003         559.438         559.438 
       0.153489         520.061             515             515 
       0.159709         487.326         477.356         477.356 
       0.165845         450.627         448.051         448.051 
       0.171974         436.828         425.429         425.429 
       0.178125         418.315         407.057         407.057 
       0.184229          396.23         390.504         390.504 
        0.19034         383.615         373.553         373.553 
       0.196428         366.113         355.314         355.314 
       0.202534         341.436         335.842         335.842 
       0.208729         327.634         315.895         315.895 
       0.214876         311.944         297.186         297.186 
       0.220989         290.073         280.644         280.644 
       0.227147         281.792         266.499         266.499 
        0.23329         270.755         254.735         254.735 
       0.239377         262.444         244.783         244.783 
       0.245482         250.754         235.723         235.723 
       0.251667         240.231         226.786         226.786 
       0.257832         235.297          217.69          217.69 
       0.263955         222.506         208.396         208.396 
       0.270079         213.446         199.054         199.054 
        0.27624         203.271         189.955         189.955 
       0.282372         196.165         181.533         181.533 
        0.28843         192.845         174.024         174.024 
       0.294538         184.325         167.293         167.293 
       0.300721         176.644         161.209         161.209 
        0.30691         173.334         155.625         155.625 
       0.313033         166.524         150.376         150.376 
       0.319153         163.415         145.231         145.231 
       0.325316         156.601         140.084         140.084 
        0.33145         151.516         135.006         135.006 
       0.337538         146.655         130.093         130.093 
       0.343633         142.066         125.393         125.393 
       0.349808         137.477         120.929         120.929 
       0.355968         133.456         116.808         116.808 
       0.362074         130.757         113.027         113.027 
       0.368217         127.375          109.48          109.48 
       0.374374         124.587          106.11          106.11 
       0.380519         119.323         102.872         102.872 
       0.386598           116.3         99.7552         99.7552 
       0.392688         112.929         96.7018         96.7018 
        0.39888         110.764         93.6821         93.6821 
       0.405048         108.101         90.7796         90.7796 
       0.411186         105.555         88.0163         88.0163 
       0.417313         102.687         85.3996         85.3996 
       0.423458         99.9646         82.9157         82.9157 
       0.429607         98.1853         80.5587         80.5587 
       0.435692         96.4695         78.3375         78.3375 
       0.441815         93.1496         76.1921         76.1921 
       0.447964         90.3454         74.1097         74.1097 
       0.454126         88.7313         72.0875         72.0875 
       0.460267         87.9387         70.1341         70.1341 
       0.466387         85.6168         68.2488         68.2488 
        0.47254         84.4592         66.4195         66.4195 
       0.478662         81.6204         64.6709         64.6709 
       0.484765          80.157         62.9993         62.9993 
       0.490885         78.0637         61.3912         61.3912 
       0.497035         77.2002         59.8391         59.8391 
       0.503198         75.3186         58.3432         58.3432 
       0.509342         73.3962         56.9042         56.9042 
       0.515458          72.484         55.5178         55.5178 
       0.521598         70.7397         54.1683         54.1683 
       0.527764         69.8793         52.8554         52.8554 
       0.533884         68.7396         51.5943         51.5943 
           0.54         67.1215         50.3759         50.3759 
       0.546137         65.2475         49.1941         49.1941 
       0.552299         64.2374         48.0476         48.0476 
       0.558452         62.9578         46.9423         46.9423 
       0.564573         62.5429         45.8796         45.8796 
       0.570708         60.7125         44.8492         44.8492 
       0.576825         60.0645         43.8538         43.8538 
       0.582926         59.1954         42.8908         42.8908 
       0.589034         58.0647         41.9547         41.9547 
       0.595184         57.2636         41.0401         41.0401 
       0.601379         55.7549         40.1466         40.1466 
       0.607522         54.9549         39.2875         39.2875 
       0.613639         54.2655          38.458          38.458 
       0.619772         53.2826         37.6511         37.6511 
       0.625918         52.3619         36.8665         36.8665 
       0.632068          51.876         36.1043         36.1043 
       0.638161         50.8041         35.3709         35.3709 
         0.6443         50.2123         34.6528         34.6528 
       0.650464         49.0245         33.9524         33.9524 
       0.656582         48.7494         33.2767         33.2767 
       0.662703         48.1489         32.6193         32.6193 
       0.668861          46.968         31.9762         31.9762 
       0.675024         46.5657         31.3502         31.3502 
       0.681124         46.0889         30.7474         30.7474 
       0.687237         45.1663         30.1595         30.1595 
       0.693381         44.4969         29.5845         29.5845 
       0.699536         44.1945         29.0237         29.0237 
       0.705665          43.395         28.4802         28.4802 
       0.711789         42.6786         27.9513         27.9513 
       0.717957         41.9344         27.4324         27.4324 
        0.72409          41.547         26.9298         26.9298 
       0.730186         41.3251         26.4431         26.4431 
       0.736317         40.5319         25.9659         25.9659 
       0.742472         40.0612         25.4989         25.4989 
       0.748622         39.4131         25.0439         25.0439 
        0.75476         38.5716         24.6012         24.6012 
       0.760888         38.5052           24.17           24.17 
       0.767043           37.82         23.7476         23.7476 
       0.773185          37.471         23.3363         23.3363 
       0.779291         37.0079         22.9372         22.9372 
       0.785407         36.4325         22.5469         22.5469 
       0.791564         36.3136         22.1635         22.1635 
       0.797719         35.5848         21.7892         21.7892 
       0.803834         35.3726         21.4261         21.4261 
       0.809972         34.7862           21.07           21.07 
       0.816124         34.4239         20.7214         20.7214 
       0.822261         34.0369         20.3817         20.3817 
       0.828378          33.753         20.0508         20.0508 
       0.834502         33.3828          19.727          19.727 
       0.840667         33.0563         19.4084         19.4084 
       0.846816         32.3832         19.0978         19.0978 
       0.852925         32.3042          18.796          18.796 
       0.859047         31.9702         18.5002         18.5002 
       0.865192         31.4949         18.2099         18.2099 
       0.871341         31.1369         17.9257         17.9257 
       0.877463         30.8368         17.6489         17.6489 
       0.883569         30.6785         17.3788         17.3788 
       0.889708         30.2345          17.113          17.113 
       0.895864         29.8701         16.8521         16.8521 
       0.902008         29.5164         16.5973         16.5973 
       0.908149         29.2406          16.348          16.348 
       0.914301         29.0695         16.1035         16.1035 
       0.920448         28.6737         15.8642         15.8642 
       0.926574         28.3491         15.6308         15.6308 
       0.932687         28.0753         15.4025         15.4025 
       0.938823         27.7317         15.1781         15.1781 
       0.944975         27.5085         14.9577         14.9577 
       0.951105         27.2515         14.7425         14.7425 
       0.957225         27.0944         14.5319         14.5319 
       0.963368         26.6808         14.3248         14.3248 
       0.969511         26.4646         14.1218         14.1218 
       0.975621         26.2298         13.9239         13.9239 
       0.981748         25.9181         13.7292         13.7292 
       0.987916         25.7653         13.5372         13.5372 
        0.99406         25.4535         13.3495         13.3495 
        1.00019         25.2818         13.1658         13.1658 
        1.00632         25.0543         12.9858         12.9858 
        1.01246          24.859         12.8089         12.8089 
        1.01859         24.5516         12.6357         12.6357 
        1.02471         24.3257         12.4659         12.4659 
        1.03085         24.2301         12.2986         12.2986 
        1.03698         24.0076         12.1349         12.1349 
        1.04314         23.7342         11.9734         11.9734 
        1.04929         23.4658         11.8153         11.8153 
        1.05541         23.3756         11.6607         11.6607 
        1.06154         23.2129         11.5085         11.5085 
        1.06769         22.9209         11.3589         11.3589 
        1.07382         22.6887         11.2124         11.2124 
        1.07993         22.4993         11.0688         11.0688 
        1.08607         22.3814         10.9272         10.9272 
        1.09222         22.1475          10.788          10.788 
        1.09836         21.9883         10.6514         10.6514 
        1.10449         21.8153         10.5173         10.5173 
        1.11063          21.667         10.3854         10.3854 
        1.11677         21.5631         10.2558         10.2558 
         1.1229         21.3344         10.1287         10.1287 
        1.12903         21.1684         10.0037         10.0037 
        1.13518         20.9841          9.8807          9.8807 
        1.14131         20.8536         9.75985         9.75985 
        1.14745         20.5718         9.64112         9.64112 
        1.15359         20.4032         9.52435         9.52435 
        1.15973         20.2602          9.4095          9.4095 
        1.16584         20.1064         9.29707         9.29707 
        1.17197         19.9092         9.18634         9.18634 
        1.17811         19.7944         9.07709         9.07709 
        1.18424         19.6392         8.96995         8.96995 
        1.19038         19.5413         8.86425         8.86425 
        1.19652         19.3418         8.76031         8.76031 
        1.20267         19.2392         8.65805         8.65805 
        1.20881          19.043         8.55747         8.55747 
        1.21495         18.9212         8.45866         8.45866 
        1.22108         18.8724         8.36144         8.36144 
         1.2272         18.7082         8.26599         8.26599 
        1.23334         18.5761         8.17183         8.17183 
        1.23949         18.4211         8.07892         8.07892 
        1.24562         18.2386         7.98774         7.98774 
        1.25174         18.1678         7.89811         7.89811 
        1.25789         18.0232         7.80959         7.80959 
        1.26402         17.9352          7.7226          7.7226 
        1.27014         17.8271         7.63716         7.63716 
        1.27628          17.617         7.55277         7.55277 
        1.28244          17.611          7.4695          7.4695 
        1.28858         17.4133          7.3876          7.3876 
        1.29471         17.2197         7.30713         7.30713 
        1.30084         17.1243         7.22794         7.22794 
        1.30697         17.0911         7.14981         7.14981 
        1.31312         16.9175         7.07273         7.07273 
        1.31925         16.8307         6.99704         6.99704 
        1.32537          16.698         6.92255         6.92255 
        1.33151         16.5912         6.84888         6.84888 
        1.33765         16.5089         6.77633         6.77633 
        1.34378         16.4279           6.705           6.705 
        1.34992         16.2838         6.63464         6.63464 
        1.35606         16.1413         6.56516         6.56516 
         1.3622         16.0223          6.4968          6.4968 
        1.36833          15.991         6.42959         6.42959 
        1.37445         15.8966         6.36337         6.36337 
        1.38059         15.7874         6.29789         6.29789 
        1.38675         15.6699         6.23318         6.23318 
        1.39288         15.5334         6.16965         6.16965 
        1.39901          15.471         6.10704         6.10704 
        1.40515         15.3601         6.04516         6.04516 
         1.4113         15.2641         5.98417         5.98417 
        1.41742         15.2009         5.92427         5.92427 
        1.42355          15.055         5.86507         5.86507 
         1.4297         14.9864         5.80652         5.80652 
        1.43585         14.9077          5.7488          5.7488 
        1.44198         14.8382         5.69208         5.69208 
        1.44809         14.7304         5.63625         5.63625 
        1.45423         14.6267         5.58097         5.58097 
        1.46036         14.5479         5.52653         5.52653 
        1.46649         14.4544         5.47281         5.47281 
        1.47263         14.3931         5.41976         5.41976 
        1.47877          14.303         5.36745         5.36745 
        1.48491         14.2162         5.31575         5.31575 
        1.49104          14.118         5.26485         5.26485 
        1.49718         14.0609         5.21458         5.21458 
        1.50333           13.98         5.16489         5.16489 
        1.50947         13.8989         5.11596         5.11596 
         1.5156         13.8366         5.06774         5.06774 
        1.52172         13.7339         5.02014         5.02014 
        1.52787          13.668         4.97307         4.97307 
          1.534         13.6056         4.92666         4.92666 
        1.54013         13.5323         4.88089         4.88089 
        1.54627         13.4289         4.83563         4.83563 
        1.55241         13.3304         4.79093         4.79093 
        1.55855          13.299         4.74687         4.74687 
        1.56467         13.2269         4.70349         4.70349 
         1.5708         13.1698         4.66053         4.66053 
        1.57695         13.0724         4.61805         4.61805 
        1.58308         12.9762         4.57619         4.57619 
        1.58922         12.9368         4.53484         4.53484 
        1.59535         12.8533         4.49401         4.49401 
         1.6015         12.7401         4.45363         4.45363 
        1.60764          12.702         4.41377         4.41377 
        1.61376         12.6593         4.37451         4.37451 
        1.61989         12.5552          4.3357          4.3357 
        1.62604          12.528         4.29728         4.29728 
        1.63218         12.4677         4.25935         4.25935 
        1.63831         12.3678         4.22197         4.22197 
        1.64444         12.2921         4.18503         4.18503 
        1.65059         12.2223         4.14845         4.14845 
        1.65673         12.1949         4.11235         4.11235 
        1.66285         12.1071         4.07678         4.07678 
        1.66898         12.0756         4.04162         4.04162 
        1.67512         12.0122         4.00681         4.00681 
        1.68127         11.9018         3.97238         3.97238 
         1.6874         11.8849         3.93844         3.93844 
        1.69353         11.7887         3.90492         3.90492 
        1.69967         11.7414         3.87171         3.87171 
        1.70581         11.6886          3.8389          3.8389 
        1.71193         11.6412          3.8066          3.8066 
        1.71806         11.5855          3.7746          3.7746 
        1.72421         11.5039         3.74291         3.74291 
        1.73035         11.4547         3.71163         3.71163 
        1.73649         11.4217         3.68071         3.68071 
        1.74262         11.3014         3.65017         3.65017 
        1.74876         11.3062         3.61996         3.61996 
        1.75489          11.241         3.59016         3.59016 
        1.76101         11.1597          3.5607          3.5607 
        1.76715         11.1326         3.53154         3.53154 
        1.77329         11.0731         3.50267         3.50267 
        1.77943         10.9894         3.47411         3.47411 
        1.78557         10.9858         3.44591         3.44591 
        1.79171         10.9122         3.41803         3.41803 
        1.79785         10.8837         3.39045         3.39045 
        1.80399         10.7896         3.36318         3.36318 
        1.81012         10.7645         3.33625         3.33625 
        1.81625         10.6837         3.30963         3.30963 
        1.82239         10.6409         3.28327         3.28327 
        1.82853         10.5836          3.2572          3.2572 
        1.83466         10.5147         3.23145         3.23145 
        1.84078         10.4987           3.206           3.206 
        1.84692         10.4609         3.18079         3.18079 
        1.85306         10.4079         3.15582         3.15582 
         1.8592         10.3691         3.13115         3.13115 
        1.86533         10.3021         3.10677         3.10677 
        1.87147         10.2487         3.08262         3.08262 
        1.87761         10.2144         3.05872         3.05872 
