#  k  (h/Mpc)          P(k)  (Mpc/h)^3     P_linear(k)   P_NL(k) (Mpc/h)^3
     0.00783031         10611.5         10661.9         10612.4 
       0.013688         13034.1         13333.9         13253.6 
       0.019231           13503         13679.1         13575.2 
      0.0249154         12818.4         12798.5         12697.4 
      0.0312784         11082.5         11177.1           11084 
      0.0375637         9385.54         9526.16         9446.18 
      0.0433917         8209.84          8243.4         8161.37 
      0.0492413         7203.19         7280.08         7205.28 
      0.0555754         6544.61         6563.77          6496.3 
      0.0619321         5892.55         6075.14          6008.1 
       0.067871         5614.28         5711.91         5648.57 
      0.0738098         5291.59         5349.92         5250.57 
      0.0800417         4878.39         4920.32          4832.7 
      0.0862327         4385.62          4441.2         4400.16 
      0.0921407         3942.59         3968.69         3942.07 
      0.0982031         3550.13         3514.86         3540.79 
       0.104506         3123.17         3117.38         3184.01 
       0.110769         2850.18         2817.14         2863.53 
       0.116806          2697.6         2613.41         2655.39 
       0.122832         2530.05         2474.24          2519.7 
       0.129052          2415.8         2368.86         2407.17 
       0.135211         2353.76         2273.26         2307.84 
       0.141259         2207.11         2166.49          2216.4 
       0.147318         2054.92         2037.58         2111.24 
       0.153489         1928.75         1887.11         1944.06 
       0.159709         1824.71         1728.72         1815.31 
       0.165845          1650.6         1581.25         1709.66 
       0.171974         1588.72         1454.94         1585.02 
       0.178125          1511.7         1355.18         1509.51 
       0.184229         1396.41         1282.24         1426.46 
        0.19034         1370.12         1229.38         1366.73 
       0.196428         1331.42         1188.17          1310.4 
       0.202534         1252.41         1149.45         1274.64 
       0.208729         1233.81         1105.84         1220.89 
       0.214876          1183.3         1054.98         1195.06 
       0.220989         1111.53         997.581         1151.64 
       0.227147         1079.81         936.599         1100.75 
        0.23329         1032.69         877.495         1058.77 
       0.239377         1013.34          824.87         1008.25 
       0.245482         958.958         780.509         954.887 
       0.251667          921.05         744.618         926.728 
       0.257832         908.433         716.451         892.191 
       0.263955         863.396         693.343         864.646 
       0.270079         837.168         672.157         842.207 
        0.27624         803.186         650.287         817.802 
       0.282372         788.816         626.519         799.213 
        0.28843         780.539         600.921         777.581 
       0.294538         740.265         573.785         755.588 
       0.300721         719.589         546.472         732.203 
        0.30691         705.392         520.755         714.305 
       0.313033         673.615         498.045         687.207 
       0.319153         662.912         478.449         666.371 
       0.325316         652.237         461.672         651.645 
        0.33145          637.62         447.175         628.199 
       0.337538         614.964         434.069         615.357 
       0.343633         597.992         421.307         609.443 
       0.349808          584.31         408.153         598.608 
       0.355968         573.162         394.498         587.854 
       0.362074         553.785         380.587         574.286 
       0.368217         550.939         366.561         556.654 
       0.374374          540.58         352.952         544.111 
       0.380519          519.13         340.255         530.238 
       0.386598          513.73         328.772         522.658 
       0.392688         501.506         318.425         507.453 
        0.39888         488.518         308.912         498.805 
       0.405048         479.362         300.172         492.046 
       0.411186         477.568         291.918         479.678 
       0.417313         471.487         283.841         470.526 
       0.423458         458.024         275.742         463.663 
       0.429607         445.431         267.629         454.616 
       0.435692         438.672          259.63         445.014 
       0.441815         431.315         251.743         441.047 
       0.447964         421.957         244.144         432.805 
       0.454126         416.848         236.945         420.855 
       0.460267         410.102         230.228         418.287 
       0.466387         402.931         223.998         410.029 
        0.47254         397.089         218.125         404.097 
       0.478662         388.287         212.564         396.475 
       0.484765          383.85         207.216         388.942 
       0.490885         379.654         201.988         383.708 
       0.497035          372.03         196.815         379.326 
       0.503198         371.166         191.701         373.792 
       0.509342         362.198         186.711         368.965 
       0.515458         356.324         181.892         365.452 
       0.521598         350.529         177.232           358.7 
       0.527764         345.384         172.749         354.248 
       0.533884         343.569         168.511         349.539 
           0.54         338.307         164.485          343.99 
       0.546137          331.11          160.62         340.005 
       0.552299         330.122         156.879         334.859 
       0.558452         324.499         153.254          331.22 
       0.564573         321.659         149.742         328.496 
       0.570708         316.673         146.309         325.147 
       0.576825         311.167         142.968         318.833 
       0.582926         308.947         139.717         315.529 
       0.589034         304.115         136.552         311.689 
       0.595184          301.93         133.468         306.771 
       0.601379         297.033         130.476         304.327 
       0.607522         291.163         127.621         300.443 
       0.613639         289.809         124.881         298.275 
       0.619772         288.346         122.222         296.197 
       0.625918         283.613         119.637         291.701 
       0.632068         279.903         117.122         287.831 
       0.638161         277.689         114.697          285.98 
         0.6443         274.894         112.319          283.02 
       0.650464         270.575         109.996         277.862 
       0.656582         268.147         107.751         275.706 
       0.662703         266.267         105.566         274.134 
       0.668861         261.347         103.428         271.321 
       0.675024         260.427         101.348         268.508 
       0.681124         257.243         99.3504         264.735 
       0.687237         254.992         97.4073         262.271 
       0.693381         251.545         95.5117          259.63 
       0.699536         249.688         93.6665         257.627 
       0.705665         247.042         91.8797          255.35 
       0.711789         244.715         90.1411         253.136 
       0.717957         241.997         88.4342         251.129 
        0.72409         239.115         86.7786         249.152 
       0.730186         240.435         85.1732         246.835 
       0.736317         236.103         83.5985         244.009 
       0.742472         233.413         82.0573         241.651 
       0.748622         230.403         80.5566         239.321 
        0.75476         230.765         79.0977         238.578 
       0.760888          227.71         77.6786         235.248 
       0.767043         224.682         76.2904         233.826 
       0.773185         223.238         74.9402         232.078 
       0.779291         220.151         73.6313         229.484 
       0.785407         219.174         72.3525         227.664 
       0.791564         217.119         71.0964         226.014 
       0.797719         213.708         69.8708           224.6 
       0.803834         214.959         68.6817         222.888 
       0.809972          212.19         67.5157         221.009 
       0.816124         209.024         66.3741         218.958 
       0.822261         207.378         65.2619         217.409 
       0.828378         207.157         64.1785         215.338 
       0.834502         204.117         63.1188           213.9 
       0.840667          204.07         62.0763         212.222 
       0.846816         200.528         61.0605         210.907 
       0.852925         199.861          60.074          209.27 
       0.859047         197.789         59.1075         207.813 
       0.865192         197.454         58.1594         206.045 
       0.871341         194.846         57.2316         204.434 
       0.877463         193.153         56.3285         203.326 
       0.883569         192.849         55.4473         202.277 
       0.889708         190.847         54.5806         200.281 
       0.895864         189.155         53.7304         199.183 
       0.902008         187.296         52.9002         197.498 
       0.908149         185.647         52.0882         195.792 
       0.914301         184.666         51.2919         194.634 
       0.920448         184.272         50.5131         193.068 
       0.926574         181.869         49.7533         191.608 
       0.932687         181.205         49.0109         190.426 
       0.938823         179.755          48.281         189.526 
       0.944975         178.624         47.5644         188.454 
       0.951105         176.784         46.8649         186.918 
       0.957225         175.802         46.1809           185.5 
       0.963368         174.767         45.5082         183.995 
       0.969511         172.401          44.849         182.742 
       0.975621         171.164         44.2065         182.425 
       0.981748         170.324          43.575         181.128 
       0.987916          169.46          42.952         179.922 
        0.99406         168.161         42.3436         178.711 
        1.00019           167.1         41.7482         177.338 
        1.00632         166.115         41.1649         175.901 
        1.01246         164.759         40.5919         174.495 
        1.01859         163.435         40.0309         174.065 
        1.02471           162.2         39.4812         173.381 
        1.03085         161.208           38.94         172.151 
        1.03698         160.014         38.4102         171.222 
        1.04314         159.615          37.888         169.953 
        1.04929         158.593         37.3768           168.9 
        1.05541         157.458         36.8771         167.987 
        1.06154         155.948         36.3854         166.996 
        1.06769         155.136          35.902         166.208 
        1.07382         154.475         35.4289         165.107 
        1.07993          152.97         34.9655         164.055 
        1.08607         152.173         34.5085          163.26 
        1.09222          151.01         34.0593         162.472 
        1.09836         150.255         33.6186         161.551 
        1.10449         148.947         33.1862         160.595 
        1.11063         147.981         32.7611         159.368 
        1.11677         147.318         32.3435         158.406 
         1.1229         146.104          31.934         157.632 
        1.12903         145.308         31.5313         156.801 
        1.13518         144.168         31.1352         155.899 
        1.14131          143.51         30.7461         154.798 
        1.14745         142.443          30.364         154.181 
        1.15359         141.066         29.9883         153.225 
        1.15973         140.764         29.6188         152.469 
        1.16584         139.881         29.2572         151.108 
        1.17197         139.092         28.9012         150.724 
        1.17811         137.759           28.55         150.091 
        1.18424         137.213         28.2057         148.954 
        1.19038         136.378         27.8661         148.456 
        1.19652         135.369         27.5323         147.747 
        1.20267         134.555         27.2039          146.74 
        1.20881         133.534          26.881         146.064 
        1.21495         133.139         26.5639         145.114 
        1.22108         132.162         26.2519         144.657 
         1.2272         131.192         25.9458         143.409 
        1.23334         130.758         25.6438         143.124 
        1.23949         130.118         25.3459         142.265 
        1.24562         129.057         25.0536         141.163 
        1.25174         128.349         24.7664         140.672 
        1.25789         127.348         24.4828          139.91 
        1.26402         127.124         24.2042         139.152 
        1.27014         126.189         23.9306         138.897 
        1.27628         124.964         23.6605         138.431 
        1.28244          124.69          23.394         137.211 
        1.28858         123.638          23.132         136.426 
        1.29471         122.918         22.8746         135.833 
        1.30084         122.111         22.6213         135.047 
        1.30697         121.459         22.3716         134.514 
        1.31312         120.647         22.1252         133.607 
        1.31925         119.781         21.8834         133.012 
        1.32537         119.365         21.6454         132.627 
        1.33151         118.876         21.4101         131.791 
        1.33765         117.731         21.1785         131.185 
        1.34378         117.545         20.9508         130.565 
        1.34992         116.918         20.7262         129.762 
        1.35606         116.067         20.5045         129.057 
         1.3622         115.772         20.2865         128.566 
        1.36833         114.429         20.0721          127.78 
        1.37445         114.293          19.861         127.211 
        1.38059         113.545         19.6522         126.544 
        1.38675          112.73          19.446         125.873 
        1.39288         112.005         19.2435         125.066 
        1.39901         111.357         19.0441         124.785 
        1.40515         110.926          18.847         124.393 
         1.4113         110.249         18.6527         123.793 
        1.41742         109.518          18.462         123.235 
        1.42355          109.27         18.2736         122.657 
         1.4297          108.33         18.0872         122.009 
        1.43585         107.742         17.9036         121.191 
        1.44198         106.854         17.7231         120.755 
        1.44809         106.208         17.5456         120.249 
        1.45423         106.077         17.3698         119.565 
        1.46036         105.093         17.1967         119.021 
        1.46649         104.523         17.0259         118.651 
        1.47263          104.09         16.8574         118.188 
        1.47877          103.32         16.6912         117.349 
        1.48491         102.911         16.5269         116.932 
        1.49104         101.768         16.3653          116.66 
        1.49718         101.632         16.2057         115.664 
        1.50333         101.219         16.0479         115.118 
        1.50947         100.624         15.8926         114.724 
         1.5156         100.106         15.7396           114.2 
        1.52172         99.3295         15.5886         113.715 
        1.52787         98.9061         15.4393         113.141 
          1.534         98.3054         15.2921          112.68 
        1.54013          97.858          15.147         112.209 
        1.54627          97.058         15.0035         111.694 
        1.55241         96.8663         14.8619         111.201 
        1.55855         96.0636         14.7223         110.658 
        1.56467         95.4026         14.5849         110.122 
         1.5708         94.7818         14.4488         109.715 
        1.57695         94.5531         14.3143         109.252 
        1.58308         93.9227         14.1818         108.662 
        1.58922         93.8679         14.0509         108.159 
        1.59535         93.3649         13.9217          107.74 
         1.6015          92.433         13.7939         107.199 
        1.60764         91.9016         13.6679         106.717 
        1.61376         91.4858         13.5437         106.482 
        1.61989         91.0335          13.421         106.068 
        1.62604         90.4996         13.2996         105.309 
        1.63218          90.117         13.1797         104.807 
        1.63831         89.5169         13.0616         104.586 
        1.64444         88.9417         12.9448         103.982 
        1.65059         88.4743         12.8293         103.504 
        1.65673         88.1711         12.7153          103.09 
        1.66285         87.5945         12.6029         102.696 
        1.66898         86.9847         12.4919         102.299 
        1.67512         86.5697         12.3821         101.828 
        1.68127         86.1978         12.2734         101.313 
         1.6874         85.5235         12.1663         100.887 
        1.69353          85.047         12.0606         100.579 
        1.69967          84.691         11.9558         100.078 
        1.70581         84.3736         11.8523         99.5836 
        1.71193         83.7503         11.7505         99.2097 
        1.71806         83.3412         11.6496         98.8485 
        1.72421         82.8216         11.5498         98.4153 
        1.73035          82.508         11.4512         97.8994 
        1.73649          81.908         11.3538         97.4209 
        1.74262          81.506         11.2575         97.1409 
        1.74876         81.0513         11.1624         96.7286 
        1.75489         80.6248         11.0685         96.2121 
        1.76101          80.145         10.9758         95.7651 
        1.76715          79.722          10.884         95.4209 
        1.77329         79.3116         10.7931         95.0479 
        1.77943          78.979         10.7033         94.6343 
        1.78557         78.5494         10.6146         94.2471 
        1.79171         78.0766         10.5268         93.8936 
        1.79785         77.4906         10.4401         93.5428 
        1.80399         77.4085         10.3544         93.1432 
        1.81012         76.7393         10.2697         92.6576 
        1.81625          76.332          10.186          92.247 
        1.82239         75.9908         10.1031         91.9386 
        1.82853         75.5061         10.0212         91.5765 
        1.83466         75.0037         9.94029         91.1582 
        1.84078         74.8039         9.86035         90.7926 
        1.84692          74.598         9.78115         90.5632 
        1.85306         74.0705         9.70273         90.1454 
         1.8592         73.6866         9.62529         89.6726 
        1.86533         73.2392         9.54874         89.3579 
        1.87147         72.8443         9.47294         88.8351 
        1.87761         72.2591         9.39793         88.4354 
