#  k  (h/Mpc)          P(k)  (Mpc/h)^3     P_linear(k)   P_NL(k) (Mpc/h)^3
     0.00783031         2253.66         2265.61         2264.38 
       0.013688         2989.17         3029.01         3018.34 
       0.019231            3251         3272.07         3254.77 
      0.0249154         3213.42         3213.97         3199.34 
      0.0312784         2945.19         2956.77          2945.5 
      0.0375637         2626.74         2644.83         2634.35 
      0.0433917         2379.03         2380.61         2370.89 
      0.0492413         2157.64          2169.2         2159.83 
      0.0555754         1999.97          2000.9         1991.09 
      0.0619321         1846.04         1875.46         1865.18 
       0.067871         1760.25         1774.01         1763.08 
      0.0738098         1659.49          1669.3          1655.1 
      0.0800417         1540.93         1546.26         1532.49 
      0.0862327         1403.06         1412.39         1402.09 
      0.0921407         1274.48         1282.99         1273.65 
      0.0982031         1159.62         1160.09          1155.1 
       0.104506         1043.97         1052.52         1051.17 
       0.110769         964.043          970.02         966.979 
       0.116806         916.166         911.645         908.636 
       0.122832         864.626         868.299         866.398 
       0.129052         830.823         831.351         829.397 
       0.135211         799.847         795.213         793.383 
       0.141259         754.543         755.541         755.034 
       0.147318         703.549         710.482         712.316 
       0.153489         659.966         661.102         660.604 
       0.159709          617.61         611.725         614.324 
       0.165845         565.335         567.387         575.104 
       0.171974         540.995         530.141             538 
       0.178125         513.121         500.639         512.091 
       0.184229         483.963         478.201         489.851 
        0.19034         471.544         460.392         471.809 
       0.196428         455.819         444.671         453.639 
       0.202534         432.085         428.632         438.287 
       0.208729         420.551         410.645         419.652 
       0.214876         404.396         390.843         403.372 
       0.220989         376.622         369.996         383.957 
       0.227147         364.882         349.181         363.606 
        0.23329         348.198         329.964          347.59 
       0.239377         334.989         313.389         332.647 
       0.245482         318.509         299.546         317.408 
       0.251667         305.447         288.056         307.615 
       0.257832          300.76         278.403         297.669 
       0.263955         286.808         269.687         288.272 
       0.270079         277.938          261.01         279.075 
        0.27624         266.385          251.82         269.173 
       0.282372         258.386         242.078         260.243 
        0.28843          254.44         232.089         250.581 
       0.294538         242.631         222.082         241.943 
       0.300721         231.825         212.489         233.955 
        0.30691         226.995         203.794         225.928 
       0.313033         217.926          196.23         217.952 
       0.319153         214.079         189.656          212.39 
       0.325316         205.929         183.788         207.293 
        0.33145         200.298         178.403         200.613 
       0.337538         194.739         173.208         194.989 
       0.343633         189.203         167.964         190.373 
       0.349808         183.654         162.522         185.479 
       0.355968         178.501         157.008         181.246 
       0.362074         174.862          151.59         175.654 
       0.368217         170.426         146.336         169.457 
       0.374374         166.783         141.411         165.562 
       0.380519         159.645         136.897         160.825 
       0.386598         155.923         132.833         156.961 
       0.392688         151.886         129.102         153.634 
        0.39888         149.137          125.55         149.409 
       0.405048         145.962         122.158         146.304 
       0.411186         142.981          118.84         143.697 
       0.417313         139.344         115.537         139.347 
       0.423458         135.842         112.243         136.438 
       0.429607         133.582         108.988         133.126 
       0.435692         131.144         105.856         130.397 
       0.441815         126.903         102.846          128.39 
       0.447964         123.338         99.9919         125.029 
       0.454126         121.117         97.3058         121.929 
       0.460267         120.258          94.796         120.057 
       0.466387         117.304         92.4289         117.292 
        0.47254         115.926          90.143         115.261 
       0.478662         112.196         87.9326          112.87 
       0.484765         110.361         85.7768         110.305 
       0.490885         107.706         83.6504         108.846 
       0.497035         106.763         81.5504         107.055 
       0.503198         104.083         79.5005         104.546 
       0.509342         101.591         77.5277         102.889 
       0.515458         100.518         75.6425         101.722 
       0.521598         98.1327         73.8307         99.0112 
       0.527764         97.0679         72.0931         96.7197 
       0.533884         95.7367         70.4451         95.2597 
           0.54         93.5107         68.8609         93.7471 
       0.546137         91.0622         67.3198         92.5982 
       0.552299         89.8175         65.8109          90.555 
       0.558452         88.1651         64.3404         88.9118 
       0.564573         87.7315         62.9136         87.9333 
       0.570708          85.146         61.5203         86.4512 
       0.576825         84.2994         60.1692         85.0275 
       0.582926         83.2198         58.8623          83.702 
       0.589034         81.7897          57.597         82.6609 
       0.595184         80.7103         56.3687          81.193 
       0.601379         78.6169         55.1765         80.2239 
       0.607522         77.6685         54.0338         78.5372 
       0.613639         76.7786         52.9297         77.5448 
       0.619772         75.5083         51.8522         76.3442 
       0.625918         74.3016         50.7992         75.6483 
       0.632068          73.603         49.7721         74.1776 
       0.638161         72.1485         48.7813         73.2918 
         0.6443         71.4603         47.8098         72.0208 
       0.650464         69.9175         46.8617         71.0498 
       0.656582          69.559         45.9471         70.3127 
       0.662703         68.7779         45.0576         69.0722 
       0.668861         67.2058         44.1877         68.3656 
       0.675024         66.7876         43.3411         67.2838 
       0.681124         65.9925         42.5265         66.3676 
       0.687237         64.7075         41.7321         65.4233 
       0.693381         63.9568          40.955         64.5768 
       0.699536         63.5337         40.1967         64.0603 
       0.705665         62.4223          39.461         63.3326 
       0.711789         61.4792         38.7442         62.1209 
       0.717957         60.5403           38.04         61.6146 
        0.72409         60.0283         37.3569         61.0493 
       0.730186         59.6926         36.6947         60.1458 
       0.736317         58.6244         36.0449         59.3538 
       0.742472         57.9959         35.4088         58.8076 
       0.748622         57.1078         34.7889         57.9364 
        0.75476         56.0495         34.1856         57.3351 
       0.760888         55.9353         33.5981         56.7289 
       0.767043         54.9924         33.0224         56.2496 
       0.773185         54.5891         32.4618         55.5963 
       0.779291         53.9261         31.9177         55.0434 
       0.785407         53.0807         31.3855         54.3126 
       0.791564         53.0097         30.8623         53.6932 
       0.797719         52.1367         30.3513         53.1727 
       0.803834         51.7221         29.8553         52.5202 
       0.809972         50.9949         29.3687         52.0785 
       0.816124         50.5037         28.8919         51.4762 
       0.822261          49.939         28.4272         50.7942 
       0.828378         49.5886         27.9742         50.2205 
       0.834502         49.0683         27.5308         50.0656 
       0.840667         48.6323         27.0942         49.3538 
       0.846816         47.7187         26.6685         48.9255 
       0.852925         47.6644         26.2548         48.7184 
       0.859047         47.1722         25.8491         47.9179 
       0.865192         46.5031         25.4507         47.4934 
       0.871341         46.0301         25.0606         47.1397 
       0.877463         45.6747         24.6806          46.644 
       0.883569          45.463         24.3095         46.3357 
       0.889708         44.8912         23.9442         45.7317 
       0.895864         44.3806         23.5856         45.3102 
       0.902008         43.8591         23.2353         44.9497 
       0.908149         43.5657         22.8923         44.6041 
       0.914301         43.3002         22.5558         44.3169 
       0.920448         42.7787         22.2265         43.7584 
       0.926574         42.2117          21.905         43.3008 
       0.932687         41.9251         21.5906         42.9585 
       0.938823         41.4689         21.2813         42.5788 
       0.944975         41.1355         20.9774         42.1385 
       0.951105         40.7575         20.6807         41.7999 
       0.957225          40.587         20.3903         41.5161 
       0.963368         40.0283         20.1045         41.0931 
       0.969511          39.738         19.8243         40.7854 
       0.975621         39.3729          19.551         40.4682 
       0.981748         38.9576         19.2822          40.196 
       0.987916         38.7383         19.0168         39.7556 
        0.99406         38.3321         18.7574         39.4837 
        1.00019         38.0671         18.5035         39.1583 
        1.00632         37.7467         18.2546         38.9156 
        1.01246         37.5039         18.0099         38.6611 
        1.01859         37.0676         17.7701          38.284 
        1.02471         36.7452         17.5351         37.9709 
        1.03085         36.6421         17.3036         37.6936 
        1.03698         36.2989         17.0768         37.3801 
        1.04314         35.9646         16.8531         37.0069 
        1.04929         35.5972          16.634         36.8288 
        1.05541         35.4711         16.4197         36.6439 
        1.06154         35.2624         16.2087          36.212 
        1.06769         34.8114         16.0012         35.9557 
        1.07382         34.5331          15.798         35.7792 
        1.07993         34.2322         15.5988         35.4517 
        1.08607         34.0633         15.4023         35.1887 
        1.09222         33.7673          15.209         34.9984 
        1.09836         33.5301         15.0193         34.7132 
        1.10449         33.3108         14.8331         34.4224 
        1.11063         33.0643         14.6498         34.2713 
        1.11677         32.9687         14.4698         33.9667 
         1.1229         32.6298         14.2931         33.7299 
        1.12903         32.4394         14.1193         33.5451 
        1.13518         32.1853         13.9483         33.2171 
        1.14131         31.9671         13.7802         33.0231 
        1.14745         31.5729          13.615         32.8263 
        1.15359         31.3482         13.4525         32.6228 
        1.15973         31.1135         13.2926         32.4038 
        1.16584         30.9225         13.1361         32.2458 
        1.17197          30.629         12.9819         32.0088 
        1.17811         30.4652         12.8297          31.688 
        1.18424         30.2312         12.6804         31.5584 
        1.19038         30.0875         12.5331          31.385 
        1.19652          29.845         12.3882         31.1106 
        1.20267         29.6683         12.2456         30.9365 
        1.20881         29.4492         12.1054         30.8189 
        1.21495         29.2297         11.9675         30.6288 
        1.22108         29.2019         11.8319         30.3813 
         1.2272         28.9776         11.6987         30.1852 
        1.23334         28.7582         11.5673         30.0626 
        1.23949         28.5463         11.4376         29.8136 
        1.24562         28.2776         11.3102         29.6259 
        1.25174         28.1596          11.185         29.4849 
        1.25789         28.0052         11.0614         29.2828 
        1.26402         27.8666         10.9398          29.076 
        1.27014         27.6767         10.8204         28.9332 
        1.27628         27.3938         10.7025         28.7404 
        1.28244         27.3937          10.586         28.6713 
        1.28858         27.0917         10.4715         28.4113 
        1.29471         26.8602          10.359         28.2388 
        1.30084         26.7108         10.2482         28.1672 
        1.30697         26.6471         10.1389         27.9421 
        1.31312         26.3844          10.031         27.7612 
        1.31925         26.2613         9.92507         27.6741 
        1.32537         26.0845         9.82078         27.5475 
        1.33151         25.9254         9.71763         27.3434 
        1.33765         25.8376         9.61604         27.1931 
        1.34378         25.6713         9.51612         27.0656 
        1.34992         25.5111         9.41756          26.912 
        1.35606         25.3083          9.3202         26.7305 
         1.3622         25.1042          9.2244         26.6048 
        1.36833         25.0515         9.13019         26.5057 
        1.37445         24.9408         9.03735         26.3002 
        1.38059         24.7679         8.94554         26.1276 
        1.38675         24.5617         8.85479          26.038 
        1.39288         24.4199         8.76567         25.8836 
        1.39901         24.3229         8.67783         25.7701 
        1.40515         24.1638           8.591         25.6495 
         1.4113         24.0468         8.50541          25.525 
        1.41742         23.9288         8.42132         25.3868 
        1.42355          23.729         8.33822         25.1858 
         1.4297         23.6104         8.25601         25.1136 
        1.43585         23.4965         8.17494         25.0218 
        1.44198         23.3918         8.09528         24.8654 
        1.44809         23.2496         8.01685          24.765 
        1.45423         23.1051         7.93917         24.6236 
        1.46036           22.99         7.86267         24.4698 
        1.46649         22.8345         7.78716         24.3458 
        1.47263         22.7554          7.7126         24.2667 
        1.47877         22.6591         7.63905          24.193 
        1.48491         22.4997         7.56635         23.9772 
        1.49104         22.3644         7.49476         23.9002 
        1.49718         22.2669         7.42405         23.8069 
        1.50333         22.1594         7.35415         23.6903 
        1.50947         22.0443         7.28529         23.5903 
         1.5156           21.92         7.21743         23.4695 
        1.52172         21.7904         7.15044         23.3218 
        1.52787         21.6585         7.08417          23.205 
          1.534         21.6151         7.01883         23.1079 
        1.54013         21.4994         6.95438         22.9503 
        1.54627         21.3457         6.89064         22.8425 
        1.55241         21.2116         6.82768         22.7981 
        1.55855         21.1437         6.76561         22.6936 
        1.56467         21.0565         6.70449         22.5629 
         1.5708         20.9666         6.64396         22.4956 
        1.57695          20.816         6.58409         22.4035 
        1.58308         20.6691          6.5251         22.2822 
        1.58922         20.6003          6.4668         22.2147 
        1.59535         20.4594         6.40924         22.1058 
         1.6015         20.3369          6.3523         21.9921 
        1.60764         20.2797         6.29609         21.8844 
        1.61376          20.217         6.24072          21.775 
        1.61989         20.0577         6.18598         21.7044 
        1.62604          20.005         6.13178         21.6473 
        1.63218         19.9007         6.07826         21.5359 
        1.63831          19.775         6.02551         21.4113 
        1.64444         19.6807         5.97338         21.3504 
        1.65059         19.5697         5.92174         21.2336 
        1.65673         19.5072         5.87077         21.1594 
        1.66285         19.3799         5.82055         21.0909 
        1.66898         19.3309          5.7709         20.9705 
        1.67512         19.2495         5.72174         20.8754 
        1.68127         19.0901         5.67311         20.7731 
         1.6874         19.0496         5.62516         20.6761 
        1.69353         18.9248          5.5778         20.6174 
        1.69967         18.8271         5.53087         20.5491 
        1.70581         18.7806         5.48451         20.4768 
        1.71193         18.6598         5.43886           20.39 
        1.71806         18.6122         5.39363         20.2765 
        1.72421         18.4926         5.34884         20.2171 
        1.73035          18.394         5.30461         20.1246 
        1.73649         18.3431         5.26089         20.0013 
        1.74262         18.1909          5.2177           19.98 
        1.74876         18.1644         5.17497         19.8982 
        1.75489         18.0778         5.13282         19.7741 
        1.76101         17.9835         5.09114         19.6913 
        1.76715         17.9025         5.04988         19.6392 
        1.77329         17.8214         5.00903         19.5508 
        1.77943         17.7057         4.96862         19.4707 
        1.78557         17.6813         4.92871         19.4392 
        1.79171         17.5681         4.88924         19.3496 
        1.79785         17.5375          4.8502         19.2438 
        1.80399         17.3993         4.81159         19.1968 
        1.81012         17.3605         4.77347         19.1165 
        1.81625         17.2261         4.73577         19.0473 
        1.82239         17.1604         4.69842         18.9985 
        1.82853         17.1064          4.6615         18.8972 
        1.83466          16.988         4.62502         18.8179 
        1.84078         16.9701         4.58896         18.7657 
        1.84692         16.9121         4.55324         18.6775 
        1.85306         16.8219         4.51785         18.6094 
         1.8592         16.7492          4.4829         18.5571 
        1.86533         16.6355         4.44834         18.4797 
        1.87147         16.5713          4.4141         18.4142 
        1.87761         16.4875         4.38022          18.353 
