#  k  (h/Mpc)          P(k)  (Mpc/h)^3     P_linear(k)   P_NL(k) (Mpc/h)^3
     0.00783031         11497.5         11652.1         11605.3 
       0.013688         14698.7           14586         14500.3 
       0.019231         14990.8         14966.9         14850.8 
      0.0249154         13744.7         14004.7         13887.4 
      0.0312784         12110.8           12231         12117.3 
      0.0375637         10423.6         10424.7         10324.8 
      0.0433917         8883.28         9021.05         8919.69 
      0.0492413         7923.57         7966.95          7874.7 
      0.0555754         6999.86         7183.11         7100.97 
      0.0619321         6669.88         6648.39         6567.49 
       0.067871         6105.15         6250.91         6173.08 
      0.0738098         5710.94         5854.77          5733.9 
      0.0800417         5195.45         5384.64         5272.98 
      0.0862327         4743.84         4860.32         4797.66 
      0.0921407         4312.05         4343.23         4296.21 
      0.0982031         3808.47         3846.57         3860.35 
       0.104506         3492.08         3411.58         3475.56 
       0.110769         3168.99         3083.01         3130.28 
       0.116806         2938.46         2860.05         2906.41 
       0.122832         2793.92         2707.76         2759.21 
       0.129052          2615.7         2592.43         2634.57 
       0.135211         2509.54         2487.81         2521.02 
       0.141259         2422.45         2370.96         2416.37 
       0.147318         2297.27         2229.89         2296.71 
       0.153489         2112.69         2065.22         2112.75 
       0.159709          1983.6         1891.87         1974.91 
       0.165845         1877.66         1730.49         1864.81 
       0.171974         1747.14         1592.25         1735.04 
       0.178125         1648.31         1483.08         1657.82 
       0.184229         1571.11         1403.26         1568.46 
        0.19034         1477.35         1345.41         1502.85 
       0.196428         1456.03         1300.31         1438.07 
       0.202534         1412.93         1257.94          1394.9 
       0.208729         1351.77         1210.21         1331.95 
       0.214876         1291.67         1154.54         1301.52 
       0.220989         1248.89         1091.73         1254.53 
       0.227147         1185.87            1025         1201.57 
        0.23329         1133.48          960.31         1159.23 
       0.239377         1106.38         902.718          1107.7 
       0.245482         1031.79         854.182         1051.76 
       0.251667         1022.03         814.894         1021.87 
       0.257832         983.017         784.065         983.778 
       0.263955         952.239         758.787         951.994 
       0.270079         919.755          735.59         925.195 
        0.27624         910.739         711.667         896.894 
       0.282372         872.906         685.651         875.631 
        0.28843         858.471         657.631         852.102 
       0.294538         815.338         627.944         829.075 
       0.300721         810.445         598.044         804.755 
        0.30691         773.906         569.912         787.126 
       0.313033         758.252         545.042         758.651 
       0.319153         738.866         523.613         736.402 
       0.325316         715.943         505.238         720.427 
        0.33145         697.529         489.386         693.881 
       0.337538         687.057         475.033         679.293 
       0.343633         667.514         461.074         672.116 
       0.349808         645.096         446.675         659.787 
       0.355968         640.456         431.729          647.88 
       0.362074         630.415         416.511         633.459 
       0.368217         612.225         401.152         614.723 
       0.374374         586.619          386.27         601.763 
       0.380519         584.263         372.365         587.212 
       0.386598         569.152           359.8         579.229 
       0.392688          566.51         348.483         562.667 
        0.39888         549.698         338.061         553.217 
       0.405048         539.601         328.506         545.503 
       0.411186         530.605         319.473         531.662 
       0.417313         520.417         310.622         521.517 
       0.423458          510.95         301.773         513.858 
       0.429607         501.914         292.888         503.825 
       0.435692         490.445         284.129         493.514 
       0.441815         486.403         275.507         489.576 
       0.447964         475.734         267.191         480.804 
       0.454126         465.203         259.301         467.776 
       0.460267         457.084         251.959         465.219 
       0.466387         452.048         245.146         456.104 
        0.47254         443.586         238.708         449.637 
       0.478662         442.159         232.621         441.036 
       0.484765         427.786         226.778          432.87 
       0.490885         423.866         221.056         426.874 
       0.497035         415.613         215.385         422.075 
       0.503198         410.075         209.791         416.093 
       0.509342         406.687         204.338         410.829 
       0.515458         402.461         199.063         407.183 
       0.521598         393.215         193.955         399.987 
       0.527764          386.16         189.048         395.117 
       0.533884         383.901         184.419          389.97 
           0.54         378.708         180.015         383.954 
       0.546137         376.855         175.779         379.418 
       0.552299         369.285          171.68         373.848 
       0.558452         366.935         167.715         369.989 
       0.564573         361.331         163.879         366.943 
       0.570708         355.424         160.124         363.233 
       0.576825         348.242         156.463         356.273 
       0.582926         346.366         152.899         352.711 
       0.589034             343         149.435         348.288 
       0.595184         339.633         146.065         343.114 
       0.601379         335.332         142.796         340.441 
       0.607522         330.088         139.672         336.241 
       0.613639         328.496         136.668         333.833 
       0.619772         320.858         133.753         331.714 
       0.625918         319.789         130.922         326.684 
       0.632068         314.663         128.173          322.47 
       0.638161         313.399         125.525         320.318 
         0.6443         307.946         122.926         317.134 
       0.650464          305.09         120.384         311.478 
       0.656582         303.367         117.924         309.055 
       0.662703         301.585         115.527         307.559 
       0.668861         296.066         113.184         304.399 
       0.675024         292.754         110.907          301.33 
       0.681124         291.192         108.723          297.07 
       0.687237         288.002         106.601         294.359 
       0.693381         283.714          104.53         291.532 
       0.699536         281.003         102.513         289.353 
       0.705665         278.964         100.557         286.677 
       0.711789         276.482          98.653         284.321 
       0.717957         274.564         96.7817         282.229 
        0.72409         271.714         94.9668         279.941 
       0.730186         268.509         93.2079         277.318 
       0.736317         265.706         91.4835         274.273 
       0.742472         264.252         89.7969         271.622 
       0.748622         261.943         88.1558         269.053 
        0.75476         259.464         86.5613         268.496 
       0.760888         256.181         85.0104         264.723 
       0.767043         256.292         83.4928          263.06 
       0.773185         252.843         82.0164         261.091 
       0.779291         248.558         80.5847         258.215 
       0.785407         247.983         79.1853         256.304 
       0.791564          245.12         77.8101         254.442 
       0.797719         242.602         76.4678         252.795 
       0.803834         240.912         75.1654         251.047 
       0.809972         239.489         73.8884         248.945 
       0.816124         239.282         72.6382         246.534 
       0.822261         235.761         71.4203          244.89 
       0.828378          233.86         70.2341         242.628 
       0.834502         233.038         69.0741         241.105 
       0.840667         229.653         67.9331         239.085 
       0.846816         228.218         66.8215          237.65 
       0.852925         227.084         65.7422          235.85 
       0.859047         225.039         64.6847         234.248 
       0.865192         222.604         63.6474         232.258 
       0.871341         220.805         62.6323         230.509 
       0.877463         219.253         61.6442         229.307 
       0.883569         218.312         60.6802         228.088 
       0.889708         216.041         59.7319         225.842 
       0.895864         213.374         58.8016          224.61 
       0.902008         212.705         57.8931          222.78 
       0.908149         211.754         57.0044         220.798 
       0.914301         208.914         56.1331         219.522 
       0.920448         207.503         55.2808         217.744 
       0.926574         206.168         54.4493         216.091 
       0.932687          205.91         53.6367         214.781 
       0.938823         203.242         52.8379         213.892 
       0.944975         201.819         52.0536         212.704 
       0.951105         200.772         51.2882         210.937 
       0.957225         198.871         50.5395         209.331 
       0.963368         196.347         49.8034         207.648 
       0.969511         195.542          49.082         206.228 
       0.975621         193.936         48.3788         205.825 
       0.981748         193.829         47.6877         204.365 
       0.987916         191.609         47.0059         203.043 
        0.99406         189.762           46.34         201.734 
        1.00019         189.692         45.6885         200.186 
        1.00632         187.784         45.0501         198.542 
        1.01246         186.433         44.4231         196.952 
        1.01859         185.896         43.8091         196.411 
        1.02471         183.688         43.2075         195.651 
        1.03085         181.944         42.6153         194.345 
        1.03698         181.163         42.0354         193.327 
        1.04314          179.58         41.4639         191.887 
        1.04929         178.335         40.9045         190.629 
        1.05541         178.034         40.3576         189.572 
        1.06154         176.232         39.8195         188.496 
        1.06769         175.968         39.2904         187.604 
        1.07382         174.392         38.7727         186.341 
        1.07993         172.793         38.2656         185.152 
        1.08607         172.141         37.7654          184.27 
        1.09222         171.163         37.2738         183.414 
        1.09836         169.647         36.7915         182.403 
        1.10449          167.89         36.3184         181.306 
        1.11063         166.512         35.8531         179.956 
        1.11677         166.223         35.3962         178.834 
         1.1229         164.795         34.9481         177.892 
        1.12903         163.939         34.5073         177.001 
        1.13518         163.161         34.0738         175.987 
        1.14131         161.463         33.6481         174.735 
        1.14745         161.166         33.2298         174.015 
        1.15359         159.856         32.8186         172.946 
        1.15973         159.071         32.4143         172.054 
        1.16584           157.4         32.0186         170.573 
        1.17197         156.925         31.6289         170.094 
        1.17811         155.754         31.2446         169.414 
        1.18424         154.954         30.8678         168.054 
        1.19038         154.517         30.4962         167.599 
        1.19652          153.19         30.1308         166.763 
        1.20267         152.392         29.7715         165.559 
        1.20881         150.921         29.4181          164.85 
        1.21495         150.407          29.071         163.763 
        1.22108          149.46         28.7296         163.213 
         1.2272         148.146         28.3945         161.771 
        1.23334         147.549         28.0641         161.435 
        1.23949         146.349         27.7381         160.504 
        1.24562         145.502         27.4182         159.265 
        1.25174         144.073         27.1039         158.683 
        1.25789         143.369         26.7935         157.816 
        1.26402         142.493         26.4886         156.931 
        1.27014         141.533         26.1892         156.629 
        1.27628          140.87         25.8935           156.2 
        1.28244         140.415         25.6019         154.806 
        1.28858         139.426         25.3152         153.876 
        1.29471         137.894         25.0335         153.149 
        1.30084         137.506         24.7564         152.302 
        1.30697         136.486          24.483         151.669 
        1.31312         135.903         24.2135         150.596 
        1.31925         134.867         23.9488         149.969 
        1.32537         134.169         23.6884         149.492 
        1.33151          132.85         23.4309         148.549 
        1.33765         132.483         23.1774         147.871 
        1.34378         131.613         22.9282         147.151 
        1.34992         131.189         22.6825         146.235 
        1.35606         130.477         22.4399         145.416 
         1.3622         129.237         22.2012         144.858 
        1.36833         128.446         21.9666          143.95 
        1.37445         127.669         21.7355         143.272 
        1.38059         127.088         21.5071         142.512 
        1.38675         126.233         21.2813         141.768 
        1.39288         125.722         21.0598         140.816 
        1.39901         125.283         20.8415         140.494 
        1.40515         124.093         20.6258         140.006 
         1.4113         123.128         20.4132         139.321 
        1.41742         122.684         20.2045         138.759 
        1.42355          121.83         19.9982         138.043 
         1.4297         121.134         19.7943          137.32 
        1.43585         120.084         19.5933         136.382 
        1.44198         119.835         19.3958         135.861 
        1.44809         119.003         19.2015         135.314 
        1.45423         118.184         19.0091         134.486 
        1.46036         117.714         18.8197         133.862 
        1.46649         116.747         18.6328         133.447 
        1.47263         116.168         18.4484         132.899 
        1.47877         115.691         18.2665         131.942 
        1.48491         114.449         18.0867         131.481 
        1.49104         114.277         17.9098         131.138 
        1.49718         113.177         17.7351         129.986 
        1.50333         112.759         17.5625         129.371 
        1.50947         112.267         17.3925         128.931 
         1.5156         111.425         17.2251         128.331 
        1.52172         110.721         17.0598         127.758 
        1.52787         110.114         16.8964         127.088 
          1.534         109.486         16.7354         126.568 
        1.54013         108.749         16.5766         126.035 
        1.54627         108.307         16.4195         125.448 
        1.55241          107.39         16.2646         124.879 
        1.55855         106.873         16.1118         124.237 
        1.56467         106.557         15.9614         123.593 
         1.5708         105.639         15.8125         123.128 
        1.57695         105.293         15.6653         122.608 
        1.58308         104.473         15.5203         121.925 
        1.58922         104.171         15.3771         121.348 
        1.59535         103.367         15.2357         120.863 
         1.6015         102.855         15.0959         120.245 
        1.60764         102.217         14.9579         119.684 
        1.61376         101.947         14.8221         119.405 
        1.61989         101.058         14.6878         118.941 
        1.62604         100.682         14.5549         118.045 
        1.63218         100.095         14.4237         117.472 
        1.63831         99.2413         14.2944         117.241 
        1.64444         98.9292         14.1667         116.511 
        1.65059         98.3131         14.0402         115.971 
        1.65673         97.3289         13.9154         115.519 
        1.66285         97.2485         13.7925         115.043 
        1.66898         96.6656          13.671          114.54 
        1.67512         96.0829         13.5507         114.038 
        1.68127         95.4595         13.4318         113.458 
         1.6874         94.7953         13.3146         112.938 
        1.69353         94.3225         13.1989          112.58 
        1.69967         93.8975         13.0842         112.012 
        1.70581          93.335          12.971         111.431 
        1.71193         92.9999         12.8595         110.989 
        1.71806         92.3011         12.7492         110.603 
        1.72421         91.6811         12.6399         110.098 
        1.73035         91.3145          12.532         109.486 
        1.73649         90.7013         12.4253         108.933 
        1.74262         90.1233         12.3201         108.614 
        1.74876         89.8095         12.2159         108.148 
        1.75489         89.0134         12.1132         107.556 
        1.76101         88.6791         12.0117         107.038 
        1.76715         88.0024         11.9113         106.649 
        1.77329         87.7378         11.8118         106.203 
        1.77943         86.9826         11.7135         105.695 
        1.78557         86.7311         11.6164         105.237 
        1.79171         86.0403         11.5204          104.84 
        1.79785         85.6809         11.4254          104.45 
        1.80399         85.1959         11.3316          103.99 
        1.81012         84.8251         11.2389         103.424 
        1.81625         84.2494         11.1473          102.95 
        1.82239         83.9199         11.0566         102.591 
        1.82853         83.5153          10.967         102.154 
        1.83466         82.8019         10.8784         101.675 
        1.84078         82.6746         10.7909         101.279 
        1.84692         81.9501         10.7043          101.02 
        1.85306         81.4236         10.6184         100.519 
         1.8592         81.0905         10.5337         99.9611 
        1.86533         80.5976         10.4499         99.6088 
        1.87147         79.9892          10.367         99.0152 
        1.87761         79.7113         10.2849         98.5522 
