# k  (h/Mpc)    Pcb(k)  (Mpc/h)^3    Pcb_linear(k) (Mpc/h)^3    Pcb_NL(k) (Mpc/h)^3   ShotnoiseSubtracted = false
     0.00783031         10436.5           10579         10480.9 
       0.013688         11867.3         11783.7         11701.7 
       0.019231         10923.4         10879.2         10809.8 
      0.0249154         9046.17         9159.13         9116.57 
      0.0312784         7174.45         7185.99          7174.5 
      0.0375637         5705.95         5657.72         5657.24 
      0.0433917         4696.24         4708.47         4707.08 
      0.0492413         4143.48         4127.58         4127.71 
      0.0555754         3714.09         3759.61         3757.31 
      0.0619321          3533.9         3493.83         3489.69 
       0.067871         3197.92         3226.58         3224.25 
      0.0738098          2875.3         2897.18         2885.26 
      0.0800417         2477.37         2503.51          2504.3 
      0.0862327          2126.3         2119.91          2142.8 
      0.0921407         1850.42          1811.2         1840.55 
      0.0982031         1605.24          1578.8         1623.53 
       0.104506         1485.78         1426.02         1478.79 
       0.110769         1387.51         1340.54         1377.87 
       0.116806          1322.7          1289.3         1318.22 
       0.122832         1273.69         1239.25         1266.06 
       0.129052         1181.47         1168.29         1191.74 
       0.135211         1093.26          1073.9          1101.4 
       0.141259         1007.55         967.047         1004.54 
       0.147318         913.798         861.462         913.063 
       0.153489         817.587         769.575         815.723 
       0.159709         757.278         700.519         752.411 
       0.165845         718.835         655.295         715.139 
       0.171974         681.446         626.904           679.1 
       0.178125         656.671         606.568         660.858 
       0.184229         632.668         586.138         634.925 
        0.19034         590.928          559.96         605.079 
       0.196428         570.529          526.87         568.798 
       0.202534         542.367         489.077         535.475 
       0.208729         503.326         450.501         497.621 
       0.214876         469.717         416.265          473.12 
       0.220989         447.092         388.728         448.205 
       0.227147         424.106         367.932         426.799 
        0.23329         406.663         352.718         413.023 
       0.239377         396.499         340.727         397.796 
       0.245482         370.974         329.317         380.623 
       0.251667         365.454         316.591         369.949 
       0.257832         350.821         302.075         353.118 
       0.263955         335.371         286.276         336.957 
       0.270079         319.257         270.232         322.245 
        0.27624         311.199         255.097         306.619 
       0.282372         298.338         241.915         295.352 
        0.28843         287.016         231.053         284.769 
       0.294538         273.065         222.006         275.475 
       0.300721         269.446         214.202         267.724 
        0.30691         256.851         206.976         260.652 
       0.313033         250.224         199.826         251.014 
       0.319153         239.905         192.347         242.907 
       0.325316         233.634         184.516         235.563 
        0.33145         224.364         176.647         225.863 
       0.337538         219.716         169.122         218.041 
       0.343633         211.506         162.142          213.16 
       0.349808         203.878         155.808           207.5 
       0.355968          200.29         150.203         202.425 
       0.362074         195.122         145.215         196.406 
       0.368217         189.135         140.569         189.759 
       0.374374         181.829         136.076         184.749 
       0.380519         178.899          131.64         179.362 
       0.386598         173.795         127.246         175.789 
       0.392688         170.624         122.877         170.324 
        0.39888         166.028         118.557         165.725 
       0.405048         161.152         114.456         162.242 
       0.411186         157.405         110.636         157.643 
       0.417313         153.786         107.107         153.199 
       0.423458         150.002         103.815         149.988 
       0.429607         146.506         100.722          146.73 
       0.435692         141.806          97.805         142.948 
       0.441815         140.251         94.9581         140.768 
       0.447964         137.051         92.1598         137.397 
       0.454126         131.238         89.4206         133.167 
       0.460267         129.433         86.7665         131.601 
       0.466387         127.568         84.2124         128.395 
        0.47254         124.194         81.7573         125.698 
       0.478662         123.336         79.4399         123.117 
       0.484765         119.075         77.2487         119.743 
       0.490885         117.014         75.1545         117.925 
       0.497035         115.142         73.1394         115.992 
       0.503198         111.894         71.1966         113.662 
       0.509342         110.052         69.3222         111.738 
       0.515458         108.182         67.5079         110.107 
       0.521598         106.035          65.738          107.22 
       0.527764          104.54         64.0183         105.225 
       0.533884         102.854         62.3734         103.584 
           0.54         100.647         60.7932         101.537 
       0.546137         99.4565         59.2681         100.159 
       0.552299         97.5727         57.7951         97.7852 
       0.558452         95.7903         56.3798         95.9709 
       0.564573         94.0961         55.0222         94.9057 
       0.570708         92.2083         53.7069         93.4372 
       0.576825         90.9579         52.4363         91.4608 
       0.582926         88.9982         51.2062         89.9992 
       0.589034          87.605         50.0106         89.0387 
       0.595184         86.2545          48.844          87.161 
       0.601379         84.9045         47.7072         86.1272 
       0.607522         83.1137         46.6178         84.2923 
       0.613639         82.4409         45.5695          83.425 
       0.619772         80.7478         44.5526         82.1054 
       0.625918         79.5266         43.5657         80.8702 
       0.632068         78.5588         42.6083         79.5324 
       0.638161         77.6028         41.6875         78.6911 
         0.6443         76.5538         40.7869          77.395 
       0.650464         75.5687         39.9092          75.747 
       0.656582         74.1379         39.0636         75.1308 
       0.662703         73.0039         38.2424         73.8482 
       0.668861         71.8922         37.4406         73.0107 
       0.675024         70.8988         36.6615         71.8544 
       0.681124         70.1584         35.9128         70.8435 
       0.687237         68.7331         35.1838         69.9059 
       0.693381            67.8         34.4718         68.8174 
       0.699536         67.1416         33.7783         68.1721 
       0.705665         66.9338          33.107         67.5369 
       0.711789          65.268         32.4545         66.2791 
       0.717957          64.798         31.8152         65.5312 
        0.72409         63.6713         31.1967         64.9738 
       0.730186         62.6142         30.5985         64.1962 
       0.736317         62.3698         30.0128           63.15 
       0.742472         61.6161         29.4405         62.4507 
       0.748622         60.7735         28.8837         61.6194 
        0.75476         60.0874         28.3427         60.8138 
       0.760888         59.1923         27.8165         59.9576 
       0.767043         58.6803         27.3017         59.6056 
       0.773185         57.8877          26.801         59.0336 
       0.779291         57.1655         26.3159         58.2517 
       0.785407         56.7263         25.8421         57.4166 
       0.791564          56.146         25.3771         56.8586 
       0.797719         54.9934         24.9238         56.4607 
       0.803834         54.7092         24.4845         55.5939 
       0.809972         53.7255         24.0542         54.9855 
       0.816124         53.3764         23.6334         54.5052 
       0.822261         52.8974         23.2238          53.814 
       0.828378         52.5086         22.8252         53.0903 
       0.834502         51.8894         22.4357         52.6451 
       0.840667         51.2047         22.0528         52.2961 
       0.846816         50.4926         21.6799          51.725 
       0.852925         50.0858         21.3181         51.1666 
       0.859047         49.3602         20.9637         50.5798 
       0.865192         49.0029         20.6163          50.119 
       0.871341         48.6125         20.2766         49.5645 
       0.877463         47.7934         19.9461         49.0913 
       0.883569          47.513         19.6239         48.8152 
       0.889708         47.0976         19.3071          48.235 
       0.895864         46.6447         18.9966         47.8316 
       0.902008         46.1746         18.6935         47.2404 
       0.908149         45.7706         18.3973         46.8993 
       0.914301           45.29         18.1071         46.5226 
       0.920448         44.9426         17.8234         46.0524 
       0.926574          44.346         17.5468         45.5816 
       0.932687         44.2012         17.2767         45.2038 
       0.938823         43.4825         17.0113         44.6756 
       0.944975         43.0945         16.7509         44.3086 
       0.951105         42.6821         16.4969         43.9738 
       0.957225         42.2171         16.2487         43.5653 
       0.963368         42.0534         16.0047         43.1319 
       0.969511         41.6896         15.7657          42.757 
       0.975621         41.4261          15.533           42.58 
       0.981748         40.8868         15.3044         42.2058 
       0.987916         40.4395         15.0789         41.8842 
        0.99406         40.2273         14.8588         41.4018 
        1.00019         39.8112         14.6436         40.9948 
        1.00632         39.5091         14.4329           40.67 
        1.01246         39.2525          14.226         40.3127 
        1.01859         38.6794         14.0235         40.1592 
        1.02471         38.4971         13.8253         39.8815 
        1.03085          38.178         13.6302         39.4361 
        1.03698         37.8151         13.4393         39.1008 
        1.04314         37.5234         13.2512         38.7375 
        1.04929         37.1874         13.0672         38.5165 
        1.05541         36.7773         12.8874         38.3489 
        1.06154         36.7328         12.7106         37.9837 
        1.06769         36.2941         12.5369         37.6732 
        1.07382          36.125          12.367         37.4088 
        1.07993         35.8523         12.2006         37.1232 
        1.08607         35.5449         12.0366          36.873 
        1.09222         35.2888         11.8754         36.5544 
        1.09836         34.9462         11.7174         36.2642 
        1.10449         34.7405         11.5625         36.0256 
        1.11063         34.3406         11.4102         35.6591 
        1.11677         34.1181         11.2606         35.3868 
         1.1229         33.8388         11.1141          35.255 
        1.12903         33.3982           10.97         34.9877 
        1.13518         33.5072         10.8284         34.7044 
        1.14131         33.2345         10.6893         34.4623 
        1.14745         32.7808         10.5528         34.2808 
        1.15359         32.6806         10.4186          33.974 
        1.15973         32.2741         10.2868          33.805 
        1.16584         32.1222         10.1578         33.4466 
        1.17197         31.8942         10.0308         33.3415 
        1.17811         31.7349         9.90562         33.0741 
        1.18424         31.4382         9.78295         32.8637 
        1.19038          31.192         9.66201         32.6303 
        1.19652         31.1149         9.54316         32.3686 
        1.20267         30.7799         9.42631         32.2245 
        1.20881         30.6031         9.31146         32.0176 
        1.21495         30.3143          9.1987         31.7893 
        1.22108         30.2005         9.08783          31.603 
         1.2272         29.8083         8.97906          31.415 
        1.23334         29.6931         8.87182         31.2063 
        1.23949          29.663         8.76608         30.9354 
        1.24562         29.2514         8.66237         30.7442 
        1.25174         29.1622         8.56049         30.6168 
        1.25789         29.0026         8.45994         30.3892 
        1.26402         28.7349          8.3612         30.1857 
        1.27014         28.4794         8.26427         30.0747 
        1.27628         28.2956         8.16859         29.8471 
        1.28244         28.1585         8.07424         29.6574 
        1.28858         28.0053         7.98151         29.4676 
        1.29471         27.8899         7.89045         29.3485 
        1.30084         27.7088         7.80089         29.1218 
        1.30697         27.4653         7.71258         28.9227 
        1.31312         27.2664         7.62552         28.7817 
        1.31925         27.1109         7.54007         28.5919 
        1.32537         26.9498         7.45601         28.4723 
        1.33151         26.7297         7.37294         28.2711 
        1.33765         26.6158         7.29118         28.0992 
        1.34378         26.4429         7.21083         27.9656 
        1.34992         26.2611         7.13163         27.7997 
        1.35606         26.1055         7.05345         27.6473 
         1.3622         25.9491         6.97659         27.5001 
        1.36833         25.7317         6.90105         27.3913 
        1.37445         25.6424         6.82668         27.2107 
        1.38059         25.4608         6.75317          27.079 
        1.38675         25.2278         6.68058         26.9226 
        1.39288          25.204         6.60933         26.7739 
        1.39901         25.0003         6.53917         26.6144 
        1.40515         24.8204         6.46986         26.4869 
         1.4113         24.6912         6.40159         26.3327 
        1.41742         24.5609         6.33456         26.1462 
        1.42355         24.3953         6.26837         26.0656 
         1.4297           24.28         6.20293         25.8816 
        1.43585         24.1924         6.13844         25.7712 
        1.44198         23.9061         6.07512         25.6394 
        1.44809         23.8551         6.01282         25.4837 
        1.45423         23.7097         5.95115         25.3274 
        1.46036         23.6138         5.89047         25.2066 
        1.46649         23.4477         5.83061         25.1081 
        1.47263         23.2893         5.77154         24.9977 
        1.47877         23.1975         5.71331         24.8505 
        1.48491          23.176         5.65579         24.7192 
        1.49104         22.9068         5.59919         24.6093 
        1.49718         22.7028         5.54332         24.4914 
        1.50333         22.7075         5.48813         24.3473 
        1.50947         22.5719          5.4338         24.2208 
         1.5156         22.4274         5.38029         24.1149 
        1.52172         22.3144          5.3275         24.0037 
        1.52787         22.2101         5.27531         23.8755 
          1.534         22.0918         5.22389         23.7477 
        1.54013         21.9094          5.1732         23.6171 
        1.54627         21.8522          5.1231         23.5006 
        1.55241         21.6271         5.07364         23.3968 
        1.55855         21.5886         5.02492         23.2857 
        1.56467         21.3692         4.97696         23.2032 
         1.5708         21.4143          4.9295         23.0871 
        1.57695         21.2077         4.88258         22.9622 
        1.58308         21.0883         4.83638         22.8613 
        1.58922         21.0271         4.79074         22.7402 
        1.59535         20.9138         4.74571         22.6368 
         1.6015         20.7465          4.7012         22.5187 
        1.60764         20.6168         4.65727         22.4037 
        1.61376         20.5203         4.61404         22.3233 
        1.61989         20.4001         4.57131         22.2324 
        1.62604         20.3372         4.52903         22.1272 
        1.63218         20.2837         4.48731         22.0325 
        1.63831         20.0987         4.44621         21.9496 
        1.64444         20.0231         4.40562         21.8418 
        1.65059         19.9198         4.36543         21.7232 
        1.65673         19.7751         4.32579         21.6356 
        1.66285         19.7296         4.28675         21.5648 
        1.66898         19.6092         4.24818         21.4686 
        1.67512          19.517         4.21001          21.343 
        1.68127         19.3836         4.17228         21.2443 
         1.6874          19.266         4.13509         21.1517 
        1.69353         19.2222         4.09837         21.0276 
        1.69967         19.1039         4.06202         20.9519 
        1.70581         19.0222         4.02612         20.8895 
        1.71193         18.9423         3.99079         20.8046 
        1.71806         18.7926         3.95581         20.7005 
        1.72421         18.6914         3.92118         20.6102 
        1.73035         18.5975         3.88701         20.5428 
        1.73649         18.5316         3.85324          20.467 
        1.74262         18.4351         3.81991         20.3373 
        1.74876         18.3801         3.78695         20.2266 
        1.75489         18.2793         3.75444         20.1639 
        1.76101          18.167         3.72233         20.1149 
        1.76715         18.0964         3.69054         20.0185 
        1.77329         18.0346         3.65909         19.9168 
        1.77943         17.9359           3.628         19.8319 
        1.78557         17.7988         3.59731         19.7518 
        1.79171         17.7117         3.56697         19.6745 
        1.79785          17.628         3.53697         19.6034 
        1.80399         17.6053         3.50733         19.5352 
        1.81012         17.4821         3.47806         19.4454 
        1.81625         17.4373         3.44915         19.3528 
        1.82239         17.3273         3.42051         19.2774 
        1.82853         17.2396         3.39222         19.2103 
        1.83466         17.1709         3.36427         19.1337 
        1.84078          17.018         3.33667         19.0447 
        1.84692         16.9816         3.30934         18.9582 
        1.85306         16.9069         3.28227         18.8987 
         1.8592         16.8096         3.25555         18.8385 
        1.86533         16.7285         3.22914         18.7473 
        1.87147         16.6857           3.203         18.6624 
