# k  (h/Mpc)    P(k)  (Mpc/h)^3    P_linear(k)  (Mpc/h)^3     P_NL(k)  ShotnoiseSubtracted = false
     0.00783031         308.253         311.469         308.552 
       0.013688         346.116          347.34         345.184 
       0.019231         320.737         320.817         319.147 
      0.0249154         269.604         270.154          269.37 
      0.0312784         212.465         211.986         212.202 
      0.0375637         167.603         166.916         167.244 
      0.0433917         139.246         138.918         139.238 
      0.0492413         122.071         121.784         122.057 
      0.0555754         110.843          110.93         110.991 
      0.0619321         103.293          103.09         103.033 
       0.067871          95.038         95.2057         95.0831 
      0.0738098         85.3164         85.4873         85.3692 
      0.0800417         73.7094         73.8721         73.8411 
      0.0862327         62.5719         62.5535         62.6171 
      0.0921407         53.5556         53.4447          53.553 
      0.0982031         46.6251         46.5871         46.7257 
       0.104506         42.2585         42.0792         42.2047 
       0.110769         39.6506         39.5569         39.6344 
       0.116806         38.0051         38.0451         38.0671 
       0.122832         36.5769         36.5681         36.5645 
       0.129052         34.3922         34.4745          34.457 
       0.135211         31.6122          31.689         31.6854 
       0.141259          28.551         28.5362         28.5629 
       0.147318         25.5015         25.4206         25.4848 
       0.153489         22.7701         22.7092         22.7769 
       0.159709         20.7336         20.6715         20.7486 
       0.165845         19.4555          19.337         19.4182 
       0.171974         18.5163         18.4992           18.56 
       0.178125         17.9246         17.8991         17.9542 
       0.184229         17.3317         17.2963         17.3384 
        0.19034         16.4849         16.5238         16.5585 
       0.196428         15.5558         15.5474         15.5773 
       0.202534         14.5123         14.4321         14.4722 
       0.208729         13.3368         13.2938         13.3439 
       0.214876         12.3027         12.2836         12.3496 
       0.220989         11.5413          11.471         11.5412 
       0.227147         10.8804         10.8573         10.9229 
        0.23329         10.4275         10.4083         10.4742 
       0.239377         10.0742         10.0545         10.1151 
       0.245482         9.71322         9.71782         9.76641 
       0.251667         9.37007         9.34228         9.39386 
       0.257832         8.92777         8.91399         8.96281 
       0.263955         8.47163         8.44775         8.49608 
       0.270079         8.00626         7.97429         8.02493 
        0.27624         7.58389         7.52767         7.57833 
       0.282372         7.19692         7.13864         7.19543 
        0.28843         6.85499         6.81817          6.8755 
       0.294538         6.58358         6.55122         6.60599 
       0.300721         6.37166         6.32089         6.37575 
        0.30691         6.13647         6.10766         6.16148 
       0.313033         5.92268         5.89674         5.94642 
       0.319153         5.67067           5.676         5.72574 
       0.325316         5.48789         5.44491         5.49629 
        0.33145         5.24825         5.21271         5.26215 
       0.337538         5.02649         4.99064         5.03928 
       0.343633         4.80888         4.78467         4.83282 
       0.349808         4.63229         4.59775         4.64877 
       0.355968         4.47092         4.43235         4.48818 
       0.362074         4.31506         4.28519         4.33645 
       0.368217         4.17665         4.14809         4.19406 
       0.374374         4.03255         4.01548         4.06347 
       0.380519          3.9123         3.88458         3.92965 
       0.386598         3.78703         3.75493         3.80087 
       0.392688         3.66702           3.626         3.67172 
        0.39888         3.53162         3.49853         3.54514 
       0.405048         3.41317          3.3775         3.42017 
       0.411186         3.30117         3.26475         3.31141 
       0.417313         3.19112         3.16063         3.20617 
       0.423458         3.09927          3.0635           3.109 
       0.429607         2.99939         2.97222         3.01544 
       0.435692         2.91347         2.88614         2.93009 
       0.441815         2.82894         2.80215         2.84766 
       0.447964         2.75557         2.71956         2.76242 
       0.454126         2.66382         2.63873         2.68109 
       0.460267         2.58698         2.56041         2.60442 
       0.466387         2.50604         2.48504         2.52618 
        0.47254         2.43677         2.41258         2.45401 
       0.478662         2.37257         2.34421          2.3843 
       0.484765         2.30093         2.27955         2.31916 
       0.490885         2.24274         2.21775         2.26064 
       0.497035         2.19227         2.15829         2.20183 
       0.503198         2.12854         2.10096         2.14018 
       0.509342         2.07662         2.04565         2.08532 
       0.515458         2.01748          1.9921         2.03346 
       0.521598         1.96583         1.93988         1.97746 
       0.527764         1.90991         1.88913         1.92654 
       0.533884         1.87064         1.84059          1.8773 
           0.54         1.82087         1.79396            1.83 
       0.546137         1.77683         1.74896         1.78636 
       0.552299         1.73289         1.70549         1.73912 
       0.558452         1.68628         1.66372         1.69827 
       0.564573          1.6501         1.62366         1.66104 
       0.570708          1.6101         1.58485          1.6208 
       0.576825         1.57008         1.54736         1.58201 
       0.582926         1.53765         1.51105         1.54628 
       0.589034         1.49354         1.47577         1.51262 
       0.595184         1.46132         1.44135         1.47306 
       0.601379          1.4276          1.4078          1.4435 
       0.607522         1.39944         1.37566         1.41005 
       0.613639          1.3712         1.34472         1.37809 
       0.619772          1.3347         1.31471         1.34946 
       0.625918         1.30838         1.28559         1.31829 
       0.632068         1.28273         1.25734         1.28893 
       0.638161         1.25174         1.23017         1.26216 
         0.6443         1.22524         1.20359         1.23432 
       0.650464          1.1955         1.17769         1.21029 
       0.656582         1.17431         1.15274         1.18437 
       0.662703         1.14953          1.1285         1.15907 
       0.668861          1.1293         1.10484          1.1365 
       0.675024         1.10329         1.08185          1.1128 
       0.681124         1.07871         1.05976         1.08958 
       0.687237         1.05963         1.03825         1.06644 
       0.693381         1.03877         1.01724         1.04457 
       0.699536         1.01307        0.996774         1.02459 
       0.705665        0.994131        0.976962         1.00715 
       0.711789        0.977283        0.957708        0.986723 
       0.717957         0.95564        0.938842         0.96647 
        0.72409         0.93779        0.920591        0.948693 
       0.730186        0.919368        0.902938        0.929942 
       0.736317        0.906588        0.885656         0.91174 
       0.742472        0.888386        0.868766        0.896376 
       0.748622        0.870037        0.852337        0.880461 
        0.75476        0.852146        0.836372        0.862761 
       0.760888        0.836129        0.820844        0.847072 
       0.767043        0.825571        0.805652        0.832216 
       0.773185          0.8072        0.790879        0.817784 
       0.779291         0.79354        0.776563        0.803051 
       0.785407        0.779034        0.762582        0.788285 
       0.791564        0.766418         0.74886        0.774504 
       0.797719        0.753843        0.735483        0.759903 
       0.803834        0.741233        0.722519        0.747204 
       0.809972        0.727188        0.709822        0.735537 
       0.816124        0.713475        0.697404        0.721672 
       0.822261        0.700016        0.685318        0.708915 
       0.828378         0.68971        0.673556        0.697411 
       0.834502        0.679776        0.662061        0.685067 
       0.840667        0.665305        0.650762        0.674201 
       0.846816        0.654629        0.639759        0.664423 
       0.852925        0.646344         0.62908        0.652425 
       0.859047        0.635231        0.618625        0.643051 
       0.865192        0.623241        0.608373        0.631702 
       0.871341         0.61356        0.598348        0.621241 
       0.877463        0.605324        0.588595        0.610798 
       0.883569         0.59408        0.579086        0.602038 
       0.889708        0.585059        0.569739        0.592483 
       0.895864        0.575031        0.560575        0.582621 
       0.902008        0.565779        0.551633        0.573688 
       0.908149        0.557101        0.542892        0.564724 
       0.914301        0.546308        0.534327        0.555754 
       0.920448        0.538671        0.525955        0.547156 
       0.926574        0.530316        0.517793         0.53929 
       0.932687        0.521685        0.509822        0.530053 
       0.938823        0.515821        0.501991         0.52357 
       0.944975        0.507856        0.494307        0.514435 
       0.951105        0.500272        0.486812        0.506911 
       0.957225        0.494218        0.479486         0.49996 
       0.963368        0.486045        0.472287        0.492195 
       0.969511        0.477881        0.465236        0.485241 
       0.975621        0.470487        0.458367        0.477244 
       0.981748         0.46551         0.45162        0.470276 
       0.987916        0.457731        0.444967         0.46474 
        0.99406        0.450629        0.438474         0.45849 
        1.00019        0.445469        0.432123         0.45169 
        1.00632        0.437405        0.425905        0.444613 
        1.01246        0.431331          0.4198        0.438312 
        1.01859        0.426031        0.413825         0.43287 
        1.02471        0.419711        0.407974        0.426727 
        1.03085        0.415134        0.402217        0.420051 
        1.03698        0.408332        0.396583         0.41414 
        1.04314        0.403011        0.391034        0.408638 
        1.04929        0.396934        0.385604         0.40327 
        1.05541        0.392447        0.380299        0.398228 
        1.06154         0.38621        0.375082        0.392786 
        1.06769        0.380835        0.369955        0.387589 
        1.07382        0.375842         0.36494        0.382266 
        1.07993        0.370282        0.360031        0.377141 
        1.08607        0.366963        0.355191         0.37265 
        1.09222        0.361091        0.350435        0.367083 
        1.09836        0.357576        0.345773        0.362646 
        1.10449          0.3529          0.3412        0.358023 
        1.11063        0.346861        0.336706        0.352876 
        1.11677        0.342122        0.332294        0.348922 
         1.1229        0.338291        0.327969        0.344338 
        1.12903        0.333734        0.323717        0.339886 
        1.13518         0.32997        0.319537        0.335484 
        1.14131        0.325297        0.315434        0.331431 
        1.14745        0.319744        0.311405        0.326636 
        1.15359        0.316765        0.307446        0.323229 
        1.15973        0.311966        0.303555        0.319339 
        1.16584        0.309672        0.299748        0.314844 
        1.17197         0.30533        0.296002        0.311457 
        1.17811        0.302185        0.292308        0.307784 
        1.18424        0.298806        0.288688        0.303575 
        1.19038        0.294161        0.285119        0.299931 
        1.19652        0.290052        0.281612        0.296654 
        1.20267         0.28774        0.278164        0.292494 
        1.20881        0.283635        0.274775        0.289344 
        1.21495        0.281004        0.271447         0.28652 
        1.22108        0.277165        0.268176        0.282453 
         1.2272        0.274414        0.264966        0.278993 
        1.23334        0.270536        0.261801        0.275913 
        1.23949        0.267618        0.258681        0.272894 
        1.24562        0.264457         0.25562        0.269727 
        1.25174         0.26168        0.252614        0.266448 
        1.25789        0.258901        0.249647        0.263468 
        1.26402        0.254935        0.246733        0.260481 
        1.27014        0.252213        0.243873        0.257248 
        1.27628        0.250055        0.241049        0.254178 
        1.28244        0.246081        0.238265        0.251499 
        1.28858        0.243796        0.235529        0.248463 
        1.29471        0.241652        0.232842        0.245844 
        1.30084        0.238314        0.230199        0.243537 
        1.30697        0.235541        0.227593        0.240653 
        1.31312         0.23226        0.225024        0.237822 
        1.31925        0.230122        0.222502        0.235433 
        1.32537        0.227956        0.220022        0.232935 
        1.33151        0.225853         0.21757        0.230377 
        1.33765        0.223184        0.215158        0.227842 
        1.34378        0.220097        0.212787        0.225315 
        1.34992        0.218023         0.21045         0.22293 
        1.35606         0.21566        0.208143        0.220339 
         1.3622        0.213419        0.205874         0.21808 
        1.36833        0.210907        0.203645        0.215951 
        1.37445        0.208095        0.201451        0.213742 
        1.38059        0.206172        0.199282         0.21135 
        1.38675        0.204918        0.197139        0.208952 
        1.39288        0.202316        0.195037        0.206736 
        1.39901        0.200134        0.192966        0.204682 
        1.40515        0.198276        0.190921        0.202525 
         1.4113        0.195645        0.188907        0.200671 
        1.41742        0.193776        0.186929        0.198909 
        1.42355        0.192358        0.184975        0.196132 
         1.4297        0.189738        0.183044        0.194727 
        1.43585        0.187922        0.181141        0.192452 
        1.44198        0.186605        0.179273        0.190087 
        1.44809        0.184194        0.177434        0.188853 
        1.45423        0.182468        0.175615        0.186403 
        1.46036        0.180534        0.173824        0.184729 
        1.46649        0.179039        0.172057        0.183198 
        1.47263        0.176995        0.170314        0.181203 
        1.47877        0.174913        0.168596        0.179526 
        1.48491        0.173444        0.166899        0.177904 
        1.49104        0.171281        0.165228        0.175616 
        1.49718        0.169679         0.16358        0.174477 
        1.50333        0.168366        0.161951        0.172339 
        1.50947        0.166539        0.160348        0.170564 
         1.5156        0.164782        0.158769        0.169275 
        1.52172        0.163319        0.157211        0.167428 
        1.52787         0.16165        0.155671        0.165783 
          1.534        0.159977        0.154153        0.164428 
        1.54013        0.158352        0.152658          0.1628 
        1.54627        0.157184        0.151179         0.16113 
        1.55241        0.155336         0.14972        0.159618 
        1.55855        0.153825        0.148282        0.158084 
        1.56467        0.153035        0.146867        0.156712 
         1.5708        0.151128        0.145466        0.155104 
        1.57695        0.149796        0.144082        0.153511 
        1.58308        0.148229        0.142718        0.152301 
        1.58922        0.146964        0.141372        0.151014 
        1.59535         0.14549        0.140043        0.149508 
         1.6015        0.144098        0.138729        0.147952 
        1.60764        0.142906        0.137433        0.146784 
        1.61376        0.141237        0.136157        0.145781 
        1.61989        0.140207        0.134896        0.144321 
        1.62604        0.138966        0.133649        0.142912 
        1.63218        0.137738        0.132418        0.141678 
        1.63831        0.136583        0.131205        0.140393 
        1.64444         0.13519        0.130007         0.13898 
        1.65059        0.133963        0.128821        0.137797 
        1.65673        0.132851        0.127651        0.136671 
        1.66285         0.13182        0.126499        0.135458 
        1.66898        0.130649        0.125361        0.134174 
        1.67512        0.129112        0.124235        0.132988 
        1.68127         0.12794        0.123121        0.131846 
         1.6874        0.127189        0.122024        0.130807 
        1.69353        0.125723         0.12094        0.129818 
        1.69967        0.124876        0.119868        0.128426 
        1.70581        0.123457        0.118808        0.127186 
        1.71193        0.122572        0.117766        0.126203 
        1.71806        0.121346        0.116734         0.12509 
        1.72421        0.120549        0.115712        0.124174 
        1.73035        0.119282        0.114703        0.123098 
        1.73649        0.118478        0.113707        0.121807 
        1.74262        0.117347        0.112723        0.120839 
        1.74876        0.116276         0.11175        0.120009 
        1.75489        0.115447        0.110791        0.119008 
        1.76101        0.114278        0.109844        0.117877 
        1.76715        0.113323        0.108906        0.117022 
        1.77329        0.112275        0.107978        0.116117 
        1.77943        0.111252         0.10706        0.115062 
        1.78557        0.110617        0.106154        0.114016 
        1.79171        0.109689        0.105259         0.11299 
        1.79785        0.108698        0.104374        0.112101 
        1.80399        0.107813        0.103499        0.111333 
        1.81012        0.106928        0.102635        0.110213 
        1.81625        0.106035        0.101782        0.109242 
        1.82239        0.105205        0.100937        0.108612 
        1.82853        0.104153        0.100102        0.107795 
        1.83466        0.103343       0.0992776        0.106812 
        1.84078        0.102504       0.0984631        0.105884 
        1.84692        0.101565       0.0976564        0.105157 
        1.85306        0.101088       0.0968578        0.104196 
         1.8592       0.0999774       0.0960693        0.103184 
        1.86533       0.0993823       0.0952901        0.102505 
        1.87147       0.0984546       0.0945185        0.101765 
        1.87761       0.0977661       0.0937552        0.101019 
