# k  (h/Mpc)    Pcb(k)  (Mpc/h)^3    Pcb_linear(k) (Mpc/h)^3    Pcb_NL(k) (Mpc/h)^3   ShotnoiseSubtracted = false
     0.00783031         17232.9         17489.9         17324.1 
       0.013688         19680.1         19477.3         19329.8 
       0.019231         18069.4         17980.6         17850.4 
      0.0249154         14883.9         15136.9         15046.5 
      0.0312784         11826.4         11875.5         11832.7 
      0.0375637         9438.57         9349.72         9334.94 
      0.0433917         7742.15         7780.93         7763.38 
      0.0492413         6848.41         6820.91         6808.28 
      0.0555754         6105.67         6212.79         6201.26 
      0.0619321         5848.02         5773.54         5760.48 
       0.067871         5260.91         5331.89          5326.1 
      0.0738098         4736.46         4787.55         4755.03 
      0.0800417         4080.37            4137         4136.46 
      0.0862327         3519.47         3503.09          3559.1 
      0.0921407         3088.71         2992.96         3064.99 
      0.0982031         2683.16         2608.91         2720.87 
       0.104506          2499.4         2356.45         2489.95 
       0.110769         2330.31         2215.19         2311.18 
       0.116806         2224.11         2130.53         2205.69 
       0.122832         2134.01         2047.81         2116.91 
       0.129052         1971.16         1930.56         1991.83 
       0.135211         1829.45         1774.57         1844.63 
       0.141259         1701.29         1598.01         1694.37 
       0.147318         1554.75         1423.53          1553.1 
       0.153489         1395.39         1271.69         1389.81 
       0.159709         1301.07         1157.58          1290.8 
       0.165845         1240.54         1082.85         1234.26 
       0.171974         1179.97         1035.93         1170.98 
       0.178125         1131.28         1002.33         1141.71 
       0.184229         1085.19         968.566         1093.09 
        0.19034         1016.49         925.308         1041.44 
       0.196428         984.704         870.628         982.246 
       0.202534         938.656         808.176         930.178 
       0.208729         877.739         744.431         865.795 
       0.214876         828.006         687.858             831 
       0.220989         790.915         642.355         792.762 
       0.227147         755.572         607.989         759.242 
        0.23329         724.294         582.849         736.862 
       0.239377         708.063         563.034         708.568 
       0.245482         660.503         544.181         678.086 
       0.251667         653.963         523.151         660.586 
       0.257832         625.924         499.165         631.424 
       0.263955         601.505         473.057         604.964 
       0.270079         574.622         446.544         581.269 
        0.27624          564.15         421.536         555.919 
       0.282372         541.156         399.753         538.476 
        0.28843         527.172         381.804         522.086 
       0.294538         499.312         366.855         505.716 
       0.300721         494.955         353.957          491.44 
        0.30691         472.619         342.017         481.396 
       0.313033         462.037         330.203         463.974 
       0.319153         447.196         317.844         449.757 
       0.325316         434.104         304.903         437.361 
        0.33145         419.611           291.9          419.71 
       0.337538         411.261         279.465         407.665 
       0.343633         398.146         267.932         401.027 
       0.349808         382.862         257.464         391.644 
       0.355968         378.524         248.202         382.794 
       0.362074         372.094         239.961         373.201 
       0.368217         360.867         232.283         361.467 
       0.374374         344.455         224.859         352.681 
       0.380519         342.173         217.528         343.245 
       0.386598         332.377         210.268         338.867 
       0.392688         328.755         203.048         327.864 
        0.39888          319.43          195.91         320.727 
       0.405048         311.552         189.132         314.567 
       0.411186         306.011          182.82         305.769 
       0.417313         299.564         176.988          298.97 
       0.423458         292.299          171.55         293.598 
       0.429607         287.642         166.438         287.914 
       0.435692          279.52         161.618         280.147 
       0.441815         276.298         156.913         277.068 
       0.447964         269.674         152.289         271.907 
       0.454126         262.684         147.763         263.712 
       0.460267         257.569         143.377         261.557 
       0.466387         254.111         139.157         256.351 
        0.47254         248.656           135.1         251.322 
       0.478662          247.72          131.27          246.11 
       0.484765         238.327          127.65         240.946 
       0.490885         235.445         124.189         237.025 
       0.497035         230.909         120.859         233.575 
       0.503198         226.872         117.649         229.933 
       0.509342         224.892         114.551         226.294 
       0.515458         221.349         111.553         223.284 
       0.521598         215.571         108.629         218.921 
       0.527764         212.987         105.787         216.383 
       0.533884         210.165         103.069         213.083 
           0.54         206.829         100.458          208.92 
       0.546137         205.227         97.9374         206.388 
       0.552299         200.862         95.5033         202.573 
       0.558452         199.424         93.1646         199.649 
       0.564573         196.372         90.9213          197.82 
       0.570708          191.85         88.7479         195.303 
       0.576825         188.766         86.6483         191.146 
       0.582926         186.238         84.6156         189.092 
       0.589034         184.142         82.6398         186.929 
       0.595184         182.218         80.7121          183.12 
       0.601379          179.05         78.8336         181.188 
       0.607522           176.5         77.0335         178.241 
       0.613639         174.685         75.3012         177.367 
       0.619772         171.247         73.6209         175.392 
       0.625918          170.07         71.9901         172.129 
       0.632068         167.048         70.4079         169.782 
       0.638161          165.96         68.8865         168.869 
         0.6443         163.334         67.3982          166.51 
       0.650464         161.549         65.9479         163.045 
       0.656582         159.136         64.5506         161.863 
       0.662703         158.683         63.1936         159.989 
       0.668861         155.926         61.8685         158.546 
       0.675024         153.389         60.5812         156.724 
       0.681124         152.231          59.344         154.359 
       0.687237         150.308         58.1394          152.66 
       0.693381         147.782         56.9628         150.694 
       0.699536         146.551         55.8169         149.298 
       0.705665         145.142         54.7075         147.695 
       0.711789         143.397         53.6293         146.446 
       0.717957         142.903         52.5729         145.044 
        0.72409         140.827         51.5509          143.61 
       0.730186         138.808         50.5624         142.015 
       0.736317         137.281         49.5946         140.311 
       0.742472         136.097         48.6488         138.842 
       0.748622         134.894         47.7288         137.325 
        0.75476         133.414         46.8348         136.522 
       0.760888         131.933         45.9653          134.37 
       0.767043         131.327         45.1146         133.435 
       0.773185         130.091         44.2873         132.471 
       0.779291          127.52         43.4856         130.748 
       0.785407         127.036         42.7028         129.351 
       0.791564         125.952         41.9343         128.341 
       0.797719         123.471         41.1853         127.508 
       0.803834         122.882         40.4593         126.243 
       0.809972         122.105         39.7483         125.093 
       0.816124         121.141         39.0529         124.049 
       0.822261         120.129         38.3761         122.978 
       0.828378         118.938         37.7175         121.532 
       0.834502         118.382         37.0738         120.399 
       0.840667         116.495         36.4411         119.505 
       0.846816         115.359         35.8249         118.631 
       0.852925         114.616          35.227         117.696 
       0.859047         113.599         34.6415         116.694 
       0.865192         112.158         34.0674         115.406 
       0.871341         111.286          33.506          114.43 
       0.877463         110.143         32.9599         113.782 
       0.883569         109.974         32.4274           113.2 
       0.889708         108.659          31.904         111.877 
       0.895864         107.457         31.3908         111.208 
       0.902008         106.703         30.8901         110.085 
       0.908149         106.265         30.4006         109.229 
       0.914301         104.846          29.921          108.27 
       0.920448         104.161         29.4522         107.616 
       0.926574          103.23         28.9951         106.607 
       0.932687         103.141         28.5488         106.057 
       0.938823         101.511         28.1102           105.1 
       0.944975          100.77           27.68         104.301 
       0.951105         100.007         27.2603         103.439 
       0.957225         99.3671           26.85         102.725 
       0.963368         97.7751         26.4469         101.897 
       0.969511         97.6418         26.0521         101.044 
       0.975621         96.7961         25.6674         100.808 
       0.981748         96.5227         25.2896         100.053 
       0.987916         95.4348         24.9171         99.2587 
        0.99406         94.6118         24.5535         98.3929 
        1.00019         94.3768         24.1978         97.6236 
        1.00632         93.1822         23.8496         96.9053 
        1.01246         92.7813         23.5078         95.9813 
        1.01859         92.1262         23.1732         95.7063 
        1.02471         90.9926         22.8455         95.2567 
        1.03085         90.2608         22.5231         94.5652 
        1.03698         89.9463         22.2077         94.0102 
        1.04314         88.9482         21.8969         93.2104 
        1.04929         88.7051         21.5929          92.717 
        1.05541         87.7845         21.2958         92.2342 
        1.06154         87.4079         21.0037         91.5775 
        1.06769         87.0081         20.7165         91.0277 
        1.07382         86.1144         20.4358         90.5081 
        1.07993         85.6267         20.1608         89.8468 
        1.08607         84.8524         19.8898         89.2144 
        1.09222         84.7049         19.6235          88.767 
        1.09836         83.8875         19.3624         88.0658 
        1.10449         83.1039         19.1064         87.7314 
        1.11063         82.5882         18.8547         86.9123 
        1.11677         81.9733         18.6076         86.3807 
         1.1229         81.4696         18.3654          85.957 
        1.12903         81.0324         18.1273         85.3479 
        1.13518         80.6576         17.8933         84.8961 
        1.14131         79.9111         17.6635         84.1793 
        1.14745         79.5676         17.4379         83.8222 
        1.15359         78.9364         17.2162         83.3879 
        1.15973         78.5564         16.9983         83.0144 
        1.16584         77.8062         16.7851          82.262 
        1.17197         77.2772         16.5754         82.0346 
        1.17811         76.9014         16.3685         81.4256 
        1.18424         76.4675         16.1658         80.8761 
        1.19038         76.2393         15.9659         80.6073 
        1.19652         75.5897         15.7696         80.0506 
        1.20267         74.8209         15.5765         79.6609 
        1.20881          74.597         15.3867         79.0385 
        1.21495          73.828         15.2004           78.74 
        1.22108         73.6672         15.0172         78.3414 
         1.2272         72.8964         14.8374         77.8283 
        1.23334         72.4894         14.6602         77.6065 
        1.23949         72.2037         14.4855          76.965 
        1.24562           71.61         14.3141         76.3652 
        1.25174          71.344         14.1457         76.0034 
        1.25789         70.9197         13.9796         75.5983 
        1.26402         70.0465         13.8164         75.3659 
        1.27014         69.9259         13.6563         75.0239 
        1.27628         69.5563         13.4982          74.715 
        1.28244         69.1316         13.3423         74.1157 
        1.28858          68.848          13.189         73.6853 
        1.29471          68.306         13.0385         73.3698 
        1.30084         68.0621         12.8906         72.7906 
        1.30697          67.408         12.7446         72.5301 
        1.31312         67.0348         12.6008         72.2334 
        1.31925         66.6427         12.4596         71.8572 
        1.32537         66.2272         12.3207         71.5593 
        1.33151         65.7248         12.1834         71.1098 
        1.33765         65.4756         12.0483         70.7907 
        1.34378         65.1468         11.9155         70.4534 
        1.34992          64.803         11.7846         69.9846 
        1.35606         64.3423         11.6555         69.6721 
         1.3622         63.8446         11.5284          69.376 
        1.36833         63.6679         11.4036         68.9071 
        1.37445         63.2566         11.2807         68.7123 
        1.38059         62.6711         11.1593          68.183 
        1.38675         62.3283         11.0393         67.8724 
        1.39288         62.2319         10.9216         67.4637 
        1.39901         61.7507         10.8056           67.24 
        1.40515         61.2923         10.6911         67.0571 
         1.4113         61.0582         10.5783         66.7914 
        1.41742         60.7682         10.4675         66.3853 
        1.42355         60.4249         10.3581         65.9477 
         1.4297         60.1938           10.25         65.7188 
        1.43585         59.7369         10.1434           65.29 
        1.44198         59.2862         10.0388         65.1252 
        1.44809         59.1326         9.93585         64.7914 
        1.45423          58.851         9.83396         64.3728 
        1.46036         58.3986         9.73368         64.0945 
        1.46649         58.0184         9.63477         63.8856 
        1.47263         57.6575         9.53715           63.59 
        1.47877         57.4079         9.44093         63.1403 
        1.48491         57.0835         9.34589         62.8981 
        1.49104         56.8803         9.25236         62.7367 
        1.49718         56.5021         9.16004         62.3252 
        1.50333         56.3427         9.06884         61.9998 
        1.50947         55.8647         8.97906         61.7659 
         1.5156          55.725         8.89064         61.4948 
        1.52172         55.2997         8.80341         61.1866 
        1.52787         55.0528         8.71717         60.9168 
          1.534         54.6642         8.63219         60.7176 
        1.54013         54.3355         8.54843         60.4346 
        1.54627         54.1868         8.46564         60.1143 
        1.55241         53.7536         8.38392         59.8456 
        1.55855         53.5228          8.3034         59.5945 
        1.56467         53.3133         8.22416          59.357 
         1.5708         52.9981         8.14572         59.0426 
        1.57695         52.9211         8.06819         58.8037 
        1.58308         52.4864         7.99185         58.5986 
        1.58922         52.1226         7.91644         58.2866 
        1.59535         52.0097         7.84203         58.0822 
         1.6015         51.5449         7.76847         57.7829 
        1.60764         51.3815         7.69589         57.4863 
        1.61376         51.1184         7.62444         57.3635 
        1.61989         50.8349         7.55384         57.1147 
        1.62604         50.5739         7.48398         56.7034 
        1.63218         50.4311         7.41504         56.4385 
        1.63831         49.8719         7.34713         56.3511 
        1.64444         49.6641         7.28004         56.0807 
        1.65059          49.588         7.21364         55.7763 
        1.65673         49.1851         7.14813         55.5304 
        1.66285         48.9395         7.08362         55.3499 
        1.66898         48.8427         7.01989         55.1621 
        1.67512         48.3772         6.95682         54.8804 
        1.68127         48.2584         6.89446         54.6193 
         1.6874         47.9656         6.83301         54.4023 
        1.69353         47.7121         6.77234         54.1781 
        1.69967         47.5028         6.71227         53.9589 
        1.70581         47.2924         6.65295         53.7441 
        1.71193         47.0718         6.59457         53.5407 
        1.71806         46.7361         6.53677         53.3484 
        1.72421         46.5878         6.47954         53.1101 
        1.73035         46.3501         6.42307         52.8519 
        1.73649         46.0831         6.36727         52.6187 
        1.74262         45.8146         6.31219         52.4271 
        1.74876         45.6193         6.25772         52.2207 
        1.75489         45.4178         6.20401         51.9896 
        1.76101         45.2403         6.15094         51.7575 
        1.76715         44.8837         6.09842         51.5517 
        1.77329         44.6388         6.04645         51.3654 
        1.77943         44.4624         5.99507         51.1696 
        1.78557         44.2356         5.94436         50.9519 
        1.79171         44.0504         5.89422         50.7392 
        1.79785         43.7153         5.84465         50.5345 
        1.80399         43.6585         5.79567         50.3291 
        1.81012         43.3473         5.74731         50.1267 
        1.81625         43.1478         5.69952         49.9104 
        1.82239         42.8912         5.65221         49.7103 
        1.82853         42.7099         5.60546         49.5636 
        1.83466         42.4853         5.55928          49.361 
        1.84078          42.194         5.51367         49.1347 
        1.84692         42.0659          5.4685         49.0078 
        1.85306           41.83         5.42377            48.8 
         1.8592         41.6724         5.37962         48.5371 
        1.86533         41.4143         5.33599         48.3593 
        1.87147         41.1029         5.29278         48.1656 
