# k  (h/Mpc)    Pcb(k)  (Mpc/h)^3    Pcb_linear(k) (Mpc/h)^3    Pcb_NL(k) (Mpc/h)^3   ShotnoiseSubtracted = false
     0.00783031           11053         11205.3         11101.2 
       0.013688         12573.9         12481.1         12393.5 
       0.019231         11570.9         11522.9         11448.5 
      0.0249154          9577.2         9700.99         9654.78 
      0.0312784         7597.12          7611.1         7597.55 
      0.0375637         6044.16          5992.4         5991.09 
      0.0433917          4972.9         4986.99         4984.64 
      0.0492413          4388.7         4371.73         4371.14 
      0.0555754         3931.81            3982         3979.14 
      0.0619321         3743.67         3700.49         3695.77 
       0.067871          3385.7         3417.43          3414.9 
      0.0738098         3044.51         3068.55         3055.22 
      0.0800417         2623.07         2651.59         2652.36 
      0.0862327         2252.44          2245.3         2270.67 
      0.0921407          1961.8         1918.33         1950.85 
      0.0982031         1701.98         1672.18         1721.87 
       0.104506         1576.43         1510.37         1569.08 
       0.110769         1471.91         1419.83         1461.41 
       0.116806         1403.23         1365.56         1397.83 
       0.122832         1350.83         1312.54         1342.45 
       0.129052         1252.45         1237.39         1263.59 
       0.135211         1159.32         1137.41         1168.05 
       0.141259          1069.4         1024.25         1066.04 
       0.147318         970.588         912.415         969.811 
       0.153489         868.622         815.093         866.508 
       0.159709         805.146         741.953         799.789 
       0.165845         764.581         694.054         760.673 
       0.171974         725.031         663.984         722.213 
       0.178125          698.33         642.445         702.978 
       0.184229         672.563         620.806         675.164 
        0.19034         628.167          593.08         643.391 
       0.196428         606.816         558.033         604.946 
       0.202534         577.093         518.004         569.863 
       0.208729         535.949         477.147         529.672 
       0.214876         500.648         440.886         504.146 
       0.220989         476.712         411.721         477.932 
       0.227147         452.531         389.694         455.334 
        0.23329         433.916          373.58          440.79 
       0.239377         423.186          360.88         424.456 
       0.245482         395.681         348.795         406.091 
       0.251667         390.041         335.316         394.828 
       0.257832         374.359         319.942         376.895 
       0.263955         358.084         303.208         359.788 
       0.270079         340.973         286.215         344.267 
        0.27624         332.675         270.186         327.732 
       0.282372         318.979         256.224         315.849 
        0.28843          307.21         244.719         304.683 
       0.294538          292.12         235.138         294.813 
       0.300721          288.43         226.871         286.542 
        0.30691         274.936         219.218         279.126 
       0.313033          267.98         211.646         268.817 
       0.319153         257.163         203.724         260.182 
       0.325316         250.321         195.429         252.384 
        0.33145         240.546         187.095         242.008 
       0.337538         235.647         179.125         233.766 
       0.343633         226.936         171.733         228.727 
       0.349808         218.702         165.023         222.725 
       0.355968          215.01         159.087         217.329 
       0.362074         209.655         153.804         210.955 
       0.368217         203.271         148.883         203.854 
       0.374374         195.215         144.124         198.504 
       0.380519         192.271         139.426         192.767 
       0.386598         186.813         134.772         189.093 
       0.392688         183.535         130.145         183.152 
        0.39888         178.608          125.57          178.32 
       0.405048         173.398         121.226         174.662 
       0.411186         169.444         117.179         169.657 
       0.417313         165.629         113.442         164.971 
       0.423458         161.581         109.956         161.572 
       0.429607         157.915         106.679         158.117 
       0.435692         152.922          103.59         154.026 
       0.441815         151.244         100.575         151.751 
       0.447964         147.763         97.6108         148.206 
       0.454126         141.677         94.7095         143.641 
       0.460267         139.677         91.8984         142.017 
       0.466387         137.736         89.1933         138.627 
        0.47254         134.084         86.5929         135.724 
       0.478662         133.275         84.1386          132.95 
       0.484765         128.609         81.8178         129.367 
       0.490885         126.452         79.5996         127.403 
       0.497035         124.397         77.4653         125.338 
       0.503198         120.987         75.4077         122.893 
       0.509342         119.107         73.4224         120.838 
       0.515458         117.108         71.5008         119.088 
       0.521598         114.718         69.6262         116.041 
       0.527764         113.154         67.8048         113.988 
       0.533884         111.347         66.0626         112.217 
           0.54          109.04          64.389         109.989 
       0.546137         107.782         62.7736         108.529 
       0.552299           105.7         61.2135         106.004 
       0.558452         103.924         59.7145          104.08 
       0.564573         102.114         58.2766         102.951 
       0.570708         100.002         56.8835         101.395 
       0.576825         98.6599         55.5378         99.2384 
       0.582926         96.5874         54.2349         97.7047 
       0.589034          95.164         52.9685         96.6714 
       0.595184         93.7176         51.7329         94.6245 
       0.601379         92.2626         50.5289         93.5365 
       0.607522         90.3745         49.3751         91.5992 
       0.613639         89.6007         48.2648          90.697 
       0.619772         87.7744         47.1878         89.3025 
       0.625918         86.4925         46.1425         87.9243 
       0.632068         85.4189         45.1284         86.4926 
       0.638161         84.4357         44.1532         85.6388 
         0.6443         83.2976         43.1993         84.2643 
       0.650464         82.2638         42.2697         82.4553 
       0.656582         80.6965         41.3741         81.8019 
       0.662703         79.5743         40.5043         80.4412 
       0.668861         78.3141         39.6551         79.5463 
       0.675024         77.2237         38.8299          78.322 
       0.681124         76.4867         38.0369         77.2315 
       0.687237         74.9629         37.2648         76.2238 
       0.693381         73.9039         36.5107         75.0557 
       0.699536         73.2496         35.7762         74.3321 
       0.705665         72.9713         35.0652          73.675 
       0.711789         71.2218         34.3741         72.3715 
       0.717957         70.7806         33.6969         71.5346 
        0.72409         69.5243         33.0419         70.9454 
       0.730186         68.3829         32.4083         70.1178 
       0.736317         68.0823          31.788         68.9889 
       0.742472         67.3092         31.1818         68.2429 
       0.748622         66.4183         30.5921         67.3442 
        0.75476         65.6702         30.0191         66.4861 
       0.760888         64.7185         29.4617         65.5469 
       0.767043         64.2067         28.9165         65.1621 
       0.773185         63.3582         28.3862         64.5665 
       0.779291         62.4935         27.8724         63.7128 
       0.785407         62.0493         27.3706         62.8218 
       0.791564         61.4574         26.8781         62.2409 
       0.797719         60.1789          26.398         61.8057 
       0.803834         59.8711         25.9327         60.8713 
       0.809972         58.8628         25.4769         60.2225 
       0.816124         58.4955         25.0312         59.7082 
       0.822261         57.9657         24.5974         58.9733 
       0.828378         57.5299         24.1753          58.189 
       0.834502         56.9059         23.7627         57.6868 
       0.840667          56.123         23.3571         57.3296 
       0.846816         55.3667         22.9622         56.7179 
       0.852925         54.9281          22.579         56.1172 
       0.859047         54.1478         22.2037         55.4904 
       0.865192         53.7659         21.8357         54.9846 
       0.871341         53.3135         21.4759         54.3796 
       0.877463         52.4575         21.1259         53.8766 
       0.883569         52.1936         20.7846         53.5837 
       0.889708         51.7077         20.4491         52.9579 
       0.895864         51.2295         20.1202         52.5408 
       0.902008         50.7246         19.7992         51.8943 
       0.908149         50.2918         19.4855          51.508 
       0.914301         49.7531         19.1781         51.0916 
       0.920448         49.3842         18.8776         50.6157 
       0.926574         48.7567         18.5846          50.099 
       0.932687         48.6329         18.2985         49.6937 
       0.938823         47.8374         18.0174         49.1322 
       0.944975         47.3738         17.7417         48.7221 
       0.951105         46.9556         17.4727         48.3496 
       0.957225         46.4606         17.2097         47.9275 
       0.963368         46.2235         16.9513         47.4563 
       0.969511         45.8878         16.6982          47.056 
       0.975621         45.5999         16.4517         46.8864 
       0.981748         45.0272         16.2096         46.4778 
       0.987916         44.5359         15.9708         46.1184 
        0.99406         44.2909         15.7377         45.5948 
        1.00019         43.8649         15.5098         45.1513 
        1.00632         43.5132         15.2866         44.8049 
        1.01246          43.238         15.0675         44.4097 
        1.01859         42.6189          14.853           44.25 
        1.02471         42.4114          14.643         43.9634 
        1.03085         42.0591         14.4364         43.4801 
        1.03698         41.7047         14.2341         43.1177 
        1.04314          41.368          14.035         42.7308 
        1.04929         41.0073         13.8401         42.4935 
        1.05541         40.5561         13.6497         42.3021 
        1.06154         40.5148         13.4624         41.9134 
        1.06769         40.0561         13.2784         41.5836 
        1.07382          39.862         13.0984         41.2965 
        1.07993         39.5615         12.9222         40.9926 
        1.08607         39.2343         12.7485         40.7102 
        1.09222         38.9699         12.5778         40.3574 
        1.09836         38.5791         12.4105         40.0423 
        1.10449          38.379         12.2463         39.7938 
        1.11063         37.9481          12.085         39.3841 
        1.11677         37.7052         11.9267         39.0952 
         1.1229         37.3748         11.7714         38.9691 
        1.12903         36.9053         11.6188         38.6621 
        1.13518         37.0232         11.4688         38.3579 
        1.14131         36.7324         11.3216         38.0943 
        1.14745         36.2585          11.177         37.8996 
        1.15359          36.124         11.0349         37.5738 
        1.15973         35.6907         10.8952          37.397 
        1.16584         35.5202         10.7586         36.9905 
        1.17197         35.2709         10.6241         36.8881 
        1.17811         35.1086         10.4915         36.5957 
        1.18424         34.7772         10.3616         36.3784 
        1.19038         34.5054         10.2335          36.104 
        1.19652          34.408         10.1076         35.8335 
        1.20267         34.0267         9.98385         35.6765 
        1.20881          33.864          9.8622         35.4403 
        1.21495         33.5386         9.74277          35.186 
        1.22108         33.4409         9.62535         35.0021 
         1.2272         32.9926         9.51014         34.7869 
        1.23334          32.861         9.39656         34.5739 
        1.23949         32.8266         9.28457         34.2752 
        1.24562         32.3838         9.17472         34.0531 
        1.25174         32.2829         9.06682         33.9254 
        1.25789         32.1252         8.96032          33.675 
        1.26402         31.8328         8.85573         33.4679 
        1.27014         31.5465         8.75307         33.3455 
        1.27628         31.3424         8.65174         33.0889 
        1.28244         31.1904         8.55181         32.8658 
        1.28858         31.0311          8.4536         32.6668 
        1.29471          30.902         8.35715         32.5418 
        1.30084         30.7028         8.26229          32.283 
        1.30697         30.4358         8.16876          32.088 
        1.31312         30.2228         8.07654         31.9375 
        1.31925         30.0546         7.98604         31.7184 
        1.32537         29.8834         7.89701         31.5905 
        1.33151         29.6314         7.80903         31.3672 
        1.33765         29.5023         7.72243          31.182 
        1.34378         29.3179         7.63733         31.0342 
        1.34992         29.1264         7.55344         30.8483 
        1.35606         28.9545         7.47064         30.6837 
         1.3622         28.7662         7.38923         30.5229 
        1.36833         28.5485         7.30923         30.3978 
        1.37445         28.4314         7.23046         30.2108 
        1.38059         28.2358          7.1526         30.0678 
        1.38675         28.0046         7.07571         29.8849 
        1.39288         27.9506         7.00026         29.7249 
        1.39901         27.7496         6.92594         29.5575 
        1.40515         27.5457         6.85253         29.4328 
         1.4113         27.4049         6.78022         29.2663 
        1.41742         27.2867         6.70923         29.0424 
        1.42355         27.0699         6.63913         28.9561 
         1.4297         26.9569         6.56981         28.7637 
        1.43585         26.8544         6.50151         28.6353 
        1.44198         26.5495         6.43445         28.4943 
        1.44809         26.4963         6.36845         28.3161 
        1.45423         26.3333         6.30315          28.157 
        1.46036         26.2211         6.23887         28.0264 
        1.46649         26.0512         6.17547         27.9157 
        1.47263         25.8681          6.1129          27.794 
        1.47877         25.7502         6.05123         27.6243 
        1.48491          25.745         5.99031         27.4793 
        1.49104         25.4466         5.93037          27.367 
        1.49718         25.2119         5.87119         27.2389 
        1.50333          25.234         5.81274         27.0763 
        1.50947         25.0803         5.75519         26.9358 
         1.5156         24.9068         5.69852         26.8202 
        1.52172         24.7998          5.6426         26.7004 
        1.52787         24.6923         5.58733         26.5667 
          1.534         24.5485         5.53286         26.4252 
        1.54013          24.355         5.47918         26.2805 
        1.54627         24.2947         5.42611         26.1524 
        1.55241         24.0404         5.37374         26.0365 
        1.55855              24         5.32212         25.9155 
        1.56467         23.7476         5.27133         25.8232 
         1.5708         23.8079         5.22106          25.701 
        1.57695         23.5908         5.17137         25.5706 
        1.58308         23.4489         5.12243         25.4545 
        1.58922         23.3823          5.0741          25.316 
        1.59535         23.2705          5.0264         25.2075 
         1.6015         23.0797         4.97926         25.0743 
        1.60764         22.9202         4.93274         24.9487 
        1.61376         22.8353         4.88694         24.8701 
        1.61989         22.6965         4.84169         24.7586 
        1.62604         22.6104         4.79691         24.6399 
        1.63218         22.5739         4.75272         24.5343 
        1.63831         22.3605         4.70919         24.4374 
        1.64444         22.2721          4.6662          24.323 
        1.65059         22.1716         4.62363          24.197 
        1.65673         22.0098         4.58165         24.0965 
        1.66285         21.9378          4.5403          24.018 
        1.66898         21.8137         4.49945         23.9218 
        1.67512         21.7091         4.45902         23.7815 
        1.68127         21.5658         4.41905         23.6662 
         1.6874         21.4309         4.37967          23.568 
        1.69353         21.3834         4.34078         23.4458 
        1.69967         21.2564         4.30228          23.354 
        1.70581         21.1853         4.26425         23.2817 
        1.71193         21.0824         4.22684         23.1909 
        1.71806         20.9047         4.18979         23.0625 
        1.72421         20.8016         4.15311         22.9668 
        1.73035         20.7028         4.11691         22.8985 
        1.73649         20.5991         4.08115         22.8111 
        1.74262         20.5102         4.04584         22.6689 
        1.74876         20.4461         4.01093         22.5493 
        1.75489          20.341          3.9765         22.4776 
        1.76101         20.2171         3.94249         22.4183 
        1.76715          20.143         3.90883         22.3152 
        1.77329         20.0704         3.87552         22.2098 
        1.77943         19.9672         3.84258         22.1202 
        1.78557         19.8061         3.81008         22.0315 
        1.79171         19.7138         3.77794         21.9416 
        1.79785         19.6248         3.74617         21.8603 
        1.80399         19.6005         3.71478         21.7871 
        1.81012         19.4488         3.68378         21.6858 
        1.81625          19.406         3.65315         21.5799 
        1.82239         19.2775         3.62283         21.4982 
        1.82853         19.1937         3.59286          21.429 
        1.83466         19.1042         3.56326         21.3412 
        1.84078         18.9333         3.53403         21.2376 
        1.84692         18.8978         3.50507           21.15 
        1.85306         18.8058         3.47641         21.0831 
         1.8592         18.7062         3.44811         21.0101 
        1.86533          18.617         3.42014         20.9148 
        1.87147          18.579         3.39245         20.8245 
