# k  (h/Mpc)    P(k)  (Mpc/h)^3    P_linear(k)  (Mpc/h)^3     P_NL(k)  ShotnoiseSubtracted = false
     0.00783031           13362         13552.4         13425.6 
       0.013688         15225.8         15094.1         14984.9 
       0.019231         13997.9         13934.8         13840.6 
      0.0249154         11562.3         11731.3         11669.8 
      0.0312784         9178.49         9203.89         9180.81 
      0.0375637         7311.85         7246.37         7240.87 
      0.0433917         6008.14         6030.55         6023.42 
      0.0492413          5307.5         5286.52         5282.21 
      0.0555754         4745.27         4815.22         4809.62 
      0.0619321         4529.88          4474.8         4467.39 
       0.067871         4087.44          4132.5         4128.98 
      0.0738098         3677.32         3710.61         3690.96 
      0.0800417         3168.01         3206.41         3206.89 
      0.0862327         2725.45          2715.1         2751.04 
      0.0921407         2381.29         2319.72          2365.8 
      0.0982031         2066.78         2022.06          2093.1 
       0.104506         1919.18         1826.39         1910.72 
       0.110769         1790.79         1716.91         1776.98 
       0.116806         1707.81         1651.29          1698.1 
       0.122832         1641.96         1587.17         1630.47 
       0.129052         1519.82          1496.3         1534.41 
       0.135211         1408.49          1375.4         1419.55 
       0.141259         1303.71         1238.55         1298.97 
       0.147318         1186.58         1103.32         1185.59 
       0.153489         1063.09         985.638         1059.84 
       0.159709         988.043         897.194         980.785 
       0.165845         939.782         839.272          935.05 
       0.171974         892.275         802.911         887.332 
       0.178125         857.752         776.866         864.405 
       0.184229         824.846           750.7         829.107 
        0.19034         770.792         717.172         789.962 
       0.196428         745.827         674.793         743.554 
       0.202534          710.19         626.387         702.066 
       0.208729         661.455         576.982         652.955 
       0.214876         620.313         533.134         623.911 
       0.220989         591.474         497.866         593.054 
       0.227147         563.026          471.23         566.176 
        0.23329         539.826         451.743         548.752 
       0.239377         526.999         436.388         528.054 
       0.245482         491.871         421.774         505.142 
       0.251667         485.915         405.475         491.638 
       0.257832          465.91         386.886         469.504 
       0.263955         446.627          366.65          448.88 
       0.270079         425.797           346.1         430.344 
        0.27624          416.73         326.716         410.459 
       0.282372         399.724         309.831         396.368 
        0.28843          386.73         295.922         383.136 
       0.294538         367.025         284.336         370.989 
       0.300721         363.139         274.339         360.608 
        0.30691         346.242         265.084         352.063 
       0.313033         338.042          255.93         339.156 
       0.319153         325.559         246.349         328.481 
       0.325316         316.425         236.319         318.959 
        0.33145         304.828         226.241         305.929 
       0.337538         298.852         216.603         296.203 
       0.343633         288.325         207.664         290.629 
       0.349808         277.615         199.551         283.341 
       0.355968         273.638         192.372         276.708 
       0.362074          267.78         185.985         269.053 
       0.368217         259.778         180.035         260.204 
       0.374374         248.594          174.28         253.572 
       0.380519           245.8         168.598         246.478 
       0.386598         238.891         162.971         242.543 
       0.392688         235.382         157.375         234.675 
        0.39888         229.008         151.843         229.019 
       0.405048         222.622          146.59         224.597 
       0.411186         217.992         141.696         218.044 
       0.417313         213.335         137.177         212.517 
       0.423458         208.188         132.962         208.414 
       0.429607         204.029             129         204.165 
       0.435692         197.921         125.264         198.792 
       0.441815         195.709         121.618         196.199 
       0.447964         191.076         118.034         192.031 
       0.454126         184.309         114.526         186.145 
       0.460267         181.356         111.126         184.319 
       0.466387         178.993         107.855         180.252 
        0.47254         174.411          104.71         176.551 
       0.478662         173.769         101.743         172.953 
       0.484765         167.396         98.9365         168.669 
       0.490885         164.934         96.2542         166.072 
       0.497035         162.052         93.6734         163.488 
       0.503198         158.229         91.1852         160.613 
       0.509342         156.289         88.7847         158.024 
       0.515458          153.74         86.4609         155.805 
       0.521598          150.24         84.1941         152.219 
       0.527764         148.361         81.9916         150.005 
       0.533884         146.129          79.885          147.69 
           0.54         143.463         77.8611          144.73 
       0.546137         142.029         75.9078         142.926 
       0.552299         139.088         74.0211         139.876 
       0.558452         137.473         72.2085         137.557 
       0.564573         135.203         70.4698         136.181 
       0.570708         132.159         68.7852         134.292 
       0.576825         130.329          67.158         131.398 
       0.582926         127.936         65.5824         129.641 
       0.589034          126.38         64.0512         128.263 
       0.595184         124.653          62.557         125.527 
       0.601379         122.716          61.101         124.209 
       0.607522         120.513         59.7059         121.906 
       0.613639         119.305         58.3632         120.942 
       0.619772         116.901         57.0609         119.296 
       0.625918         115.564         55.7969         117.268 
       0.632068         113.911         54.5707         115.465 
       0.638161         112.868         53.3914         114.611 
         0.6443         111.259         52.2379         112.928 
       0.650464         109.997         51.1138         110.492 
       0.656582         108.039         50.0308          109.65 
       0.662703         107.124         48.9791         108.044 
       0.668861         105.223         47.9521         106.936 
       0.675024         103.639         46.9543          105.47 
       0.681124         102.887         45.9954         104.015 
       0.687237           101.1         45.0617         102.733 
       0.693381         99.5051         44.1498         101.257 
       0.699536         98.7736         43.2617         100.224 
       0.705665         98.1226         42.4018         99.3925 
       0.711789         96.1998         41.5662         98.0284 
       0.717957         95.8869         40.7474         96.8811 
        0.72409         94.1823         39.9552         96.0879 
       0.730186         92.7252         39.1891         95.0328 
       0.736317         92.0157          38.439         93.6237 
       0.742472         91.1738         37.7059          92.665 
       0.748622         90.1508         36.9929         91.5137 
        0.75476         89.1491            36.3         90.5559 
       0.760888         87.9963          35.626         89.2285 
       0.767043          87.484         34.9667         88.6596 
       0.773185         86.4724         34.3255         87.9707 
       0.779291         84.9407         33.7041         86.8236 
       0.785407         84.5171         33.0974         85.7115 
       0.791564         83.8216         32.5018         85.0314 
       0.797719         82.0233         31.9212          84.461 
       0.803834         81.6413         31.3585         83.3145 
       0.809972         80.6841         30.8075         82.4994 
       0.816124         80.1595         30.2685         81.8212 
       0.822261         79.3921          29.744         80.9412 
       0.828378         78.7412         29.2335         79.9033 
       0.834502         78.1881         28.7346         79.1525 
       0.840667         76.9318         28.2442         78.7076 
       0.846816         76.0241         27.7666          77.966 
       0.852925         75.4908         27.3032         77.2456 
       0.859047         74.5321         26.8493         76.4661 
       0.865192         73.9208         26.4044         75.7114 
       0.871341         73.2683         25.9693         74.9316 
       0.877463         72.2628          25.546         74.3492 
       0.883569         72.1039         25.1333         73.9533 
       0.889708         71.3115         24.7276         73.1324 
       0.895864         70.6054         24.3299         72.6504 
       0.902008         70.0317         23.9418         71.8187 
       0.908149         69.5314         23.5624         71.2358 
       0.914301         68.7422         23.1907         70.6302 
       0.920448         68.2355         22.8273         70.1338 
       0.926574         67.5425         22.4731         69.4314 
       0.932687         67.4655         22.1271         68.9492 
       0.938823         66.3462         21.7872          68.241 
       0.944975          65.632         21.4537         67.6666 
       0.951105          65.185         21.1285         67.1105 
       0.957225         64.5935         20.8105         66.6349 
       0.963368         63.9351          20.498         66.0124 
       0.969511         63.7734          20.192          65.476 
       0.975621         63.3219         19.8939         65.3492 
       0.981748         62.7368         19.6011         64.8005 
       0.987916         62.0492         19.3123         64.2679 
        0.99406         61.6094         19.0305            63.6 
        1.00019         61.2417         18.7549         63.0282 
        1.00632         60.5995          18.485         62.5866 
        1.01246         60.3041           18.22         62.0101 
        1.01859         59.5308         17.9607         61.8151 
        1.02471         59.1088         17.7068         61.4982 
        1.03085         58.6172         17.4569         60.9074 
        1.03698         58.3379         17.2124         60.4329 
        1.04314         57.7883         16.9715         59.9341 
        1.04929         57.3777         16.7358         59.6545 
        1.05541         56.7427         16.5056         59.3436 
        1.06154         56.6499         16.2792         58.8524 
        1.06769         56.2012         16.0566         58.4482 
        1.07382         55.8164          15.839         58.0719 
        1.07993         55.4373         15.6259         57.6695 
        1.08607         54.9446         15.4159         57.2447 
        1.09222           54.76         15.2095         56.8267 
        1.09836         54.1667         15.0071         56.3859 
        1.10449         53.9051         14.8086         56.0923 
        1.11063         53.3706         14.6136         55.5102 
        1.11677         53.0608         14.4221         55.1628 
         1.1229          52.558         14.2344         55.0061 
        1.12903         52.0492         14.0498         54.5333 
        1.13518          52.067         13.8684         54.1685 
        1.14131         51.7129         13.6904         53.7798 
        1.14745           51.22         13.5155         53.5341 
        1.15359           50.91         13.3437          53.153 
        1.15973          50.469         13.1748         52.9608 
        1.16584         50.1082         13.0096          52.365 
        1.17197          49.799          12.847         52.2676 
        1.17811         49.5621         12.6866         51.8522 
        1.18424         49.1098         12.5295         51.5774 
        1.19038         48.8561         12.3746         51.2205 
        1.19652          48.581         12.2224         50.8779 
        1.20267         47.9979         12.0728         50.6309 
        1.20881         47.8635         11.9257         50.2649 
        1.21495         47.4357         11.7813         49.9616 
        1.22108         47.3607         11.6393         49.7279 
         1.2272         46.7026         11.4999         49.4064 
        1.23334         46.5036         11.3626         49.2086 
        1.23949         46.3712         11.2272         48.7716 
        1.24562         45.8939         11.0943         48.4281 
        1.25174         45.7115         10.9639         48.2478 
        1.25789         45.5175         10.8351         47.9427 
        1.26402          45.112         10.7086         47.7392 
        1.27014         44.7936         10.5845         47.5444 
        1.27628         44.5023         10.4619         47.2039 
        1.28244         44.2275         10.3411         46.8377 
        1.28858         44.0698         10.2223         46.5775 
        1.29471         43.8593         10.1057         46.3904 
        1.30084         43.5612           9.991         46.0128 
        1.30697         43.2118          9.8779         45.8527 
        1.31312         42.9336         9.76639         45.6638 
        1.31925         42.6878         9.65695         45.3294 
        1.32537         42.4669          9.5493         45.1594 
        1.33151         42.1027         9.44291         44.8627 
        1.33765         41.9438          9.3382         44.6172 
        1.34378         41.6769         9.23528         44.4129 
        1.34992         41.4187         9.13385         44.1242 
        1.35606          41.189         9.03372          43.905 
         1.3622         40.8554         8.93528         43.7096 
        1.36833         40.6926         8.83854         43.4753 
        1.37445         40.4219         8.74328         43.2768 
        1.38059         40.1371         8.64914         43.0345 
        1.38675         39.9236         8.55616         42.7724 
        1.39288         39.6997         8.46492         42.5399 
        1.39901         39.5256         8.37505         42.3605 
        1.40515          39.221         8.28629         42.2471 
         1.4113         39.0389         8.19885         42.0373 
        1.41742         38.9533           8.113         41.6819 
        1.42355         38.5936         8.02823          41.508 
         1.4297         38.4651         7.94441         41.3136 
        1.43585         38.2577         7.86182         41.0761 
        1.44198           37.91         7.78072         40.9138 
        1.44809         37.8004         7.70092          40.669 
        1.45423         37.5828         7.62195         40.4689 
        1.46036         37.3839         7.54423         40.2942 
        1.46649         37.1956         7.46756         40.1477 
        1.47263         36.9234          7.3919         39.9711 
        1.47877          36.677         7.31733         39.6732 
        1.48491         36.6673         7.24367         39.5133 
        1.49104         36.3569         7.17117         39.3817 
        1.49718         36.0241         7.09962         39.1774 
        1.50333         36.0304         7.02893          38.958 
        1.50947         35.7848         6.95935         38.7742 
         1.5156         35.5573         6.89082         38.5961 
        1.52172         35.4181          6.8232         38.4076 
        1.52787         35.3075         6.75637         38.2679 
          1.534         34.9937          6.6905         38.0857 
        1.54013         34.8029         6.62559         37.8747 
        1.54627         34.7277         6.56141         37.6905 
        1.55241         34.3537         6.49808         37.5232 
        1.55855         34.2581         6.43567         37.3669 
        1.56467         33.9774         6.37425         37.2267 
         1.5708         33.9964         6.31346          37.055 
        1.57695         33.7985         6.25337         36.8974 
        1.58308         33.5635          6.1942         36.7377 
        1.58922         33.3822         6.13575         36.5345 
        1.59535         33.3002         6.07808          36.389 
         1.6015         33.0167         6.02107         36.1913 
        1.60764          32.825         5.96481         36.0258 
        1.61376         32.6919         5.90943         35.9509 
        1.61989         32.5047         5.85471         35.7652 
        1.62604         32.3271         5.80056         35.5658 
        1.63218          32.338         5.74713         35.4068 
        1.63831         32.0104          5.6945         35.2808 
        1.64444         31.8885          5.6425         35.1349 
        1.65059         31.8091         5.59103         34.9576 
        1.65673         31.5451         5.54026         34.7969 
        1.66285         31.3429         5.49026         34.6792 
        1.66898         31.2677         5.44086         34.5666 
        1.67512         31.0318         5.39198          34.377 
        1.68127         30.8945         5.34365         34.1995 
         1.6874         30.7267         5.29602          34.073 
        1.69353          30.582           5.249         33.9596 
        1.69967          30.464         5.20244         33.8097 
        1.70581         30.3841         5.15646         33.6804 
        1.71193         30.2036         5.11121         33.5569 
        1.71806         29.9187         5.06641         33.3749 
        1.72421         29.8583         5.02206         33.2382 
        1.73035          29.705         4.97829         33.1254 
        1.73649         29.4708         4.93505         32.9892 
        1.74262         29.3605         4.89235         32.8277 
        1.74876         29.2324         4.85014         32.6814 
        1.75489         29.1266         4.80851         32.5589 
        1.76101         28.9867         4.76738          32.437 
        1.76715         28.8294         4.72667         32.2857 
        1.77329         28.6815         4.68639         32.1613 
        1.77943         28.5487         4.64656         32.0504 
        1.78557         28.3779         4.60726         31.9126 
        1.79171         28.2737          4.5684         31.7748 
        1.79785         28.1199         4.52998         31.6535 
        1.80399         28.0786         4.49202         31.5416 
        1.81012         27.8232         4.45453         31.4065 
        1.81625         27.7274          4.4175         31.2629 
        1.82239         27.6004         4.38083         31.1502 
        1.82853         27.4743         4.34459         31.0692 
        1.83466         27.2556          4.3088         30.9286 
        1.84078         27.0965         4.27345         30.7596 
        1.84692         27.0514         4.23844         30.6758 
        1.85306         26.8754         4.20377         30.5733 
         1.8592         26.7365         4.16955         30.4347 
        1.86533         26.6252         4.13573         30.3216 
        1.87147         26.5536         4.10225         30.1976 
        1.87761         26.4053         4.06912         30.0694 
