# k  (h/Mpc)    P(k)  (Mpc/h)^3    P_linear(k)  (Mpc/h)^3     P_NL(k)  ShotnoiseSubtracted = false
     0.00783031         7068.08         7159.42         7093.64 
       0.013688          8015.9         7976.01         7922.74 
       0.019231         7389.15         7364.26         7320.19 
      0.0249154         6138.76         6200.13         6175.19 
      0.0312784         4862.69         4864.56          4861.4 
      0.0375637         3859.87         3830.04         3832.42 
      0.0433917         3183.22         3187.47         3189.48 
      0.0492413         2804.38         2794.25         2796.75 
      0.0555754          2521.4         2545.16         2544.96 
      0.0619321         2389.01         2365.24         2363.46 
       0.067871          2169.6         2184.32         2182.83 
      0.0738098         1949.45         1961.33         1955.51 
      0.0800417         1680.12         1694.83         1695.45 
      0.0862327         1438.08         1435.14         1446.62 
      0.0921407         1245.77         1226.15         1240.95 
      0.0982031         1080.55         1068.82         1090.97 
       0.104506         995.862         965.391         991.216 
       0.110769         930.941         907.523         925.653 
       0.116806         887.506         872.838         886.694 
       0.122832         855.761          838.95         851.763 
       0.129052          796.04         790.916         802.004 
       0.135211         735.162         727.011         740.235 
       0.141259         674.045         654.677         672.703 
       0.147318         608.893         583.197          608.33 
       0.153489         544.087         520.992         543.305 
       0.159709         501.685         474.242         499.268 
       0.165845         475.166         443.625         472.642 
       0.171974         449.823         424.406         449.414 
       0.178125         434.568         410.639         436.698 
       0.184229         419.423         396.808         420.326 
        0.19034         392.365         379.086         400.729 
       0.196428         377.281         356.685         376.418 
       0.202534         357.638         331.099         353.065 
       0.208729          330.54         304.984         327.679 
       0.214876         306.909         281.806         309.439 
       0.220989         291.451         263.165         291.987 
       0.227147         275.366         249.085         277.336 
        0.23329         264.034         238.785         267.796 
       0.239377          256.98         230.668         258.215 
       0.245482         241.724         222.943         247.354 
       0.251667         237.133         214.328         239.894 
       0.257832         227.648         204.502         228.922 
       0.263955         216.905         193.806         217.957 
       0.270079         206.193         182.944         207.735 
        0.27624         199.768         172.697          197.16 
       0.282372         191.223         163.772         189.362 
        0.28843         182.978          156.42         182.101 
       0.294538         174.631         150.296         175.828 
       0.300721         171.588         145.012         170.699 
        0.30691         163.753          140.12         165.735 
       0.313033         158.983         135.281         159.605 
       0.319153         151.716         130.217         154.285 
       0.325316         148.216         124.915         149.346 
        0.33145         141.823         119.588          143.14 
       0.337538         138.417         114.493          137.77 
       0.343633         132.961         109.768         133.922 
       0.349808         128.319          105.48         130.093 
       0.355968         125.474         101.685         126.742 
       0.362074         121.673         98.3091         122.702 
       0.368217         117.745         95.1639         118.434 
       0.374374         113.821         92.1217         115.229 
       0.380519         111.343         89.1185         111.687 
       0.386598         108.043         86.1442         108.938 
       0.392688         105.711         83.1862         105.725 
        0.39888         102.668         80.2619         102.533 
       0.405048         99.6266         77.4853         99.9322 
       0.411186         97.0934         74.8986         97.3334 
       0.417313         94.4718           72.51         94.3246 
       0.423458         91.9961         70.2817          92.162 
       0.429607         89.6148         68.1876         89.9103 
       0.435692         86.5578         66.2126         87.6366 
       0.441815         85.5105         64.2858         86.0432 
       0.447964         83.6505          62.391         83.6954 
       0.454126         79.7597         60.5367         81.1594 
       0.460267         78.6923         58.7398         79.9404 
       0.466387         77.1271         57.0109           77.77 
        0.47254         75.2708         55.3484         76.1102 
       0.478662         74.3165           53.78         74.4394 
       0.484765         71.8992         52.2965         72.2914 
       0.490885         70.4373         50.8787         71.1538 
       0.497035         69.3549         49.5145         69.8884 
       0.503198           67.24         48.1993         68.2181 
       0.509342         65.7648         46.9304         66.9668 
       0.515458         64.5031          45.702         65.9326 
       0.521598         63.3655         44.5039         64.0098 
       0.527764         62.2355         43.3396          62.492 
       0.533884          61.195         42.2261         61.4376 
           0.54         59.6477         41.1563         60.2543 
       0.546137         58.8666         40.1238         59.3084 
       0.552299         57.8378         39.1265         57.7769 
       0.558452         56.3327         38.1685         56.5963 
       0.564573         55.2657         37.2494         55.8758 
       0.570708         54.3231         36.3589         54.8885 
       0.576825         53.4183         35.4988          53.756 
       0.582926         52.1624          34.666         52.7672 
       0.589034         51.0374         33.8566         52.1218 
       0.595184         50.2685         33.0668         51.0026 
       0.601379         49.3904         32.2972         50.2915 
       0.607522         48.2256         31.5597         49.0728 
       0.613639         47.9079           30.85         48.4428 
       0.619772         46.8243         30.1616         47.5938 
       0.625918         46.1457         29.4935          46.926 
       0.632068         45.5463         28.8453         46.0582 
       0.638161         44.7967          28.222         45.3843 
         0.6443          44.081         27.6122         44.5381 
       0.650464         43.3576         27.0181          43.692 
       0.656582         42.7204         26.4456          43.208 
       0.662703           41.84         25.8897         42.3844 
       0.668861         41.2421         25.3468         41.8738 
       0.675024         40.6043         24.8194         41.0789 
       0.681124         39.9591         24.3125         40.4612 
       0.687237         39.1325          23.819         39.8652 
       0.693381         38.7351          23.337          39.181 
       0.699536         38.0545         22.8675         38.8473 
       0.705665         38.0384          22.413         38.3441 
       0.711789         36.9629         21.9713         37.4916 
       0.717957         36.5182         21.5385         37.1319 
        0.72409         35.9826         21.1198         36.6988 
       0.730186         35.3638         20.7148         36.1689 
       0.736317         35.1686         20.3183         35.5718 
       0.742472         34.5869         19.9309         35.1164 
       0.748622         34.1195         19.5539         34.6054 
        0.75476         33.6702         19.1877           34.15 
       0.760888         33.0957         18.8314         33.6734 
       0.767043         32.6799         18.4829         33.3861 
       0.773185            32.2          18.144         32.9555 
       0.779291         31.9609         17.8156         32.5319 
       0.785407         31.6624         17.4948         32.0058 
       0.791564          31.147           17.18         31.6155 
       0.797719         30.4752         16.8731         31.3724 
       0.803834         30.3452         16.5757         30.8596 
       0.809972         29.7743         16.2844         30.4685 
       0.816124         29.4153         15.9995         30.1446 
       0.822261         29.1103         15.7223          29.723 
       0.828378         28.9259         15.4524         29.2853 
       0.834502          28.509         15.1887         29.0613 
       0.840667          28.152         14.9295         28.7553 
       0.846816         27.6772         14.6771         28.4101 
       0.852925         27.4467         14.4321         28.1243 
       0.859047         27.0491         14.1922         27.7383 
       0.865192         26.7594          13.957         27.4323 
       0.871341         26.6108          13.727         27.1421 
       0.877463         26.0747         13.5033         26.8442 
       0.883569         25.8057         13.2851         26.6109 
       0.889708         25.5746         13.0707          26.277 
       0.895864         25.2618         12.8605         25.9604 
       0.902008         25.0076         12.6553         25.6712 
       0.908149         24.7498         12.4548         25.4892 
       0.914301         24.5863         12.2583         25.2777 
       0.920448         24.2694         12.0662         24.9109 
       0.926574         23.9414          11.879         24.6323 
       0.932687         23.7178         11.6961         24.3994 
       0.938823         23.3537         11.5164          24.081 
       0.944975          23.208         11.3402         23.8754 
       0.951105         22.9274         11.1682         23.6525 
       0.957225         22.6367         11.0002         23.3981 
       0.963368         22.6255          10.835         23.1447 
       0.969511         22.3056         10.6732         22.8946 
       0.975621         22.1427         10.5157         22.7453 
       0.981748         21.8001         10.3609         22.5269 
       0.987916         21.5858         10.2082         22.3171 
        0.99406         21.4432         10.0593         22.0604 
        1.00019         21.1691         9.91358         21.8394 
        1.00632         21.0081         9.77091         21.6516 
        1.01246         20.9008         9.63086          21.453 
        1.01859         20.5295         9.49378         21.3169 
        1.02471         20.4271         9.35955         21.1095 
        1.03085          20.262         9.22747         20.8679 
        1.03698         19.9354         9.09822         20.6683 
        1.04314         19.8153         8.97091         20.4508 
        1.04929         19.6038         8.84635         20.3324 
        1.05541         19.3804         8.72465         20.2263 
        1.06154         19.3051         8.60496         19.9719 
        1.06769          19.097         8.48733         19.7687 
        1.07382         18.9533          8.3723         19.6296 
        1.07993         18.8052         8.25966          19.441 
        1.08607         18.5603         8.14863            19.3 
        1.09222         18.4492         8.03953         19.1664 
        1.09836         18.2614         7.93255         18.9887 
        1.10449         18.1054         7.82766          18.812 
        1.11063          17.849         7.72454         18.6393 
        1.11677         17.7702         7.62333         18.4656 
         1.1229         17.6548          7.5241         18.3502 
        1.12903         17.4341         7.42657          18.203 
        1.13518         17.3459         7.33068         18.0368 
        1.14131         17.2351         7.23654         17.8862 
        1.14745         16.9953         7.14412         17.7762 
        1.15359         16.9591         7.05329         17.5818 
        1.15973         16.7254         6.96401         17.4896 
        1.16584         16.5712         6.87668         17.3306 
        1.17197         16.5332         6.79073         17.2456 
        1.17811         16.3243         6.70599         17.0382 
        1.18424         16.1943         6.62294         16.9228 
        1.19038         16.1137         6.54107         16.8473 
        1.19652         16.0208         6.46061         16.6587 
        1.20267         15.8793         6.38151         16.5614 
        1.20881         15.7049         6.30375         16.4415 
        1.21495         15.5943         6.22741         16.3378 
        1.22108          15.469         6.15236         16.1937 
         1.2272          15.303         6.07872         16.1021 
        1.23334         15.2525         6.00612          15.973 
        1.23949         15.1328         5.93454         15.8129 
        1.24562         14.9935         5.86432         15.7258 
        1.25174         14.9143         5.79535         15.6231 
        1.25789         14.7692         5.72728         15.5132 
        1.26402         14.6893         5.66043         15.3711 
        1.27014         14.5097         5.59482         15.2863 
        1.27628         14.4279         5.53004          15.165 
        1.28244         14.3402         5.46617         15.1013 
        1.28858         14.2602         5.40339         14.9718 
        1.29471         14.1579         5.34174          14.876 
        1.30084         14.0507         5.28111         14.7988 
        1.30697         13.9262         5.22133         14.6596 
        1.31312         13.7934         5.16239         14.5652 
        1.31925         13.7086         5.10454         14.4802 
        1.32537         13.6363         5.04764         14.3982 
        1.33151         13.5299          4.9914         14.3008 
        1.33765         13.4604         4.93605         14.1916 
        1.34378         13.3443         4.88165         14.1139 
        1.34992         13.2162         4.82803         14.0336 
        1.35606         13.1684         4.77511         13.9233 
         1.3622          13.082         4.72307         13.8366 
        1.36833         12.9463         4.67194         13.7692 
        1.37445         12.9289         4.62158         13.6602 
        1.38059         12.7954         4.57182          13.573 
        1.38675         12.6455         4.52267         13.5056 
        1.39288         12.6234         4.47444         13.4009 
        1.39901         12.5253         4.42694          13.318 
        1.40515         12.4586         4.38002         13.2294 
         1.4113         12.3612          4.3338         13.1401 
        1.41742         12.2451         4.28843         13.0773 
        1.42355         12.2135         4.24362         13.0142 
         1.4297         12.1465         4.19931         12.9042 
        1.43585         12.0796         4.15566         12.8453 
        1.44198          11.961         4.11279         12.7709 
        1.44809         11.8727         4.07061         12.7046 
        1.45423         11.8108         4.02886         12.5951 
        1.46036         11.7547         3.98778         12.5232 
        1.46649          11.678         3.94726          12.478 
        1.47263         11.5698         3.90726           12.42 
        1.47877         11.5269         3.86784         12.3353 
        1.48491         11.4925         3.82891         12.2579 
        1.49104         11.4036         3.79059         12.1781 
        1.49718         11.2962         3.75277         12.1252 
        1.50333         11.2501          3.7154         12.0532 
        1.50947         11.1908         3.67862         11.9872 
         1.5156         11.1127          3.6424         11.9269 
        1.52172         11.0302         3.60666         11.8493 
        1.52787          10.983         3.57133         11.7722 
          1.534         10.9015         3.53651         11.7107 
        1.54013         10.8121          3.5022          11.642 
        1.54627         10.7591         3.46828         11.5679 
        1.55241          10.686          3.4348         11.5054 
        1.55855         10.6262         3.40181         11.4539 
        1.56467         10.5543         3.36935         11.4048 
         1.5708         10.5393         3.33721         11.3353 
        1.57695         10.4271         3.30545         11.2664 
        1.58308         10.4083         3.27417         11.2194 
        1.58922         10.3444         3.24328         11.1658 
        1.59535         10.2593         3.21279         11.0912 
         1.6015         10.2037         3.18266         11.0359 
        1.60764          10.168         3.15292         10.9766 
        1.61376         10.0595         3.12365         10.9084 
        1.61989         10.0133         3.09473         10.8847 
        1.62604         9.99069          3.0661         10.8292 
        1.63218         9.92739         3.03786         10.7676 
        1.63831         9.87939         3.01004          10.729 
        1.64444         9.79486         2.98255         10.6752 
        1.65059          9.7419         2.95535         10.6012 
        1.65673         9.68687         2.92851         10.5449 
        1.66285         9.64405         2.90208         10.5022 
        1.66898         9.61223         2.87597          10.447 
        1.67512         9.55398         2.85013         10.3802 
        1.68127         9.50807         2.82458         10.3395 
         1.6874         9.43045         2.79941          10.291 
        1.69353         9.36954         2.77455         10.2015 
        1.69967          9.3234         2.74994         10.1722 
        1.70581         9.27899         2.72564          10.139 
        1.71193         9.23934         2.70172         10.0865 
        1.71806          9.1717         2.67804          10.061 
        1.72421         9.12766          2.6546         10.0075 
        1.73035         9.06449         2.63146         9.95914 
        1.73649         9.04369          2.6086         9.92278 
        1.74262         9.00734         2.58604         9.84761 
        1.74876         8.95267         2.56372          9.7922 
        1.75489         8.90112         2.54171         9.75892 
        1.76101         8.83642         2.51997         9.72095 
        1.76715         8.80847         2.49846           9.671 
        1.77329          8.7574         2.47717         9.61374 
        1.77943         8.70781         2.45611         9.56222 
        1.78557         8.67972         2.43534          9.5227 
        1.79171         8.63021          2.4148         9.48399 
        1.79785         8.55427         2.39449         9.44441 
        1.80399         8.53291         2.37442         9.40629 
        1.81012         8.51702         2.35461         9.36496 
        1.81625           8.458         2.33503         9.32934 
        1.82239         8.41863         2.31565         9.29569 
        1.82853         8.35099         2.29649         9.24993 
        1.83466         8.29649         2.27758         9.20646 
        1.84078         8.26429         2.25889         9.16341 
        1.84692         8.24663         2.24038         9.10815 
        1.85306         8.17808         2.22206         9.07258 
         1.8592          8.1515         2.20397         9.04836 
        1.86533         8.11947          2.1861         9.00379 
        1.87147         8.07528          2.1684          8.9536 
        1.87761         8.04589         2.15088         8.91958 
