# k  (h/Mpc)    Pcb(k)  (Mpc/h)^3    Pcb_linear(k) (Mpc/h)^3    Pcb_NL(k) (Mpc/h)^3   ShotnoiseSubtracted = false
     0.00783031         2390.67         2418.26         2396.13 
       0.013688         2696.66         2695.15         2678.27 
       0.019231         2492.89         2488.82         2475.41 
      0.0249154         2084.15         2095.57         2088.97 
      0.0312784         1646.53         1644.25         1645.33 
      0.0375637         1302.32         1294.62          1296.7 
      0.0433917          1078.3         1077.44         1079.48 
      0.0492413         947.306         944.533         946.429 
      0.0555754         856.498         860.344          860.79 
      0.0619321          804.38         799.532         799.231 
       0.067871         735.709         738.381         737.695 
      0.0738098         660.493         663.005         661.904 
      0.0800417         569.816         572.918         572.934 
      0.0862327         485.328         485.134         486.761 
      0.0921407         417.212          414.49           416.7 
      0.0982031         362.304         361.305         364.426 
       0.104506         330.885         326.343         329.787 
       0.110769         309.936         306.782         309.132 
       0.116806          296.05         295.057         296.667 
       0.122832         285.547         283.602         284.987 
       0.129052          267.19         267.365         268.486 
       0.135211         245.903         245.762         247.203 
       0.141259         223.403          221.31         223.397 
       0.147318         200.447         197.147         200.219 
       0.153489         178.879         176.119         178.864 
       0.159709         163.555         160.315         163.385 
       0.165845         154.229         149.966         153.516 
       0.171974          146.05         143.469          146.44 
       0.178125         141.461         138.815         141.882 
       0.184229         136.792         134.139         136.899 
        0.19034             129         128.148         130.655 
       0.196428         122.718         120.576          122.79 
       0.202534         115.414         111.927         114.435 
       0.208729         106.063         103.098         105.803 
       0.214876         97.8668         95.2635         98.6068 
       0.220989         92.4148         88.9617         92.4401 
       0.227147         86.9196         84.2023         87.5455 
        0.23329         83.3202         80.7206         84.1597 
       0.239377         80.7322         77.9765         81.2591 
       0.245482         77.0704         75.3654         78.1878 
       0.251667         74.9001         72.4529          75.441 
       0.257832         71.5788          69.131          71.984 
       0.263955         67.9551         65.5153         68.3127 
       0.270079         64.4099         61.8435         64.7048 
        0.27624         61.5751         58.3799         61.1948 
       0.282372         58.6466         55.3631         58.3919 
        0.28843         55.8233         52.8773         55.9237 
       0.294538         53.5105          50.807         53.7897 
       0.300721         52.1065         49.0208         52.0274 
        0.30691         49.9554         47.3672         50.3488 
       0.313033         48.2346          45.731         48.5375 
       0.319153         45.9037         44.0194         46.8159 
       0.325316         44.9056         42.2272         45.0882 
        0.33145         42.8428         40.4264          43.183 
       0.337538         41.3306         38.7042         41.4123 
       0.343633         39.5497         37.1069         39.8429 
       0.349808         38.2014         35.6572         38.4918 
       0.355968         37.0152         34.3745         37.3579 
       0.362074         35.7396         33.2331         36.0653 
       0.368217         34.5479         32.1698         34.8009 
       0.374374         33.4174         31.1415          33.814 
       0.380519         32.4997         30.1263         32.6949 
       0.386598         31.4895         29.1208         31.7062 
       0.392688         30.6559         28.1209         30.7113 
        0.39888         29.5665         27.1323         29.7054 
       0.405048         28.6847         26.1937         28.6761 
       0.411186         27.8224         25.3194         27.9274 
       0.417313         26.8727         24.5118         27.0303 
       0.423458         26.0911         23.7586         26.2933 
       0.429607         25.3144         23.0506         25.5121 
       0.435692         24.5279         22.3831         24.8462 
       0.441815         23.9671         21.7315         24.2465 
       0.447964         23.4422         21.0912         23.5041 
       0.454126         22.4759         20.4643         22.8269 
       0.460267         22.0039         19.8569          22.296 
       0.466387         21.2715         19.2724         21.6091 
        0.47254         20.8261         18.7105         21.0718 
       0.478662         20.3907         18.1802         20.5052 
       0.484765         19.7148         17.6787         19.9404 
       0.490885         19.2337         17.1994         19.5527 
       0.497035         18.9078         16.7383          19.115 
       0.503198         18.3587         16.2936         18.5458 
       0.509342         17.8742         15.8647          18.132 
       0.515458         17.3955         15.4495          17.775 
       0.521598         17.0337         15.0444         17.2295 
       0.527764         16.5989         14.6509         16.7781 
       0.533884         16.2906         14.2744         16.3922 
           0.54         15.8611         13.9128         16.0215 
       0.546137         15.5527         13.5638         15.7034 
       0.552299         15.2307         13.2266          15.257 
       0.558452         14.7439         12.9027         14.9307 
       0.564573         14.4953         12.5921         14.6836 
       0.570708         14.1885         12.2911         14.3524 
       0.576825         13.8119         12.0003         14.0269 
       0.582926          13.516         11.7188         13.7405 
       0.589034         13.1188         11.4451         13.5048 
       0.595184         12.9174         11.1781         13.1144 
       0.601379         12.6025          10.918         12.9384 
       0.607522         12.3746         10.6687         12.6181 
       0.613639         12.1871         10.4288         12.3589 
       0.619772         11.8475         10.1961         12.1521 
       0.625918         11.7308         9.97021          11.891 
       0.632068          11.525         9.75109         11.6292 
       0.638161          11.213         9.54038         11.4096 
         0.6443         10.9742         9.33425          11.165 
       0.650464         10.7271          9.1334         11.0021 
       0.656582         10.6321         8.93988         10.7836 
       0.662703         10.4059         8.75194         10.5571 
       0.668861         10.1872         8.56844         10.4073 
       0.675024         9.96795         8.39015         10.1648 
       0.681124          9.7866          8.2188         9.97701 
       0.687237         9.59848         8.05196         9.77413 
       0.693381         9.45495         7.88902         9.58685 
       0.699536          9.1983         7.73032          9.4383 
       0.705665         9.09633         7.57668          9.3172 
       0.711789         8.89998         7.42735         9.10921 
       0.717957         8.73433         7.28104          8.9434 
        0.72409         8.58078          7.1395         8.81324 
       0.730186         8.45658          7.0026         8.64194 
       0.736317         8.33624         6.86857         8.48456 
       0.742472         8.18358         6.73758         8.37864 
       0.748622         8.05124         6.61017         8.22807 
        0.75476         7.87355         6.48635         8.08234 
       0.760888         7.74464         6.36593         7.96344 
       0.767043         7.63464         6.24811          7.8406 
       0.773185         7.47179         6.13354         7.71167 
       0.779291         7.39956         6.02251         7.59792 
       0.785407         7.28863         5.91409          7.4607 
       0.791564         7.15371         5.80767         7.34924 
       0.797719         6.98574         5.70392         7.22507 
       0.803834         6.95035         5.60338           7.107 
       0.809972         6.85886         5.50491         7.02601 
       0.816124         6.69069         5.40861           6.897 
       0.822261         6.58193         5.31488         6.78873 
       0.828378         6.50134         5.22366         6.68953 
       0.834502         6.43056         5.13451         6.59317 
       0.840667         6.30055         5.04688         6.48842 
       0.846816         6.17667         4.96155         6.40152 
       0.852925         6.11312         4.87873         6.32309 
       0.859047          6.0183         4.79765         6.23196 
       0.865192         5.95489         4.71814         6.13501 
       0.871341         5.87219         4.64039         6.05718 
       0.877463         5.76788         4.56476         5.96169 
       0.883569           5.668         4.49101         5.87488 
       0.889708         5.56321         4.41852         5.79875 
       0.895864         5.49503         4.34745         5.71112 
       0.902008         5.43985          4.2781         5.64142 
       0.908149         5.37426         4.21031          5.5543 
       0.914301         5.29282         4.14389         5.50389 
       0.920448         5.19781         4.07896         5.40425 
       0.926574         5.12883         4.01566         5.34385 
       0.932687         5.05818         3.95384          5.2385 
       0.938823         4.98519         3.89311         5.19349 
       0.944975         4.91584         3.83352         5.12717 
       0.951105         4.85315         3.77539         5.04414 
       0.957225         4.81697         3.71858          4.9981 
       0.963368         4.74574         3.66275         4.92308 
       0.969511         4.68078         3.60806         4.86629 
       0.975621          4.6194         3.55479         4.79497 
       0.981748         4.55446         3.50247         4.73401 
       0.987916          4.5057         3.45087          4.6769 
        0.99406         4.42603         3.40052         4.62538 
        1.00019         4.35395         3.35126         4.57613 
        1.00632         4.32471         3.30304         4.51268 
        1.01246          4.2662         3.25569         4.47146 
        1.01859         4.19807         3.20935         4.40418 
        1.02471          4.1603         3.16398         4.33104 
        1.03085         4.10268         3.11933          4.2882 
        1.03698         4.03646         3.07564          4.2463 
        1.04314         4.00148          3.0326         4.19008 
        1.04929         3.94759         2.99049         4.14434 
        1.05541         3.89048         2.94935         4.10251 
        1.06154         3.85386         2.90889         4.05014 
        1.06769         3.82676         2.86913         4.00559 
        1.07382         3.76308         2.83024         3.95815 
        1.07993         3.70972         2.79216         3.90782 
        1.08607         3.68216         2.75463         3.87145 
        1.09222         3.63385         2.71775         3.82438 
        1.09836         3.58509         2.68158         3.76923 
        1.10449         3.55129         2.64612         3.73451 
        1.11063         3.49947         2.61127         3.69267 
        1.11677         3.47133         2.57705          3.6525 
         1.1229         3.43554         2.54351         3.61739 
        1.12903         3.38442         2.51054         3.58419 
        1.13518         3.34109         2.47812         3.53871 
        1.14131         3.30147          2.4463         3.49317 
        1.14745         3.25843         2.41505         3.45569 
        1.15359         3.23536         2.38435         3.42571 
        1.15973          3.1898         2.35417         3.38461 
        1.16584         3.14799         2.32465         3.35486 
        1.17197         3.11713         2.29559         3.31863 
        1.17811         3.09641         2.26695         3.27898 
        1.18424         3.05651         2.23887          3.2431 
        1.19038           3.034          2.2112         3.21065 
        1.19652         2.99356           2.184         3.18125 
        1.20267         2.95861         2.15726          3.1451 
        1.20881         2.93811         2.13097         3.11618 
        1.21495         2.90419         2.10517         3.08808 
        1.22108          2.8665         2.07979         3.05558 
         1.2272          2.8395          2.0549         3.01754 
        1.23334         2.80121         2.03036         2.99432 
        1.23949         2.77109         2.00616         2.97022 
        1.24562          2.7493         1.98242         2.93835 
        1.25174         2.71922         1.95911         2.90465 
        1.25789         2.69447          1.9361         2.87345 
        1.26402         2.67043          1.9135         2.84521 
        1.27014         2.63972         1.89132         2.82306 
        1.27628         2.61153         1.86942         2.79363 
        1.28244         2.57617         1.84783         2.76593 
        1.28858         2.56646         1.82661         2.73978 
        1.29471         2.52872         1.80577         2.71674 
        1.30084         2.49914         1.78527         2.69666 
        1.30697         2.49222         1.76506         2.66194 
        1.31312         2.44479         1.74514         2.63788 
        1.31925         2.42328         1.72558         2.62317 
        1.32537         2.39933         1.70634          2.5983 
        1.33151         2.38994         1.68733         2.57211 
        1.33765         2.35444         1.66862         2.54678 
        1.34378         2.33681         1.65023         2.52473 
        1.34992         2.31806         1.63211         2.50196 
        1.35606          2.2843         1.61422         2.47617 
         1.3622         2.27073         1.59663         2.45239 
        1.36833         2.24369         1.57934         2.44101 
        1.37445         2.22337         1.56232         2.41653 
        1.38059         2.21355          1.5455         2.39055 
        1.38675         2.19064         1.52888         2.36867 
        1.39288         2.17263         1.51258         2.35555 
        1.39901         2.14048         1.49652         2.33299 
        1.40515         2.12308         1.48066         2.31139 
         1.4113         2.10479         1.46503         2.29293 
        1.41742         2.08751          1.4497          2.2726 
        1.42355         2.06463         1.43455         2.25128 
         1.4297         2.04853         1.41957         2.23531 
        1.43585         2.03451         1.40481         2.21946 
        1.44198         2.01701         1.39032         2.19623 
        1.44809         1.99459         1.37606         2.17957 
        1.45423         1.97516         1.36195         2.15996 
        1.46036         1.95392         1.34806         2.14222 
        1.46649         1.94091         1.33436         2.12659 
        1.47263         1.91987         1.32084          2.1091 
        1.47877         1.90288         1.30752         2.08806 
        1.48491         1.88811         1.29436          2.0752 
        1.49104         1.87281          1.2814         2.05564 
        1.49718         1.85384         1.26862         2.03966 
        1.50333         1.84112         1.25599         2.02417 
        1.50947         1.82026         1.24355           2.007 
         1.5156         1.80684         1.23131         1.99328 
        1.52172         1.79194         1.21922         1.98087 
        1.52787         1.77725         1.20728         1.95649 
          1.534         1.75929         1.19551         1.94335 
        1.54013         1.74706         1.18391         1.92926 
        1.54627         1.72912         1.17245         1.91229 
        1.55241         1.71233         1.16113         1.89857 
        1.55855         1.70221         1.14998          1.8805 
        1.56467         1.68794           1.139            1.87 
         1.5708         1.67311         1.12814         1.85753 
        1.57695         1.65844          1.1174         1.83953 
        1.58308          1.6405         1.10683         1.82649 
        1.58922         1.63413         1.09638         1.81562 
        1.59535         1.61989         1.08608         1.80366 
         1.6015          1.6033         1.07589         1.78839 
        1.60764         1.59172         1.06584         1.77395 
        1.61376         1.58033         1.05594         1.76265 
        1.61989          1.5642         1.04617         1.74928 
        1.62604         1.55254         1.03649         1.73581 
        1.63218         1.54528         1.02694         1.72472 
        1.63831         1.52777         1.01754         1.71297 
        1.64444         1.51792         1.00825         1.69765 
        1.65059         1.50092         0.99905         1.68612 
        1.65673         1.49452        0.989978         1.67359 
        1.66285         1.47771        0.981044         1.66047 
        1.66898         1.46837        0.972217         1.64896 
        1.67512         1.45505        0.963482         1.63765 
        1.68127         1.44469        0.954846         1.62845 
         1.6874         1.43729        0.946335         1.61953 
        1.69353          1.4191        0.937933         1.60687 
        1.69967         1.41192        0.929613         1.59187 
        1.70581         1.40269        0.921398         1.58141 
        1.71193         1.38902        0.913313         1.57343 
        1.71806          1.3808        0.905307         1.56011 
        1.72421         1.36978        0.897382         1.54859 
        1.73035         1.35872        0.889561         1.53863 
        1.73649         1.34789        0.881834         1.52843 
        1.74262         1.33657        0.874205         1.51884 
        1.74876         1.32923        0.866662         1.51007 
        1.75489         1.31774        0.859223         1.49896 
        1.76101         1.30564        0.851873         1.48562 
        1.76715         1.29962          0.8446          1.4761 
        1.77329         1.29034        0.837402         1.46739 
        1.77943         1.27546        0.830285         1.45771 
        1.78557         1.26746        0.823262         1.44789 
        1.79171         1.26176        0.816319         1.43765 
        1.79785         1.24976        0.809454         1.42794 
        1.80399         1.24042         0.80267         1.41942 
        1.81012         1.23101        0.795972         1.40996 
        1.81625         1.22427        0.789354         1.40022 
        1.82239          1.2145        0.782802         1.39178 
        1.82853         1.20217        0.776327         1.38455 
        1.83466         1.19649        0.769931         1.37658 
        1.84078         1.18968        0.763614         1.36731 
        1.84692          1.1814        0.757358         1.35752 
        1.85306         1.16967        0.751164         1.34677 
         1.8592         1.16055         0.74505         1.33808 
        1.86533          1.1527        0.739006         1.33237 
        1.87147         1.14644        0.733023         1.32396 
