# k  (h/Mpc)    Pcb(k)  (Mpc/h)^3    Pcb_linear(k) (Mpc/h)^3    Pcb_NL(k) (Mpc/h)^3   ShotnoiseSubtracted = false
     0.00783031         12910.3         13092.8         12970.5 
       0.013688         14705.2         14582.4         14477.7 
       0.019231         13522.5         13462.6         13372.6 
      0.0249154           11175         11333.8         11275.8 
      0.0312784         8869.57         8892.06         8871.39 
      0.0375637          7063.5         7000.88         6996.52 
      0.0433917         5805.88         5826.25          5820.4 
      0.0492413         5127.61         5107.43         5104.15 
      0.0555754         4586.72          4652.1         4647.22 
      0.0619321         4375.83         4323.21         4316.48 
       0.067871         3950.59         3992.52         3989.24 
      0.0738098         3553.77         3584.92          3566.8 
      0.0800417         3061.62          3097.8         3098.38 
      0.0862327         2632.73         2623.13         2656.61 
      0.0921407          2298.5         2241.14         2284.06 
      0.0982031         1994.69         1953.57          2019.6 
       0.104506         1851.14         1764.52         1842.83 
       0.110769         1727.56         1658.75         1714.45 
       0.116806         1647.34         1595.35         1638.72 
       0.122832         1584.34         1533.41         1573.55 
       0.129052         1467.06         1445.62          1480.9 
       0.135211         1359.22         1328.81         1369.78 
       0.141259         1257.06          1196.6         1252.62 
       0.147318         1143.33         1065.95         1142.39 
       0.153489         1024.05         952.252         1021.08 
       0.159709         951.165         866.803         944.314 
       0.165845          904.34         810.845         899.776 
       0.171974         858.358         775.714         853.939 
       0.178125          825.54         750.551         831.721 
       0.184229          794.18         725.271         798.016 
        0.19034         741.973          692.88         760.362 
       0.196428           717.7         651.934         715.482 
       0.202534         683.224          605.17         675.189 
       0.208729         635.893         557.437         627.868 
       0.214876         595.757         515.074         599.402 
       0.220989         567.873         481.002         569.389 
       0.227147         540.201         455.268         543.301 
        0.23329         517.955         436.443         526.438 
       0.239377         505.528         421.606         506.659 
       0.245482         471.983         407.488         484.674 
       0.251667         466.041         391.741         471.612 
       0.257832          446.98          373.78         450.324 
       0.263955         428.263          354.23         430.382 
       0.270079         408.162         334.377         412.428 
        0.27624         399.194          315.65         393.187 
       0.282372         382.882         299.339         379.502 
        0.28843         370.009         285.898         366.642 
       0.294538         351.312         274.705          354.97 
       0.300721         347.436         265.047         345.042 
        0.30691         331.227         256.106         336.676 
       0.313033         323.269          247.26         324.305 
       0.319153         311.059         238.005         314.049 
       0.325316         302.426         228.315         304.871 
        0.33145         291.167         218.578         292.396 
       0.337538         285.428         209.266         282.938 
       0.343633         275.242          200.63         277.445 
       0.349808         265.076         192.792         270.409 
       0.355968         261.123         185.856         264.028 
       0.362074         255.311         179.685         256.613 
       0.368217         247.662         173.936         248.121 
       0.374374         237.181         168.377         241.748 
       0.380519         234.302         162.888         234.932 
       0.386598         227.709         157.451         231.014 
       0.392688         224.204         152.044         223.565 
        0.39888         218.162         146.699         218.059 
       0.405048         211.993         141.624         213.807 
       0.411186         207.473         136.897         207.574 
       0.417313         203.003         132.531         202.196 
       0.423458         198.098         128.458         198.231 
       0.429607         194.003          124.63         194.148 
       0.435692          188.12         121.021         189.062 
       0.441815         186.029         117.498          186.52 
       0.447964         181.651         114.036         182.465 
       0.454126         174.939         110.646         176.861 
       0.460267         172.228         107.362         175.069 
       0.466387         169.971         104.202         171.131 
        0.47254         165.554         101.164         167.596 
       0.478662         164.878         98.2967         164.183 
       0.484765         158.891         95.5853         160.021 
       0.490885         156.475         92.9939         157.571 
       0.497035         153.792         90.5005         155.094 
       0.503198         150.007         88.0966         152.301 
       0.509342         148.055         85.7773         149.828 
       0.515458         145.629         83.5324         147.707 
       0.521598         142.399         81.3423         144.214 
       0.527764         140.592         79.2144         142.016 
       0.533884         138.439         77.1791         139.823 
           0.54         135.838         75.2238         137.021 
       0.546137         134.424         73.3366         135.292 
       0.552299         131.681         71.5139         132.339 
       0.558452         129.999         69.7627         130.093 
       0.564573         127.827         68.0828         128.768 
       0.570708         124.993         66.4554         126.946 
       0.576825          123.29         64.8832         124.215 
       0.582926         120.936         63.3611         122.492 
       0.589034         119.409         61.8816         121.198 
       0.595184         117.722         60.4381         118.611 
       0.601379         115.903         59.0314         117.346 
       0.607522          113.75         57.6835         115.111 
       0.613639         112.641         56.3864         114.143 
       0.619772         110.368         55.1281          112.54 
       0.625918         109.009          53.907         110.668 
       0.632068         107.512         52.7222         108.942 
       0.638161         106.468          51.583         108.076 
         0.6443         104.982         50.4685         106.459 
       0.650464         103.773         49.3825         104.158 
       0.656582         101.874         48.3362         103.361 
       0.662703         100.882         47.3201         101.793 
       0.668861         99.1254         46.3279         100.728 
       0.675024         97.6662         45.3639         99.3051 
       0.681124         96.9225         44.4375         97.9399 
       0.687237         95.1661         43.5354         96.7145 
       0.693381         93.6961         42.6544         95.3021 
       0.699536         92.9956         41.7963         94.3344 
       0.705665         92.4451         40.9656         93.5584 
       0.711789         90.5236         40.1582         92.1822 
       0.717957         90.1825         39.3672         91.0918 
        0.72409           88.56         38.6019         90.3567 
       0.730186         87.1682         37.8617         89.3557 
       0.736317         86.5781          37.137         87.9969 
       0.742472         85.7498         36.4288         87.0897 
       0.748622         84.7458         35.7399          85.988 
        0.75476         83.7988         35.0704         85.0298 
       0.760888         82.6833         34.4193         83.7995 
       0.767043         82.1709         33.7823         83.2767 
       0.773185         81.1829         33.1628         82.6076 
       0.779291         79.8146         32.5625         81.5274 
       0.785407         79.3808         31.9763         80.4596 
       0.791564          78.716         31.4009         79.8033 
       0.797719           77.03           30.84         79.2596 
       0.803834         76.6611         30.2964         78.1454 
       0.809972         75.6677          29.764         77.3664 
       0.816124          75.191         29.2433         76.7282 
       0.822261         74.4766         28.7365         75.8749 
       0.828378         73.8806         28.2433         74.8927 
       0.834502         73.2959         27.7613         74.1993 
       0.840667         72.1557         27.2875         73.7847 
       0.846816         71.2746         26.8261         73.0648 
       0.852925         70.7566         26.3783         72.3628 
       0.859047         69.8265         25.9399          71.613 
       0.865192         69.2918         25.5101         70.9251 
       0.871341         68.6741         25.0897         70.1779 
       0.877463         67.6995         24.6807         69.6038 
       0.883569         67.5107          24.282         69.2346 
       0.889708          66.788         23.8901         68.4613 
       0.895864         66.1558         23.5058         67.9937 
       0.902008         65.5859         23.1308         67.1972 
       0.908149         65.0865         22.7643         66.6588 
       0.914301         64.3621         22.4052         66.0998 
       0.920448         63.8905         22.0541         65.6079 
       0.926574         63.2043         21.7119         64.9456 
       0.932687         63.1219         21.3776         64.4724 
       0.938823         62.0747         21.0493         63.7987 
       0.944975         61.4028         20.7271         63.2562 
       0.951105         60.9668         20.4128         62.7457 
       0.957225         60.3897         20.1056         62.2833 
       0.963368         59.8502         19.8037         61.6923 
       0.969511         59.6423         19.5081          61.192 
       0.975621         59.2375         19.2201         61.0564 
       0.981748         58.6283         18.9372         60.5384 
       0.987916         57.9908         18.6582         60.0441 
        0.99406         57.6039         18.3859         59.4036 
        1.00019         57.2047         18.1196         58.8573 
        1.00632         56.6406         17.8589         58.4397 
        1.01246         56.3445         17.6029         57.9083 
        1.01859         55.5916         17.3523         57.7212 
        1.02471         55.2418          17.107         57.4097 
        1.03085         54.7815         16.8656          56.834 
        1.03698         54.4786         16.6293         56.3827 
        1.04314          53.982         16.3967         55.9131 
        1.04929         53.5695          16.169         55.6415 
        1.05541          52.978         15.9465         55.3592 
        1.06154         52.9094         15.7278         54.8899 
        1.06769         52.4444         15.5128         54.5012 
        1.07382         52.1186         15.3025         54.1438 
        1.07993         51.7498         15.0966         53.7679 
        1.08607         51.3055         14.8937         53.3751 
        1.09222         51.0872         14.6943          52.959 
        1.09836         50.5384         14.4988         52.5517 
        1.10449         50.3114         14.3071         52.2664 
        1.11063         49.7898         14.1186         51.7219 
        1.11677         49.4978         13.9336         51.3868 
         1.1229         49.0217         13.7522         51.2483 
        1.12903         48.5072          13.574         50.8097 
        1.13518         48.5676         13.3987         50.4534 
        1.14131          48.233         13.2266         50.1004 
        1.14745         47.7337         13.0577         49.8659 
        1.15359         47.4658         12.8917         49.4925 
        1.15973         47.0082         12.7285         49.3041 
        1.16584         46.7069         12.5689         48.7464 
        1.17197         46.4141         12.4118         48.6512 
        1.17811         46.1965         12.2569         48.2637 
        1.18424         45.7665         12.1051         48.0097 
        1.19038         45.4931         11.9555         47.6545 
        1.19652         45.2676         11.8084         47.3346 
        1.20267         44.7313         11.6638         47.1113 
        1.20881         44.5956         11.5217         46.7758 
        1.21495         44.1874         11.3822         46.4731 
        1.22108         44.1147          11.245         46.2603 
         1.2272         43.4957         11.1104         45.9621 
        1.23334         43.3152         10.9777         45.7576 
        1.23949         43.2117         10.8469          45.354 
        1.24562         42.7343         10.7186         45.0377 
        1.25174         42.5718         10.5925         44.8779 
        1.25789         42.3922         10.4681         44.5792 
        1.26402         42.0251         10.3459         44.3732 
        1.27014          41.688          10.226         44.1968 
        1.27628         41.4176         10.1076         43.8654 
        1.28244         41.1769         9.99083          43.533 
        1.28858         41.0174         9.87609         43.2911 
        1.29471         40.8305         9.76341         43.1242 
        1.30084         40.5556         9.65259         42.7719 
        1.30697         40.2223         9.54332         42.6036 
        1.31312         39.9611         9.43559          42.423 
        1.31925         39.7359         9.32986         42.1108 
        1.32537         39.5308         9.22585         41.9526 
        1.33151         39.1914         9.12306         41.6711 
        1.33765         39.0304         9.02189         41.4387 
        1.34378         38.7825         8.92247         41.2473 
        1.34992         38.5451         8.82447         40.9852 
        1.35606         38.3318         8.72773         40.7771 
         1.3622         38.0275         8.63262         40.5884 
        1.36833         37.8448         8.53916         40.3829 
        1.37445         37.6164         8.44713          40.184 
        1.38059         37.3566         8.35618         39.9744 
        1.38675         37.1415         8.26635         39.7226 
        1.39288         36.9489         8.17819         39.5116 
        1.39901         36.7781         8.09137         39.3336 
        1.40515         36.4967         8.00562         39.2201 
         1.4113         36.3234         7.92114         39.0174 
        1.41742         36.2351          7.8382         38.6834 
        1.42355         35.8902          7.7563         38.5421 
         1.4297         35.7698         7.67532         38.3417 
        1.43585         35.5984         7.59553         38.1353 
        1.44198          35.258         7.51718         37.9747 
        1.44809         35.1646         7.44008         37.7394 
        1.45423         34.9549         7.36378         37.5576 
        1.46036         34.7802         7.28869         37.3939 
        1.46649         34.6042         7.21462         37.2523 
        1.47263         34.3398         7.14153         37.0894 
        1.47877         34.1225         7.06948         36.8246 
        1.48491         34.1339         6.99831         36.6624 
        1.49104          33.808         6.92827         36.5371 
        1.49718         33.4878         6.85914         36.3556 
        1.50333         33.5133         6.79085         36.1434 
        1.50947         33.2946         6.72363          35.967 
         1.5156         33.0639         6.65741         35.8072 
        1.52172         32.9476         6.59209         35.6383 
        1.52787         32.8352         6.52752         35.5012 
          1.534         32.5642         6.46388         35.3243 
        1.54013         32.3726         6.40117         35.1278 
        1.54627         32.2997         6.33917         34.9584 
        1.55241         31.9535         6.27798         34.8031 
        1.55855         31.8746         6.21768         34.6547 
        1.56467         31.5824         6.15834         34.5257 
         1.5708         31.6275         6.09961          34.371 
        1.57695         31.4171         6.04156         34.2195 
        1.58308         31.2047         5.98439         34.0645 
        1.58922         31.0636         5.92792          33.878 
        1.59535         30.9737          5.8722         33.7418 
         1.6015         30.7158         5.81712         33.5591 
        1.60764         30.5118         5.76277         33.4047 
        1.61376          30.403         5.70927         33.3291 
        1.61989         30.2231          5.6564         33.1581 
        1.62604         30.0641         5.60409         32.9813 
        1.63218         30.0751         5.55247         32.8345 
        1.63831          29.775         5.50161         32.7091 
        1.64444         29.6526         5.45138         32.5727 
        1.65059         29.5676         5.40165         32.4111 
        1.65673         29.3283          5.3526         32.2629 
        1.66285         29.1596          5.3043         32.1544 
        1.66898          29.066         5.25657         32.0509 
        1.67512          28.873         5.20934           31.87 
        1.68127         28.7258         5.16265         31.7066 
         1.6874         28.5594         5.11663         31.5893 
        1.69353         28.4463         5.07121         31.4725 
        1.69967         28.3197         5.02622         31.3346 
        1.70581         28.2558          4.9818         31.2216 
        1.71193         28.0894         4.93809         31.1065 
        1.71806         27.8234         4.89481         30.9268 
        1.72421         27.7483         4.85195         30.8019 
        1.73035         27.6106         4.80966         30.7082 
        1.73649         27.3978         4.76789         30.5852 
        1.74262         27.3008         4.72664         30.4194 
        1.74876         27.1971         4.68585         30.2771 
        1.75489         27.0841         4.64563         30.1698 
        1.76101         26.9456          4.6059         30.0647 
        1.76715         26.8196         4.56657          29.927 
        1.77329         26.6916         4.52765         29.8075 
        1.77943         26.5689         4.48918         29.7018 
        1.78557         26.3917          4.4512         29.5772 
        1.79171         26.2872         4.41366         29.4495 
        1.79785         26.1536         4.37654          29.337 
        1.80399         26.1123         4.33986         29.2374 
        1.81012         25.8804         4.30365         29.1084 
        1.81625         25.8073         4.26787         28.9706 
        1.82239          25.671         4.23244          28.866 
        1.82853         25.5622         4.19743         28.7891 
        1.83466         25.3719         4.16285          28.661 
        1.84078         25.2027          4.1287         28.5064 
        1.84692         25.1659         4.09487         28.4215 
        1.85306         25.0022         4.06138          28.328 
         1.8592         24.8798         4.02832         28.2063 
        1.86533         24.7752         3.99565         28.0996 
        1.87147         24.7243          3.9633         27.9847 
