# k  (h/Mpc)    Pcb(k)  (Mpc/h)^3    Pcb_linear(k) (Mpc/h)^3    Pcb_NL(k) (Mpc/h)^3   ShotnoiseSubtracted = false
     0.00783031         17840.8         18108.7         17936.6 
       0.013688         20381.2         20166.1         20012.2 
       0.019231         18709.3         18616.3         18480.1 
      0.0249154         15404.3           15672         15576.6 
      0.0312784         12241.7         12295.3         12248.8 
      0.0375637         9772.82          9680.2          9663.6 
      0.0433917         8014.19         8055.95         8036.38 
      0.0492413         7090.51         7061.99         7047.71 
      0.0555754          6318.7         6432.38         6419.69 
      0.0619321         6055.09          5977.6         5963.48 
       0.067871         5444.69         5520.34         5514.11 
      0.0738098          4902.5         4956.76         4921.85 
      0.0800417         4223.44         4283.21         4282.44 
      0.0862327         3644.36          3626.9         3686.48 
      0.0921407         3200.54         3098.74         3175.41 
      0.0982031         2780.78         2701.12          2820.4 
       0.104506         2591.52         2439.73         2582.04 
       0.110769         2415.91         2293.48         2395.97 
       0.116806         2306.16         2205.82         2286.13 
       0.122832         2211.99         2120.18         2193.94 
       0.129052         2042.57         1998.79         2064.27 
       0.135211         1896.13         1837.29            1912 
       0.141259         1764.56         1654.48         1757.33 
       0.147318         1613.63         1473.84         1611.82 
       0.153489         1448.66         1316.63         1442.65 
       0.159709         1351.36         1198.49         1340.63 
       0.165845         1289.01         1121.12         1282.45 
       0.171974         1226.42         1072.54         1216.71 
       0.178125         1175.33         1037.75         1186.43 
       0.184229         1126.97          1002.8         1135.58 
        0.19034          1056.2          958.01         1081.94 
       0.196428         1023.24         901.397         1020.82 
       0.202534         975.492         836.738         967.124 
       0.208729          912.75         770.741         900.296 
       0.214876         861.861         712.167         864.637 
       0.220989         823.465         665.057         825.305 
       0.227147          787.08         629.476         790.821 
        0.23329         754.473         603.447         767.643 
       0.239377          737.73         582.933         738.117 
       0.245482         688.245         563.413         706.439 
       0.251667         681.614          541.64         688.275 
       0.257832         652.212         516.806         658.006 
       0.263955          626.96         489.775          630.64 
       0.270079         599.153         462.326         606.122 
        0.27624         588.447         436.433         579.931 
       0.282372         564.452          413.88         562.021 
        0.28843          550.47         395.297         545.186 
       0.294538         521.269          379.82         528.092 
       0.300721         516.811         366.467         513.158 
        0.30691         493.664         354.104         502.934 
       0.313033         482.657         341.873         484.772 
       0.319153         467.512         329.077         469.977 
       0.325316         453.764         315.679         457.136 
        0.33145         438.848         302.217         438.732 
       0.337538         430.045         289.342         426.348 
       0.343633           416.6         277.401         419.518 
       0.349808         400.531         266.563         409.822 
       0.355968         396.155         256.974          400.59 
       0.362074         389.664         248.441         390.725 
       0.368217         377.849         240.493         378.553 
       0.374374         360.638         232.805         369.418 
       0.380519         358.474         225.216         359.608 
       0.386598         348.139         217.699         355.148 
       0.392688          344.53         210.224         343.683 
        0.39888         334.674         202.834         336.277 
       0.405048          326.64         195.816          329.79 
       0.411186         320.969         189.281          320.69 
       0.417313         314.203         183.243         313.705 
       0.423458         306.561         177.612          308.11 
       0.429607         301.872          172.32         302.202 
       0.435692           293.4         167.329         294.022 
       0.441815         290.001         162.459         290.875 
       0.447964         283.063         157.671         285.567 
       0.454126         276.147         152.985          276.99 
       0.460267         270.614         148.444         274.787 
       0.466387         266.951         144.075         269.398 
        0.47254         261.463         139.874         264.152 
       0.478662         260.378          135.91         258.663 
       0.484765         250.497         132.161         253.395 
       0.490885          247.56         128.578         249.225 
       0.497035         242.733          125.13         245.647 
       0.503198          238.71         121.807         241.878 
       0.509342         236.726           118.6         238.045 
       0.515458         233.036         115.496         234.909 
       0.521598         226.838         112.468         230.441 
       0.527764         224.135         109.526         227.842 
       0.533884         221.226         106.711          224.38 
           0.54         217.776         104.008         220.029 
       0.546137         216.144         101.399         217.363 
       0.552299         211.579         98.8785         213.441 
       0.558452         210.135         96.4571         210.426 
       0.564573         206.961         94.1345         208.518 
       0.570708          202.23         91.8843         205.885 
       0.576825         198.891         89.7105         201.531 
       0.582926         196.394          87.606         199.433 
       0.589034         194.172         85.5604         197.121 
       0.595184         192.244         83.5645         193.161 
       0.601379          188.81         81.6196         191.101 
       0.607522         186.235         79.7559         188.037 
       0.613639         184.342         77.9625         187.193 
       0.619772         180.752         76.2227         185.186 
       0.625918         179.589         74.5343         181.712 
       0.632068         176.326         72.8962           179.3 
       0.638161         175.229          71.321          178.35 
         0.6443         172.442         69.7801         175.865 
       0.650464          170.57         68.2786         172.237 
       0.656582         168.057         66.8319         171.004 
       0.662703         167.681         65.4269         169.095 
       0.668861         164.824         64.0551          167.61 
       0.675024         162.146         62.7222         165.729 
       0.681124         160.873         61.4413         163.185 
       0.687237         158.943         60.1941         161.423 
       0.693381         156.272         58.9759         159.389 
       0.699536         154.923         57.7896         157.952 
       0.705665         153.394          56.641         156.168 
       0.711789         151.728         55.5247          154.96 
       0.717957         151.138         54.4309         153.545 
        0.72409         149.046         53.3728         151.972 
       0.730186          146.92         52.3493          150.27 
       0.736317         145.291         51.3473         148.547 
       0.742472         144.015         50.3681         146.986 
       0.748622         142.787         49.4156         145.402 
        0.75476         141.208           48.49         144.656 
       0.760888         139.667         47.5897         142.373 
       0.767043         139.047          46.709         141.363 
       0.773185         137.768         45.8525          140.34 
       0.779291         135.057         45.0225         138.524 
       0.785407         134.552         44.2119         137.094 
       0.791564         133.384         43.4163         136.006 
       0.797719          130.83         42.6408         135.112 
       0.803834         130.166         41.8892         133.854 
       0.809972         129.424         41.1531         132.639 
       0.816124         128.387         40.4331         131.525 
       0.822261         127.362         39.7324         130.439 
       0.828378          126.06         39.0505         128.931 
       0.834502         125.443          38.384         127.745 
       0.840667         123.523         37.7289         126.749 
       0.846816         122.355          37.091          125.86 
       0.852925          121.55         36.4719         124.878 
       0.859047         120.546         35.8657          123.84 
       0.865192         118.944         35.2714         122.472 
       0.871341         118.025         34.6902         121.472 
       0.877463         116.918         34.1247         120.806 
       0.883569         116.686         33.5734          120.21 
       0.889708         115.262         33.0315         118.781 
       0.895864         114.044         32.5002         118.073 
       0.902008         113.225         31.9818         116.898 
       0.908149         112.783          31.475         116.002 
       0.914301          111.25         30.9784         114.987 
       0.920448         110.556         30.4931         114.304 
       0.926574         109.558         30.0198         113.246 
       0.932687         109.472         29.5577         112.666 
       0.938823         107.762         29.1037         111.697 
       0.944975         107.057         28.6582         110.851 
       0.951105          106.22         28.2237         109.952 
       0.957225          105.58         27.7989         109.176 
       0.963368         103.839         27.3816          108.32 
       0.969511         103.668         26.9728          107.42 
       0.975621         102.748         26.5745         107.141 
       0.981748         102.526         26.1834         106.365 
       0.987916         101.388         25.7977         105.521 
        0.99406         100.516         25.4212         104.625 
        1.00019         100.256          25.053         103.827 
        1.00632         99.0034         24.6925         103.056 
        1.01246         98.5536         24.3385         102.081 
        1.01859          97.959         23.9921         101.782 
        1.02471         96.7015         23.6529         101.294 
        1.03085         95.9332         23.3191         100.588 
        1.03698         95.5709         22.9925         100.036 
        1.04314         94.4944         22.6708          99.181 
        1.04929         94.2955          22.356         98.6285 
        1.05541         93.3466         22.0484         98.1225 
        1.06154         92.9017         21.7459         97.4453 
        1.06769         92.5042         21.4487         96.8654 
        1.07382         91.5264          21.158         96.3171 
        1.07993         91.0002         20.8733         95.6155 
        1.08607         90.2248         20.5927         94.9485 
        1.09222          90.022          20.317         94.4822 
        1.09836         89.1869         20.0467         93.7502 
        1.10449         88.3098         19.7816         93.4117 
        1.11063         87.7847          19.521         92.5595 
        1.11677         87.1186         19.2652         91.9813 
         1.1229          86.606         19.0145         91.5067 
        1.12903         86.1922          18.768         90.8887 
        1.13518           85.74         18.5257         90.4173 
        1.14131         84.9082         18.2878         89.6504 
        1.14745         84.6162         18.0542         89.2649 
        1.15359          83.905         17.8247         88.8204 
        1.15973         83.5127          17.599         88.3996 
        1.16584         82.7279         17.3784         87.6371 
        1.17197         82.1717         17.1611         87.3819 
        1.17811         81.7259          16.947         86.7357 
        1.18424         81.3437         16.7371         86.1329 
        1.19038         81.0992         16.5302         85.8864 
        1.19652         80.3854         16.3269         85.2837 
        1.20267         79.6118          16.127         84.8773 
        1.20881         79.3571         15.9305          84.215 
        1.21495         78.5155         15.7376         83.9044 
        1.22108         78.3399         15.5479         83.4802 
         1.2272         77.5569         15.3618         82.9319 
        1.23334         77.1244         15.1783         82.7045 
        1.23949         76.8051         14.9974         82.0401 
        1.24562         76.1958           14.82         81.3851 
        1.25174         75.9198         14.6457         80.9972 
        1.25789         75.4419         14.4737         80.5609 
        1.26402         74.4931         14.3047         80.3238 
        1.27014         74.3658         14.1389         79.9547 
        1.27628         74.0029         13.9752         79.6537 
        1.28244         73.5823         13.8138         79.0164 
        1.28858         73.2369         13.6551         78.5633 
        1.29471         72.6313         13.4993         78.2299 
        1.30084         72.4319         13.3461         77.6134 
        1.30697         71.6839          13.195         77.3182 
        1.31312         71.3094         13.0461         76.9891 
        1.31925         70.8868         12.8999         76.6205 
        1.32537           70.45         12.7561         76.3065 
        1.33151         69.9345          12.614         75.8297 
        1.33765         69.6256         12.4741         75.4941 
        1.34378         69.2908         12.3366         75.1294 
        1.34992         68.9627         12.2011          74.634 
        1.35606         68.4711         12.0674          74.298 
         1.3622         67.9242         11.9359         73.9896 
        1.36833         67.7059         11.8066         73.4731 
        1.37445         67.3151         11.6794         73.2702 
        1.38059         66.6781         11.5536         72.6998 
        1.38675         66.2888         11.4294         72.3777 
        1.39288         66.2256         11.3075         71.9483 
        1.39901         65.6939         11.1875         71.7117 
        1.40515         65.2005         11.0689         71.5123 
         1.4113         64.9699         10.9521         71.2333 
        1.41742         64.6166         10.8375          70.818 
        1.42355         64.2718         10.7242         70.3494 
         1.4297         64.0053         10.6122         70.1001 
        1.43585          63.527         10.5019         69.6464 
        1.44198         63.0733         10.3936         69.4863 
        1.44809         62.9102          10.287         69.1191 
        1.45423         62.6065         10.1815         68.6733 
        1.46036         62.1101         10.0777         68.3786 
        1.46649         61.7169         9.97527         68.1542 
        1.47263         61.2965         9.87421          67.841 
        1.47877         61.0481         9.77458         67.3711 
        1.48491         60.6974         9.67618         67.1004 
        1.49104         60.4918         9.57935         66.9401 
        1.49718         60.1065         9.48377         66.4867 
        1.50333         59.9087         9.38934         66.1348 
        1.50947         59.3947         9.29639         65.8928 
         1.5156         59.2679         9.20484         65.6089 
        1.52172         58.8108         9.11453         65.2814 
        1.52787         58.5054         9.02524         64.9859 
          1.534         58.1246         8.93726         64.7795 
        1.54013         57.7817         8.85054         64.4912 
        1.54627         57.5997         8.76482          64.151 
        1.55241         57.1817         8.68022         63.8567 
        1.55855         56.9115         8.59685         63.5816 
        1.56467         56.6939         8.51481         63.3299 
         1.5708         56.3183          8.4336         63.0036 
        1.57695         56.2599         8.35333         62.7394 
        1.58308         55.8131         8.27429         62.5148 
        1.58922         55.4436         8.19621         62.1983 
        1.59535         55.2877         8.11918          61.978 
         1.6015         54.8303         8.04302         61.6617 
        1.60764          54.624         7.96788         61.3521 
        1.61376         54.3599          7.8939         61.2177 
        1.61989         54.0518          7.8208         60.9542 
        1.62604         53.7784         7.74847         60.4999 
        1.63218         53.6198         7.67709         60.2134 
        1.63831         53.0202         7.60678          60.132 
        1.64444         52.7788         7.53733         59.8393 
        1.65059         52.6722         7.46857         59.5211 
        1.65673         52.2585         7.40075         59.2572 
        1.66285         52.0363         7.33396         59.0603 
        1.66898          51.912         7.26798         58.8638 
        1.67512         51.4193         7.20268         58.5659 
        1.68127         51.2925         7.13812         58.2961 
         1.6874         50.9595         7.07449         58.0631 
        1.69353         50.6943         7.01168         57.8015 
        1.69967         50.4867         6.94949         57.5741 
        1.70581         50.2356         6.88807         57.3539 
        1.71193          50.001         6.82763         57.1336 
        1.71806         49.6755         6.76778         56.9266 
        1.72421         49.4845         6.70853         56.6691 
        1.73035         49.2376         6.65006         56.3984 
        1.73649         48.9764          6.5923         56.1557 
        1.74262         48.6633         6.53527         55.9355 
        1.74876         48.4826         6.47888           55.71 
        1.75489          48.236         6.42327         55.4708 
        1.76101           48.06         6.36832         55.2306 
        1.76715         47.6697         6.31395         55.0152 
        1.77329         47.4217         6.26014         54.8086 
        1.77943          47.235         6.20694         54.5928 
        1.78557         47.0071         6.15444         54.3671 
        1.79171          46.771         6.10253         54.1424 
        1.79785         46.4223         6.05121         53.9199 
        1.80399         46.3478         6.00049         53.6974 
        1.81012         46.0476         5.95043         53.4806 
        1.81625         45.8408         5.90095         53.2522 
        1.82239         45.5482         5.85197         53.0366 
        1.82853         45.3657         5.80356         52.8682 
        1.83466         45.1432         5.75575         52.6527 
        1.84078         44.8105         5.70853         52.4233 
        1.84692         44.6831         5.66176         52.2881 
        1.85306         44.4262         5.61546         52.0594 
         1.8592         44.2735         5.56974         51.7778 
        1.86533         43.9912         5.52456         51.5936 
        1.87147          43.653         5.47983         51.3848 
