# k  (h/Mpc)    P(k)  (Mpc/h)^3    P_linear(k)  (Mpc/h)^3     P_NL(k)  ShotnoiseSubtracted = false
     0.00783031         2700.96         2732.47         2707.48 
       0.013688         3048.23          3045.2         3026.04 
       0.019231         2817.15         2812.03         2796.76 
      0.0249154         2353.85         2367.69         2360.09 
      0.0312784         1860.09         1857.75         1858.81 
      0.0375637          1471.7         1462.72         1464.97 
      0.0433917         1218.09         1217.34         1219.54 
      0.0492413         1070.38         1067.17         1069.24 
      0.0555754         967.293          972.05         972.523 
      0.0619321         909.206         903.341         902.993 
       0.067871         831.034          834.25         833.504 
      0.0738098         746.109         749.087         747.788 
      0.0800417         643.599         647.304         647.353 
      0.0862327         548.403         548.122         550.161 
      0.0921407         471.726         468.305         471.049 
      0.0982031         409.565         408.215         412.119 
       0.104506         374.371         368.714         373.059 
       0.110769         350.604         346.613         349.593 
       0.116806           334.8         333.366         335.451 
       0.122832         322.959         320.423         322.247 
       0.129052         302.029         302.078         303.576 
       0.135211         278.039         277.671         279.568 
       0.141259         252.793         250.044         252.751 
       0.147318         226.947         222.743          226.69 
       0.153489         202.537         198.985         202.501 
       0.159709         185.313          181.13         185.062 
       0.165845         174.825         169.436          173.99 
       0.171974          165.51         162.096         165.923 
       0.178125         160.297         156.838         160.797 
       0.184229         154.992         151.555         155.126 
        0.19034         146.029         144.787         148.035 
       0.196428         139.062         136.231         139.108 
       0.202534         130.894         126.459         129.709 
       0.208729         120.329         116.484         119.971 
       0.214876         111.067         107.632         111.935 
       0.220989         104.944         100.512         104.988 
       0.227147         98.7168         95.1346         99.4446 
        0.23329         94.6322         91.2006         95.6351 
       0.239377         91.7321         88.1006         92.3336 
       0.245482         87.4489         85.1503         88.8012 
       0.251667         85.0613         81.8597         85.7218 
       0.257832         81.3344         78.1069         81.7946 
       0.263955          77.227         74.0215         77.6398 
       0.270079         73.2219         69.8729         73.5746 
        0.27624          70.084         65.9595         69.6005 
       0.282372         66.7845         62.5506         66.4564 
        0.28843         63.5831         59.7427         63.6695 
       0.294538         60.9311         57.4036         61.2561 
       0.300721         59.3786         55.3854         59.2697 
        0.30691         56.9009         53.5169           57.37 
       0.313033         54.9566         51.6688         55.2989 
       0.319153         52.2895         49.7346         53.3491 
       0.325316          51.177         47.7097         51.4058 
        0.33145         48.8236         45.6751         49.2364 
       0.337538          47.155         43.7293         47.2287 
       0.343633         45.1366         41.9245         45.4708 
       0.349808         43.6011         40.2867         43.9541 
       0.355968         42.2766         38.8374         42.6819 
       0.362074         40.8276         37.5479          41.209 
       0.368217         39.4629         36.3466         39.7585 
       0.374374         38.1883         35.1847         38.6398 
       0.380519         37.1485         34.0377         37.3653 
       0.386598         35.9963         32.9017         36.2487 
       0.392688         35.0614         31.7719         35.1255 
        0.39888         33.8339          30.655         33.9797 
       0.405048         32.8327         29.5945         32.8205 
       0.411186         31.8611         28.6066         31.9792 
       0.417313         30.7832         27.6943         30.9499 
       0.423458         29.8893         26.8432         30.1202 
       0.429607         29.0135         26.0434         29.2339 
       0.435692         28.0964         25.2891         28.4765 
       0.441815         27.4883         24.5531         27.8045 
       0.447964         26.8924         23.8295          26.955 
       0.454126         25.7588         23.1212         26.1772 
       0.460267         25.2436         22.4349         25.5887 
       0.466387         24.4197         21.7746         24.8037 
        0.47254         23.9166         21.1396         24.1997 
       0.478662         23.4313         20.5406         23.5585 
       0.484765         22.6561          19.974         22.9056 
       0.490885         22.1073         19.4325         22.4724 
       0.497035         21.7391         18.9114         21.9804 
       0.503198         21.1069         18.4091         21.3307 
       0.509342         20.5471         17.9245         20.8643 
       0.515458         20.0102         17.4553         20.4655 
       0.521598         19.6057         16.9977         19.8346 
       0.527764         19.1183          16.553         19.3117 
       0.533884         18.7652         16.1277         18.8782 
           0.54         18.2701         15.7191         18.4607 
       0.546137         17.9297         15.3248         18.1013 
       0.552299         17.5679         14.9439         17.5889 
       0.558452         17.0058          14.578         17.2139 
       0.564573         16.7171         14.2269         16.9362 
       0.570708         16.3747         13.8868          16.562 
       0.576825         15.9475         13.5583         16.1916 
       0.582926         15.5989         13.2402         15.8631 
       0.589034         15.1482         12.9311         15.5986 
       0.595184         14.9236         12.6294          15.156 
       0.601379         14.5654         12.3355         14.9538 
       0.607522         14.2937         12.0538         14.5811 
       0.613639         14.0894         11.7828         14.2906 
       0.619772         13.7016         11.5199         14.0534 
       0.625918         13.5726         11.2647         13.7629 
       0.632068          13.337         11.0171         13.4614 
       0.638161         12.9854          10.779         13.2103 
         0.6443         12.7102         10.5462         12.9301 
       0.650464           12.43         10.3192         12.7426 
       0.656582         12.3243         10.1006         12.4965 
       0.662703         12.0639         9.88824         12.2352 
       0.668861         11.8086         9.68091         12.0681 
       0.675024         11.5595         9.47947         11.7851 
       0.681124          11.351         9.28588         11.5732 
       0.687237         11.1298         9.09738          11.344 
       0.693381         10.9761         8.91328         11.1288 
       0.699536         10.6808         8.73398          10.964 
       0.705665         10.5774         8.56039         10.8214 
       0.711789         10.3375         8.39167          10.578 
       0.717957          10.153         8.22637         10.3963 
        0.72409          9.9813         8.06645         10.2469 
       0.730186         9.83397         7.91177         10.0509 
       0.736317         9.69551         7.76034         9.87135 
       0.742472          9.5164         7.61234         9.74839 
       0.748622           9.374         7.46839         9.57284 
        0.75476         9.17193          7.3285         9.41095 
       0.760888         9.01911         7.19244         9.27604 
       0.767043         8.89052         7.05932         9.13435 
       0.773185         8.70659         6.92988         8.98419 
       0.779291         8.62733         6.80443         8.85661 
       0.785407         8.50772         6.68194         8.69935 
       0.791564         8.34455          6.5617         8.57212 
       0.797719         8.13987         6.44448         8.43343 
       0.803834         8.10841         6.33089         8.29452 
       0.809972         8.00632         6.21964         8.19956 
       0.816124         7.80914         6.11083         8.05395 
       0.822261         7.68968         6.00493          7.9303 
       0.828378         7.59888         5.90186         7.81405 
       0.834502         7.51519         5.80114         7.70796 
       0.840667         7.36977         5.70213         7.58575 
       0.846816         7.22313         5.60572         7.48431 
       0.852925         7.14771         5.51216         7.40011 
       0.859047         7.04238         5.42054         7.29092 
       0.865192         6.96795         5.33071         7.17989 
       0.871341         6.87421         5.24287         7.09203 
       0.877463         6.75159         5.15742         6.98362 
       0.883569         6.63935         5.07409         6.88184 
       0.889708         6.51564         4.99219         6.79471 
       0.895864         6.43954          4.9119         6.69348 
       0.902008         6.37953         4.83354         6.61442 
       0.908149         6.30247         4.75695         6.51637 
       0.914301          6.2176          4.6819         6.46071 
       0.920448         6.10168         4.60855         6.34369 
       0.926574         6.02501         4.53703           6.271 
       0.932687         5.94025         4.46718         6.15261 
       0.938823         5.85581         4.39856          6.0976 
       0.944975         5.77492         4.33124         6.02537 
       0.951105         5.70303         4.26557         5.92611 
       0.957225         5.65623         4.20137         5.87534 
       0.963368           5.579         4.13829         5.78905 
       0.969511         5.50724         4.07651         5.72285 
       0.975621         5.43894         4.01633         5.64321 
       0.981748         5.35829         3.95721         5.57354 
       0.987916         5.30585         3.89891         5.50403 
        0.99406         5.21596         3.84202         5.44545 
        1.00019         5.12842         3.78637         5.38888 
        1.00632         5.09789         3.73188         5.31727 
        1.01246         5.03155         3.67839         5.27157 
        1.01859         4.94705         3.62603         5.19365 
        1.02471         4.90784         3.57477         5.10856 
        1.03085         4.84306         3.52432         5.05958 
        1.03698         4.76139         3.47496           5.011 
        1.04314         4.72391         3.42633         4.94599 
        1.04929         4.65912         3.37876         4.89453 
        1.05541         4.59213         3.33228         4.84695 
        1.06154         4.55263         3.28656         4.78399 
        1.06769         4.52051         3.24163         4.73026 
        1.07382         4.44876          3.1977         4.67837 
        1.07993         4.38794         3.15468         4.62127 
        1.08607         4.35169         3.11227         4.57782 
        1.09222         4.29933          3.0706         4.52558 
        1.09836         4.24035         3.02974         4.46057 
        1.10449         4.20221         2.98968         4.41907 
        1.11063         4.14107          2.9503         4.37305 
        1.11677         4.11083         2.91164         4.32485 
         1.1229          4.0722         2.87374         4.28472 
        1.12903         4.01077         2.83649         4.24739 
        1.13518         3.95704         2.79986         4.19451 
        1.14131         3.91693         2.76391         4.14261 
        1.14745         3.86864         2.72861         4.09945 
        1.15359         3.84013         2.69392         4.06181 
        1.15973         3.78778         2.65982         4.01548 
        1.16584         3.73473         2.62647         3.98197 
        1.17197         3.70122         2.59364         3.94164 
        1.17811         3.67739         2.56127         3.89286 
        1.18424         3.63132         2.52955         3.85308 
        1.19038         3.60639         2.49828         3.81554 
        1.19652          3.5578         2.46755         3.77927 
        1.20267         3.51668         2.43734         3.73986 
        1.20881         3.49641         2.40764         3.70665 
        1.21495         3.45616         2.37849         3.67241 
        1.22108         3.40964         2.34982         3.63603 
         1.2272         3.37781         2.32169         3.59165 
        1.23334         3.33544         2.29397          3.5642 
        1.23949         3.29949         2.26663         3.53544 
        1.24562         3.27483         2.23981         3.49829 
        1.25174         3.24224         2.21347         3.46121 
        1.25789         3.21149         2.18747          3.4244 
        1.26402         3.18675         2.16194         3.39245 
        1.27014         3.15012         2.13687         3.36566 
        1.27628         3.11349         2.11213         3.33054 
        1.28244         3.07346         2.08774         3.30035 
        1.28858         3.06541         2.06376         3.26956 
        1.29471         3.02073         2.04022         3.24378 
        1.30084         2.98514         2.01706         3.22032 
        1.30697         2.97703         1.99423         3.17919 
        1.31312         2.92214         1.97171         3.15194 
        1.31925         2.89532         1.94962         3.13439 
        1.32537         2.86921         1.92788         3.10598 
        1.33151         2.85816          1.9064         3.07542 
        1.33765         2.81714         1.88526         3.04455 
        1.34378         2.79518         1.86449         3.01898 
        1.34992          2.7727         1.84401         2.99376 
        1.35606         2.73743          1.8238         2.96397 
         1.3622         2.71977         1.80392         2.93558 
        1.36833         2.68658         1.78439         2.92289 
        1.37445         2.66458         1.76516         2.89376 
        1.38059         2.65216         1.74615         2.86289 
        1.38675         2.62455         1.72738         2.83977 
        1.39288         2.60632         1.70896         2.82339 
        1.39901         2.56751         1.69082         2.79719 
        1.40515         2.54847          1.6729          2.7719 
         1.4113         2.52559         1.65524         2.74978 
        1.41742         2.50475         1.63791         2.72665 
        1.42355         2.47766          1.6208         2.70317 
         1.4297         2.46063         1.60388         2.68216 
        1.43585         2.44389          1.5872         2.66423 
        1.44198         2.42432         1.57083         2.63762 
        1.44809         2.39781         1.55472          2.6179 
        1.45423         2.37473         1.53878         2.59636 
        1.46036         2.34979         1.52309          2.5755 
        1.46649         2.33503         1.50761         2.55687 
        1.47263         2.31011         1.49233          2.5367 
        1.47877         2.29047         1.47728         2.51157 
        1.48491         2.27352         1.46241         2.49654 
        1.49104         2.25528         1.44777         2.47547 
        1.49718         2.23324         1.43333         2.45573 
        1.50333         2.21852         1.41905         2.43722 
        1.50947         2.19291         1.40501         2.41798 
         1.5156         2.17875         1.39117         2.40189 
        1.52172         2.16182         1.37752         2.38636 
        1.52787         2.14405         1.36403          2.3584 
          1.534         2.12346         1.35073          2.3432 
        1.54013         2.10901         1.33762         2.32662 
        1.54627         2.08757         1.32467          2.3073 
        1.55241         2.06759         1.31188         2.29135 
        1.55855         2.05635         1.29928         2.26945 
        1.56467         2.03888         1.28688         2.25755 
         1.5708          2.0229         1.27461         2.24402 
        1.57695         2.00494         1.26248         2.22216 
        1.58308          1.9832         1.25053          2.2064 
        1.58922         1.97691         1.23873           2.195 
        1.59535         1.96116         1.22709         2.18104 
         1.6015         1.93997         1.21558         2.16264 
        1.60764         1.92514         1.20422         2.14534 
        1.61376         1.91285         1.19304         2.13197 
        1.61989         1.89429         1.18199         2.11674 
        1.62604          1.8813         1.17106         2.10098 
        1.63218         1.87267         1.16027         2.08811 
        1.63831         1.85148         1.14965         2.07461 
        1.64444         1.84078         1.13915         2.05632 
        1.65059         1.81824         1.12876         2.04279 
        1.65673         1.81382         1.11851         2.02837 
        1.66285         1.79254         1.10842         2.01323 
        1.66898         1.78078         1.09844         1.99971 
        1.67512         1.76728         1.08857         1.98612 
        1.68127         1.75412         1.07882         1.97496 
         1.6874         1.74424          1.0692         1.96471 
        1.69353         1.72452         1.05971         1.95068 
        1.69967         1.71723         1.05031         1.93264 
        1.70581         1.70484         1.04103         1.92001 
        1.71193         1.68877         1.03189         1.91099 
        1.71806         1.67858         1.02285         1.89563 
        1.72421         1.66601         1.01389         1.88201 
        1.73035         1.65362         1.00506         1.87007 
        1.73649         1.64072        0.996325         1.85803 
        1.74262         1.62679        0.987706         1.84707 
        1.74876         1.61839        0.979183         1.83647 
        1.75489         1.60627        0.970778         1.82314 
        1.76101         1.59121        0.962475         1.80781 
        1.76715         1.58395        0.954257         1.79703 
        1.77329         1.57261        0.946125          1.7868 
        1.77943         1.55548        0.938084         1.77526 
        1.78557         1.54616        0.930149         1.76366 
        1.79171         1.53849        0.922304         1.75139 
        1.79785         1.52578        0.914548         1.73987 
        1.80399         1.51433        0.906883         1.73021 
        1.81012         1.50257        0.899316         1.71955 
        1.81625         1.49506        0.891839         1.70824 
        1.82239         1.48415        0.884435         1.69828 
        1.82853         1.46907         0.87712         1.68981 
        1.83466         1.46226        0.869894         1.68015 
        1.84078           1.455        0.862757         1.66884 
        1.84692         1.44532        0.855689         1.65736 
        1.85306           1.431        0.848691          1.6448 
         1.8592         1.42029        0.841782         1.63455 
        1.86533         1.41071        0.834954         1.62791 
        1.87147         1.40326        0.828194         1.61805 
        1.87761          1.3923        0.821505          1.6073 
