# k  (h/Mpc)    Pcb(k)  (Mpc/h)^3    Pcb_linear(k) (Mpc/h)^3    Pcb_NL(k) (Mpc/h)^3   ShotnoiseSubtracted = false
     0.00783031         3482.76         3524.27         3492.05 
       0.013688         3934.56          3927.3         3902.32 
       0.019231         3634.36         3626.48         3606.42 
      0.0249154          3033.1         3053.38         3043.17 
      0.0312784         2398.08         2395.74         2396.63 
      0.0375637         1898.58          1886.3         1888.91 
      0.0433917         1570.24         1569.85         1572.39 
      0.0492413         1380.53          1376.2         1378.64 
      0.0555754         1246.32         1253.53         1254.04 
      0.0619321         1173.44         1164.92         1164.43 
       0.067871         1071.14         1075.82         1074.93 
      0.0738098         961.791         965.999         964.152 
      0.0800417          829.46         834.742         834.877 
      0.0862327         707.389          706.84         710.019 
      0.0921407         609.275         603.911         608.123 
      0.0982031         528.812         526.421         532.496 
       0.104506         484.204         475.481         482.341 
       0.110769         453.295          446.98          451.72 
       0.116806         432.645         429.897         433.321 
       0.122832         417.399         413.206         416.271 
       0.129052         389.916         389.549         392.116 
       0.135211         359.151         358.074         361.259 
       0.141259         327.064         322.447         326.901 
       0.147318          293.97         287.242          293.64 
       0.153489         262.388         256.604         262.283 
       0.159709         240.421         233.578          239.93 
       0.165845         227.012         218.499         225.871 
       0.171974         214.838         209.032         215.269 
       0.178125         208.016         202.252         208.726 
       0.184229         201.084          195.44         201.292 
        0.19034         189.121         186.711         192.052 
       0.196428         180.475         175.678         180.434 
       0.202534          170.15         163.076         168.424 
       0.208729         156.542         150.214         155.901 
       0.214876         144.613         138.798         145.793 
       0.220989         136.799         129.616         136.893 
       0.227147         128.742         122.682         129.716 
        0.23329         123.423         117.609         124.846 
       0.239377         119.745         113.611         120.516 
       0.245482         113.828         109.807         115.798 
       0.251667         110.917         105.563          111.89 
       0.257832         106.173         100.723         106.764 
       0.263955         100.849         95.4551         101.391 
       0.270079         95.6779         90.1053         96.1823 
        0.27624          91.804          85.059          91.037 
       0.282372         87.5707         80.6636         87.0387 
        0.28843         83.4219         77.0418         83.4462 
       0.294538         79.8913         74.0253         80.3317 
       0.300721         77.9814         71.4229         77.7834 
        0.30691         74.6588         69.0135         75.3265 
       0.313033         72.1613         66.6297         72.5874 
       0.319153         68.6506         64.1359          70.059 
       0.325316         67.2237         61.5246         67.5748 
        0.33145         64.1386         58.9008         64.7312 
       0.337538         62.0929         56.3916          62.124 
       0.343633         59.4752         54.0644         59.9087 
       0.349808         57.4536         51.9521         57.9749 
       0.355968         55.7932         50.0832         56.3491 
       0.362074         53.9066         48.4203         54.4219 
       0.368217         52.1014         46.8711         52.4972 
       0.374374         50.4547         45.3729         51.0391 
       0.380519         49.1107         43.8938         49.3714 
       0.386598         47.5954         42.4287         47.9342 
       0.392688         46.4033         40.9719         46.4836 
        0.39888          44.835         39.5315         44.9796 
       0.405048         43.5209         38.1639         43.5067 
       0.411186         42.2742         36.8901         42.4209 
       0.417313         40.8815         35.7134         41.0524 
       0.423458         39.7053          34.616         39.9887 
       0.429607         38.5763         33.5845         38.8415 
       0.435692         37.3165         32.6119         37.8479 
       0.441815         36.6014         31.6626          36.995 
       0.447964          35.819         30.7296         35.8758 
       0.454126         34.2473         29.8162         34.8339 
       0.460267         33.6275         28.9312         34.1058 
       0.466387         32.5933         28.0796         33.0736 
        0.47254         31.9277          27.261         32.3003 
       0.478662           31.32         26.4883         31.4726 
       0.484765         30.2916         25.7577         30.5886 
       0.490885         29.5731         25.0594         30.0383 
       0.497035         29.0939         24.3875         29.4096 
       0.503198         28.2413         23.7397         28.5615 
       0.509342         27.4938         23.1147         27.9614 
       0.515458         26.8146         22.5097          27.456 
       0.521598         26.3013         21.9196         26.6073 
       0.527764         25.6834         21.3462         25.9007 
       0.533884         25.2169         20.7977         25.3504 
           0.54         24.5493         20.2708         24.8144 
       0.546137         24.1308         19.7623         24.3495 
       0.552299         23.6674         19.2711         23.6693 
       0.558452         22.9177         18.7992          23.166 
       0.564573         22.5171         18.3465         22.8099 
       0.570708         22.0871         17.9079         22.3284 
       0.576825         21.5417         17.4843         21.8428 
       0.582926         21.0529         17.0741         21.4048 
       0.589034         20.4681         16.6754         21.0676 
       0.595184         20.1798         16.2864         20.5005 
       0.601379         19.7177         15.9074          20.223 
       0.607522         19.3218         15.5442         19.7139 
       0.613639         19.0825         15.1946         19.3494 
       0.619772         18.5734         14.8556         19.0279 
       0.625918            18.4         14.5265         18.6692 
       0.632068         18.0911         14.2072         18.2668 
       0.638161         17.6478         13.9002         17.9355 
         0.6443         17.2815         13.5999         17.5636 
       0.650464         16.9177         13.3073         17.3047 
       0.656582         16.7753         13.0253         16.9939 
       0.662703         16.4232         12.7515         16.6426 
       0.668861         16.0836         12.4841         16.4288 
       0.675024         15.7591         12.2244         16.0452 
       0.681124         15.4759         11.9747         15.7718 
       0.687237         15.1682         11.7316         15.4776 
       0.693381         14.9909         11.4942         15.1887 
       0.699536         14.5998          11.263         14.9878 
       0.705665          14.501         11.0391         14.7846 
       0.711789         14.1406         10.8216         14.4481 
       0.717957          13.909         10.6084         14.2333 
        0.72409         13.6923         10.4022         14.0317 
       0.730186         13.4778         10.2027         13.7741 
       0.736317         13.3006         10.0074         13.5366 
       0.742472         13.0501         9.81658         13.3657 
       0.748622         12.8813         9.63094         13.1279 
        0.75476         12.6209         9.45055         12.9262 
       0.760888         12.4029         9.27509         12.7479 
       0.767043          12.226         9.10343           12.56 
       0.773185         11.9912          8.9365         12.3554 
       0.779291         11.8937         8.77473         12.1914 
       0.785407         11.7532         8.61676          11.982 
       0.791564          11.517         8.46171         11.8134 
       0.797719         11.2188         8.31056         11.6425 
       0.803834         11.1922         8.16407         11.4486 
       0.809972         11.0564          8.0206         11.3129 
       0.816124         10.7908         7.88029         11.1282 
       0.822261         10.6438         7.74372         10.9639 
       0.828378         10.5324         7.61081         10.8008 
       0.834502         10.4108         7.48093         10.6725 
       0.840667         10.2268         7.35325         10.5074 
       0.846816         10.0223         7.22892         10.3682 
       0.852925         9.91728         7.10826         10.2679 
       0.859047         9.78437         6.99012         10.1118 
       0.865192         9.67361         6.87428         9.96365 
       0.871341          9.5579         6.76101         9.84973 
       0.877463         9.38582         6.65081         9.70929 
       0.883569         9.24279         6.54335         9.57158 
       0.889708         9.07594         6.43774         9.45367 
       0.895864         8.97555         6.33419         9.31597 
       0.902008         8.89846         6.23315         9.21259 
       0.908149         8.79133         6.13438         9.09108 
       0.914301         8.70397          6.0376         9.01818 
       0.920448          8.5335           5.943          8.8576 
       0.926574          8.4354         5.85077          8.7508 
       0.932687         8.31387          5.7607         8.60516 
       0.938823         8.20052         5.67222         8.51918 
       0.944975         8.09299         5.58539         8.43024 
       0.951105         7.99591         5.50071         8.29258 
       0.957225         7.91444         5.41793         8.22584 
       0.963368         7.82917         5.33658         8.11245 
       0.969511         7.73597         5.25691         8.01958 
       0.975621         7.65284          5.1793         7.92145 
       0.981748         7.52864         5.10306         7.82956 
       0.987916         7.46343         5.02789         7.72817 
        0.99406         7.35139         4.95451          7.6498 
        1.00019          7.2294         4.88276         7.57262 
        1.00632         7.18826         4.81249         7.48162 
        1.01246         7.10871         4.74351         7.42092 
        1.01859         6.97948         4.67599         7.32032 
        1.02471         6.93489         4.60988         7.20779 
        1.03085          6.8537         4.54483         7.13868 
        1.03698         6.72866         4.48117         7.07077 
        1.04314         6.68507         4.41846         6.98418 
        1.04929         6.59173         4.35711         6.91955 
        1.05541         6.49974         4.29717         6.85774 
        1.06154         6.45334         4.23822         6.76485 
        1.06769          6.4055         4.18028          6.6858 
        1.07382         6.31475         4.12363         6.62383 
        1.07993         6.23635         4.06815         6.54987 
        1.08607         6.17232         4.01346         6.48799 
        1.09222         6.11207         3.95973         6.42324 
        1.09836         6.02831         3.90704         6.33533 
        1.10449         5.97806         3.85537         6.27397 
        1.11063         5.88969         3.80459         6.21554 
        1.11677         5.85446         3.75473         6.14574 
         1.1229         5.80884         3.70586         6.09461 
        1.12903         5.72114         3.65782         6.04336 
        1.13518         5.64046          3.6106         5.97225 
        1.14131         5.60246         3.56423         5.90616 
        1.14745         5.53894         3.51871         5.84814 
        1.15359         5.49601         3.47397         5.78854 
        1.15973         5.42334            3.43         5.73047 
        1.16584         5.34424         3.38699         5.68481 
        1.17197         5.30763         3.34466         5.63843 
        1.17811         5.26786         3.30292         5.56247 
        1.18424         5.20821         3.26201         5.51347 
        1.19038         5.17355         3.22169         5.46394 
        1.19652         5.10821         3.18206         5.40791 
        1.20267         5.05197          3.1431         5.36073 
        1.20881         5.02551          3.1048         5.31499 
        1.21495         4.97309          3.0672         5.26512 
        1.22108         4.90427         3.03024         5.21876 
         1.2272         4.85816         2.99397          5.1596 
        1.23334         4.80918         2.95821         5.12106 
        1.23949         4.75555         2.92295          5.0774 
        1.24562         4.72474         2.88837         5.02729 
        1.25174          4.6848          2.8544         4.98207 
        1.25789         4.63632         2.82087         4.93074 
        1.26402         4.60972         2.78795         4.88833 
        1.27014         4.55637         2.75563          4.8491 
        1.27628         4.50023         2.72372         4.79862 
        1.28244         4.44992         2.69227         4.76398 
        1.28858         4.44343         2.66135         4.72063 
        1.29471         4.38282         2.63098         4.68596 
        1.30084         4.33068         2.60112         4.65475 
        1.30697         4.31468         2.57167         4.59862 
        1.31312         4.24438         2.54264         4.56202 
        1.31925         4.20465         2.51415         4.53629 
        1.32537         4.17536         2.48612         4.49861 
        1.33151         4.15468         2.45842         4.45671 
        1.33765          4.1034         2.43116         4.41194 
        1.34378         4.06783         2.40437         4.37621 
        1.34992         4.03238         2.37796          4.3453 
        1.35606         3.99886          2.3519         4.30473 
         1.3622          3.9703         2.32627         4.26452 
        1.36833         3.91811         2.30108         4.24827 
        1.37445          3.8934         2.27628         4.20634 
        1.38059         3.86898         2.25177         4.16376 
        1.38675         3.82842         2.22756         4.13833 
        1.39288          3.8104         2.20381            4.11 
        1.39901         3.75782         2.18041         4.07462 
        1.40515         3.73485          2.1573         4.04015 
         1.4113          3.6994         2.13454         4.00923 
        1.41742         3.66778         2.11219         3.98017 
        1.42355          3.6319         2.09012         3.94903 
         1.4297         3.61305          2.0683         3.91512 
        1.43585         3.58673          2.0468         3.89126 
        1.44198         3.56077         2.02568         3.85655 
        1.44809         3.52473         2.00491         3.82845 
        1.45423         3.49176         1.98435         3.80061 
        1.46036          3.4584         1.96411         3.77134 
        1.46649         3.43968         1.94415         3.74599 
        1.47263         3.40303         1.92445          3.7201 
        1.47877         3.37599         1.90504         3.68367 
        1.48491         3.35403         1.88586         3.66101 
        1.49104         3.32808         1.86699         3.63674 
        1.49718         3.29941         1.84836          3.6081 
        1.50333         3.27537         1.82996         3.58155 
        1.50947         3.24029         1.81184         3.55707 
         1.5156         3.22419           1.794         3.53411 
        1.52172         3.20245          1.7764         3.50912 
        1.52787         3.17407         1.75899         3.47419 
          1.534         3.14748         1.74185         3.45245 
        1.54013         3.12529         1.72495         3.42825 
        1.54627         3.09568         1.70824         3.40311 
        1.55241         3.06899         1.69175         3.38157 
        1.55855         3.05419          1.6755         3.35165 
        1.56467         3.02717         1.65951          3.3346 
         1.5708          3.0094         1.64369         3.31712 
        1.57695         2.98311         1.62804         3.28711 
        1.58308         2.95234         1.61264         3.26422 
        1.58922         2.94337         1.59742         3.24966 
        1.59535         2.92369         1.58241          3.2303 
         1.6015         2.89121         1.56756         3.20361 
        1.60764         2.86787         1.55292         3.17877 
        1.61376         2.85429          1.5385         3.16093 
        1.61989         2.82814         1.52425         3.14121 
        1.62604         2.81184         1.51016         3.11927 
        1.63218         2.79822         1.49624         3.10122 
        1.63831         2.76837         1.48254         3.08279 
        1.64444         2.75324           1.469         3.05667 
        1.65059         2.72014         1.45561         3.03786 
        1.65673         2.71824         1.44239         3.01935 
        1.66285         2.68645         1.42937         2.99889 
        1.66898         2.66755         1.41651         2.97851 
        1.67512           2.654         1.40378         2.95948 
        1.68127         2.63304          1.3912         2.94288 
         1.6874         2.61634          1.3788          2.9281 
        1.69353         2.59196         1.36656         2.91089 
        1.69967         2.58339         1.35444          2.8857 
        1.70581         2.56547         1.34247         2.86744 
        1.71193         2.54071         1.33069         2.85544 
        1.71806         2.52575         1.31902         2.83526 
        1.72421            2.51         1.30748         2.81638 
        1.73035         2.49343         1.29608         2.79951 
        1.73649         2.47554         1.28482         2.78246 
        1.74262         2.45472         1.27371         2.76583 
        1.74876          2.4434         1.26272         2.74998 
        1.75489         2.42748         1.25188         2.73161 
        1.76101          2.4073         1.24117         2.71168 
        1.76715         2.39387         1.23057         2.69825 
        1.77329         2.37623         1.22009         2.68344 
        1.77943         2.35661         1.20972         2.66585 
        1.78557         2.34439         1.19948         2.64927 
        1.79171         2.33076         1.18937         2.63217 
        1.79785         2.31312         1.17937         2.61621 
        1.80399         2.29861         1.16948         2.60326 
        1.81012         2.28216         1.15972         2.58992 
        1.81625         2.26914         1.15008         2.57479 
        1.82239         2.25618         1.14053         2.56033 
        1.82853         2.23435          1.1311          2.5485 
        1.83466         2.22369         1.12178         2.53462 
        1.84078         2.21482         1.11258         2.51801 
        1.84692         2.20177         1.10346         2.50189 
        1.85306         2.18193         1.09444         2.48454 
         1.8592         2.16706         1.08553         2.47004 
        1.86533         2.15235         1.07672         2.46012 
        1.87147         2.14038         1.06801         2.44574 
