# k  (h/Mpc)    Pcb(k)  (Mpc/h)^3    Pcb_linear(k) (Mpc/h)^3    Pcb_NL(k) (Mpc/h)^3   ShotnoiseSubtracted = false
     0.00783031           21790         22131.1         21917.3 
       0.013688         24943.9         24643.2           24446 
       0.019231         22868.9         22748.3         22570.3 
      0.0249154         18779.5         19150.1         19018.6 
      0.0312784         14936.4         15023.8         14949.4 
      0.0375637         11945.8         11828.2         11797.7 
      0.0433917         9780.11         9843.47         9808.55 
      0.0492413         8663.91         8628.92         8602.02 
      0.0555754         7699.62         7859.58         7838.27 
      0.0619321         7400.43         7303.88         7281.96 
       0.067871         6635.83         6745.15         6735.61 
      0.0738098         5979.63         6056.51         6004.09 
      0.0800417         5151.83         5233.52         5230.92 
      0.0862327         4456.81         4431.59          4516.8 
      0.0921407          3931.1         3786.24         3896.31 
      0.0982031         3419.77          3300.4         3472.36 
       0.104506         3195.42         2981.02         3186.63 
       0.110769         2976.94         2802.32         2952.03 
       0.116806         2844.81         2695.21          2813.1 
       0.122832         2722.69         2590.57         2698.13 
       0.129052          2509.9         2442.24         2538.48 
       0.135211          2332.6         2244.91         2353.34 
       0.141259         2180.37         2021.55         2171.24 
       0.147318         2002.15         1800.83         1998.99 
       0.153489         1801.03         1608.74         1791.81 
       0.159709         1684.23         1464.38         1670.85 
       0.165845         1610.82         1369.85         1602.15 
       0.171974          1535.3          1310.5         1520.59 
       0.178125         1467.82         1267.98         1483.42 
       0.184229         1403.43         1225.28         1417.61 
        0.19034         1320.94         1170.55         1350.81 
       0.196428         1279.57         1101.38         1277.81 
       0.202534         1220.21         1022.38         1213.64 
       0.208729         1146.06         941.736         1130.73 
       0.214876          1088.9         870.168          1089.4 
       0.220989         1041.85         812.605         1043.29 
       0.227147         998.855         769.131         1003.01 
        0.23329         957.329         737.327          974.46 
       0.239377         937.453         712.261         936.892 
       0.245482         875.891          688.41         897.438 
       0.251667         868.535         661.807         874.667 
       0.257832         829.954         631.463         837.267 
       0.263955         798.886         598.436         804.109 
       0.270079         765.313         564.896         774.165 
        0.27624         752.767         533.259         742.512 
       0.282372         722.019         505.703         721.992 
        0.28843         708.871         482.997         702.606 
       0.294538         670.886         464.086         680.402 
       0.300721         665.326          447.77         660.969 
        0.30691         637.446         432.665         649.893 
       0.313033         623.279          417.72         626.753 
       0.319153         606.513         402.085         608.054 
       0.325316         588.283         385.714         592.501 
        0.33145          570.85         369.265           569.1 
       0.337538         558.587         353.534         554.595 
       0.343633         543.578         338.945         546.212 
       0.349808         522.212         325.702         534.648 
       0.355968         517.487         313.985          522.64 
       0.362074         510.636          303.56         511.218 
       0.368217         494.448         293.848         496.487 
       0.374374         472.687         284.455         484.966 
       0.380519         471.337         275.182          472.81 
       0.386598         456.916         265.997         467.487 
       0.392688         453.402         256.863         453.479 
        0.39888         439.825         247.834         443.873 
       0.405048         431.398          239.26         434.969 
       0.411186          424.72         231.274         424.395 
       0.417313         415.784         223.897          416.21 
       0.423458         405.485         217.017          408.96 
       0.429607         400.776          210.55          401.68 
       0.435692         389.741         204.453         390.687 
       0.441815         385.084         198.501         387.148 
       0.447964         376.339         192.652             381 
       0.454126         370.213         186.926         369.797 
       0.460267         361.547         181.378         367.224 
       0.466387         356.485         176.039         360.643 
        0.47254         351.558         170.906         353.904 
       0.478662         348.653         166.062         346.643 
       0.484765         335.785         161.482         340.833 
       0.490885         332.448         157.104         334.788 
       0.497035         325.688         152.891         330.475 
       0.503198         321.837          148.83         325.856 
       0.509342         319.694         144.912         320.525 
       0.515458         315.316         141.119          316.59 
       0.521598          306.08         137.419         311.502 
       0.527764          302.67         133.825         308.415 
       0.533884         299.112         130.386         303.916 
           0.54         294.892         127.083         298.386 
       0.546137         292.877         123.895         294.801 
       0.552299         287.378         120.815         290.197 
       0.558452         285.388         117.857         286.595 
       0.564573         281.519         115.019         284.084 
       0.570708         275.774         112.269         280.532 
       0.576825         270.497         109.613         275.036 
       0.582926         268.407         107.042         272.605 
       0.589034          265.13         104.543         269.152 
       0.595184         263.278         102.104         264.403 
       0.601379         257.708         99.7275         261.434 
       0.607522          255.05         97.4503         257.404 
       0.613639           252.7         95.2589         256.711 
       0.619772         248.399         93.1333         254.609 
       0.625918          246.95         91.0702         249.841 
       0.632068         242.256         89.0687         247.174 
       0.638161         240.896          87.144         245.658 
         0.6443         237.297         85.2613         242.288 
       0.650464          234.96         83.4266         237.665 
       0.656582         231.488         81.6589         236.094 
       0.662703         231.422         79.9423         233.879 
       0.668861         228.022         78.2661         232.236 
       0.675024         224.723         76.6375         229.841 
       0.681124         222.481         75.0725         226.179 
       0.687237         220.362         73.5485         223.881 
       0.693381         216.799         72.0601         221.452 
       0.699536         214.495         70.6106          219.78 
       0.705665         212.479         69.2071         216.684 
       0.711789         211.346         67.8432         215.626 
       0.717957         209.752         66.5067         214.225 
        0.72409         207.746         65.2139         211.577 
       0.730186         204.721         63.9633         209.151 
       0.736317         202.775         62.7391         207.436 
       0.742472          200.69         61.5426         205.382 
       0.748622         199.311         60.3788         203.151 
        0.75476         196.847         59.2478          202.84 
       0.760888         194.813         58.1478         199.812 
       0.767043         194.142         57.0716         198.166 
       0.773185         192.487         56.0251         196.717 
       0.779291         189.125          55.011         194.408 
       0.785407         188.512         54.0206         192.764 
       0.791564          186.63         53.0485         191.072 
       0.797719          183.95         52.1009         189.668 
       0.803834         182.369         51.1826          188.47 
       0.809972          181.76         50.2831         186.747 
       0.816124         180.416         49.4035         185.079 
       0.822261          179.27         48.5473         184.036 
       0.828378          177.19         47.7141         182.084 
       0.834502         175.742         46.8998         180.557 
       0.840667         174.093         46.0993         178.895 
       0.846816         172.796         45.3199         177.836 
       0.852925           171.5         44.5635         176.522 
       0.859047         170.309         43.8228         175.154 
       0.865192          167.84         43.0966          173.36 
       0.871341          166.44         42.3864         172.141 
       0.877463         166.006         41.6955          171.24 
       0.883569         164.823         41.0219         170.756 
       0.889708         162.625         40.3597         168.561 
       0.895864         161.871         39.7106         167.614 
       0.902008         160.346         39.0771         165.964 
       0.908149         159.412         38.4579         164.762 
       0.914301         157.428         37.8512         163.414 
       0.920448         156.608         37.2581         162.517 
       0.926574         155.013         36.6799         161.193 
       0.932687         155.031         36.1153         160.115 
       0.938823          152.78         35.5605         159.339 
       0.944975         152.278         35.0162         158.028 
       0.951105         151.017         34.4853         156.973 
       0.957225         150.345         33.9663         155.705 
       0.963368          147.82         33.4563         154.654 
       0.969511         147.294         32.9568         153.535 
       0.975621         145.969         32.4703         152.883 
       0.981748         145.582         31.9923         152.025 
       0.987916         144.307         31.5211          150.75 
        0.99406         143.321         31.0611         149.689 
        1.00019         142.472         30.6112         148.682 
        1.00632         141.264         30.1707         147.578 
        1.01246          140.22         29.7382         146.264 
        1.01859          139.94         29.3149         145.749 
        1.02471         137.982         28.9005         144.942 
        1.03085         137.066         28.4926         144.098 
        1.03698         136.191         28.0935         143.549 
        1.04314         134.894         27.7004           142.3 
        1.04929         134.718         27.3158         141.317 
        1.05541         133.642           26.94         140.662 
        1.06154         132.568         26.5704         139.955 
        1.06769         132.204         26.2072         139.125 
        1.07382         130.864          25.852         138.313 
        1.07993         129.917         25.5042         137.436 
        1.08607         129.501         25.1614         136.427 
        1.09222         128.466         24.8245         135.793 
        1.09836         127.454         24.4942         134.905 
        1.10449         126.311         24.1703         134.502 
        1.11063         125.527         23.8519          133.43 
        1.11677         124.679         23.5393         132.458 
         1.1229         123.696          23.233         131.753 
        1.12903         123.382         22.9318          130.98 
        1.13518         122.563         22.6357         130.356 
        1.14131         121.288          22.345          129.43 
        1.14745         121.277         22.0596         128.662 
        1.15359         119.883         21.7792         128.115 
        1.15973         119.201         21.5035         127.443 
        1.16584         118.508         21.2339         126.668 
        1.17197         118.075         20.9685          126.17 
        1.17811         116.688         20.7068         125.286 
        1.18424         116.478         20.4503         124.377 
        1.19038          116.13         20.1975          124.23 
        1.19652         114.997         19.9491         123.168 
        1.20267         114.328         19.7048         122.752 
        1.20881         113.686         19.4647         121.882 
        1.21495         112.584          19.229         121.385 
        1.22108         112.217         18.9973         120.681 
         1.2272         111.184         18.7699         119.981 
        1.23334         110.903         18.5457         119.639 
        1.23949         109.973         18.3247         118.819 
        1.24562         109.384         18.1079         117.834 
        1.25174          108.96         17.8949         117.285 
        1.25789         108.246         17.6847           116.6 
        1.26402         106.871         17.4783         116.307 
        1.27014         106.459         17.2757         115.788 
        1.27628          106.06         17.0757         115.479 
        1.28244         105.757         16.8785         114.589 
        1.28858         104.899         16.6846         114.017 
        1.29471         104.066         16.4943         113.454 
        1.30084          103.81          16.307         112.638 
        1.30697         102.587         16.1224         112.089 
        1.31312         102.139         15.9404         111.432 
        1.31925         101.482         15.7618         111.106 
        1.32537         101.192         15.5861         110.713 
        1.33151         100.523         15.4124         110.058 
        1.33765         99.7295         15.2415         109.555 
        1.34378         99.2531         15.0736         109.062 
        1.34992         98.8404          14.908         108.408 
        1.35606         98.4519         14.7446         107.789 
         1.3622         97.4221         14.5839         107.439 
        1.36833         96.9154          14.426         106.721 
        1.37445         96.5818         14.2705         106.255 
        1.38059         95.7481         14.1169         105.553 
        1.38675         95.2041         13.9651         105.059 
        1.39288         94.8289         13.8162         104.558 
        1.39901         94.3869         13.6695         104.212 
        1.40515         93.5235         13.5246         103.818 
         1.4113         93.3385         13.3819         103.365 
        1.41742         92.4755         13.2418         102.846 
        1.42355         92.1799         13.1034         102.201 
         1.4297         91.4984         12.9666          101.86 
        1.43585         90.9171         12.8318          101.22 
        1.44198         90.6574         12.6995         101.052 
        1.44809         90.2445         12.5692         100.404 
        1.45423         89.7686         12.4403         99.7774 
        1.46036         88.9781         12.3135          99.385 
        1.46649         88.5226         12.1883         99.0874 
        1.47263         87.8308         12.0649         98.6715 
        1.47877         87.2782         11.9431          97.997 
        1.48491         86.8568         11.8229         97.5409 
        1.49104         86.5695         11.7046         97.3484 
        1.49718         86.0126         11.5878         96.6696 
        1.50333          85.463         11.4724         96.1367 
        1.50947         84.9383         11.3589         95.8174 
         1.5156         84.6404          11.247          95.442 
        1.52172         84.2757         11.1366         94.9724 
        1.52787         83.5521         11.0275          94.519 
          1.534         83.2032           10.92         94.1493 
        1.54013         82.8062         10.8141         93.7943 
        1.54627         82.3301         10.7094         93.3858 
        1.55241         81.9663          10.606         92.9059 
        1.55855         81.3969         10.5041         92.4033 
        1.56467         80.9197         10.4039         92.0977 
         1.5708         80.2911         10.3046         91.6864 
        1.57695         80.2485         10.2066         91.2383 
        1.58308         79.8519           10.11           90.93 
        1.58922         79.3179         10.0146         90.5384 
        1.59535         78.7841         9.92046          90.151 
         1.6015          78.669         9.82741          89.718 
        1.60764         78.0084          9.7356         89.3278 
        1.61376         77.6077         9.64521         89.0617 
        1.61989          77.184          9.5559         88.6795 
        1.62604          76.731         9.46751         88.0245 
        1.63218         76.5302         9.38031         87.5991 
        1.63831         75.9629          9.2944         87.4692 
        1.64444         75.4884         9.20953         87.0663 
        1.65059         74.9277         9.12552         86.6642 
        1.65673          74.681         9.04266         86.2415 
        1.66285         74.4273         8.96105         85.8992 
        1.66898         73.9604         8.88042         85.6402 
        1.67512         73.2562         8.80063         85.2156 
        1.68127         73.1232         8.72175         84.9059 
         1.6874         72.6746         8.64401         84.6091 
        1.69353         72.3236         8.56727          84.112 
        1.69967         72.1104         8.49127         83.8114 
        1.70581         71.4721         8.41623         83.4926 
        1.71193         71.0223         8.34238         83.0885 
        1.71806         70.8733         8.26926         82.7754 
        1.72421         70.4372         8.19686         82.4659 
        1.73035         70.1004         8.12542         82.1222 
        1.73649         69.7934         8.05484         81.7344 
        1.74262         69.3047         7.98516         81.3111 
        1.74876         68.9713         7.91626         81.0003 
        1.75489         68.5535         7.84831           80.73 
        1.76101         68.1753         7.78117         80.4097 
        1.76715         67.8167         7.71474         80.0852 
        1.77329         67.4871         7.64899         79.7153 
        1.77943         67.0915         7.58399         79.3745 
        1.78557         66.9266         7.51983         79.1165 
        1.79171         66.3242         7.45641         78.7824 
        1.79785         65.9483         7.39371         78.4055 
        1.80399         65.6916         7.33174          78.091 
        1.81012         65.3641         7.27056         77.7873 
        1.81625         65.0498         7.21011         77.4666 
        1.82239         64.6059         7.15026         77.1544 
        1.82853           64.37         7.09112         76.8653 
        1.83466         64.0951          7.0327         76.5272 
        1.84078         63.6961           6.975         76.2096 
        1.84692         63.3388         6.91785         76.0266 
        1.85306         63.0263         6.86128         75.6544 
         1.8592         62.8037         6.80542         75.2227 
        1.86533         62.3674         6.75022         75.0131 
        1.87147         61.9679         6.69557         74.7426 
