# k  (h/Mpc)    P(k)  (Mpc/h)^3    P_linear(k)  (Mpc/h)^3     P_NL(k)  ShotnoiseSubtracted = false
     0.00783031         13968.5         14169.2         14036.3 
       0.013688           15923         15780.7         15665.6 
       0.019231         14635.7         14568.6         14468.9 
      0.0249154         12083.2         12264.8           12199 
      0.0312784         9593.65          9622.4         9596.53 
      0.0375637         7644.98         7575.86         7569.08 
      0.0433917         6279.96         6304.75         6296.18 
      0.0492413          5548.9         5526.88         5521.44 
      0.0555754          4958.7         5034.15         5027.73 
      0.0619321         4736.42         4678.25         4670.04 
       0.067871         4271.54         4320.39         4316.56 
      0.0738098         3843.41         3879.32         3857.83 
      0.0800417         3311.06         3352.19         3352.55 
      0.0862327         2849.78         2838.54         2877.44 
      0.0921407         2491.81         2425.18         2475.08 
      0.0982031         2162.98         2113.99         2191.04 
       0.104506         2009.66         1909.42         2000.97 
       0.110769         1874.94         1794.96         1860.27 
       0.116806         1788.26         1726.36          1777.3 
       0.122832         1718.74         1659.33         1706.41 
       0.129052         1590.29         1564.33         1605.81 
       0.135211         1474.19         1437.93         1485.88 
       0.141259         1365.64         1294.86         1360.54 
       0.147318         1243.79         1153.48         1242.73 
       0.153489         1114.66         1030.45         1111.08 
       0.159709         1036.59         937.984         1028.85 
       0.165845         986.355         877.428         981.397 
       0.171974         936.781         839.414          931.24 
       0.178125         900.118         812.185         907.335 
       0.184229         865.243          784.83         870.006 
        0.19034         808.764         749.777         828.911 
       0.196428         782.795         705.472         780.453 
       0.202534          745.57         654.865         737.297 
       0.208729         694.883         603.213         685.817 
       0.214876         652.299         557.372         655.867 
       0.220989         622.171         520.501         623.822 
       0.227147         592.627         492.653         595.861 
        0.23329         568.191         472.281         577.673 
       0.239377         554.818         456.228         555.801 
       0.245482         517.708         440.949         531.699 
       0.251667         511.668         423.909         517.589 
       0.257832         490.461         404.475         494.352 
       0.263955         470.387         383.319         472.809 
       0.270079         448.592         361.835         453.474 
        0.27624         439.319          341.57         432.721 
       0.282372         421.409         323.917         418.074 
        0.28843         408.177         309.376         404.323 
       0.294538          387.22         297.263         391.548 
       0.300721         383.277         286.812         380.582 
        0.30691         365.501         277.136         371.772 
       0.313033         356.957         267.565         358.171 
       0.319153         344.071         257.549         346.951 
       0.325316         334.325         247.063         336.976 
        0.33145          322.26         236.527         323.233 
       0.337538         315.961         226.451         313.131 
       0.343633         304.985         217.105         307.408 
       0.349808         293.592         208.623         299.785 
       0.355968          289.55         201.118         292.819 
       0.362074         283.587         194.441         284.842 
       0.368217         275.125          188.22         275.533 
       0.374374         263.103         182.203         268.567 
       0.380519         260.374         176.263         261.111 
       0.386598         253.054          170.38         257.113 
       0.392688         249.511          164.53         248.735 
        0.39888         242.712         158.746         242.863 
       0.405048         236.048         153.254         238.204 
       0.411186         231.263         148.138         231.266 
       0.417313         226.354         143.414         225.531 
       0.423458         220.897         139.007          221.24 
       0.429607         216.635         134.865          216.77 
       0.435692         210.228         130.959         211.039 
       0.441815         207.866         127.147         208.368 
       0.447964         202.921           123.4          204.04 
       0.454126         196.052         119.732         197.801 
       0.460267         192.803         116.178         195.921 
       0.466387         190.293         112.759         191.678 
        0.47254         185.514         109.471         187.769 
       0.478662         184.884         106.369         183.934 
       0.484765         178.043         103.434          179.49 
       0.490885         175.508          100.63         176.706 
       0.497035         172.386         97.9321         173.984 
       0.503198         168.497         95.3308         170.993 
       0.509342          166.55         92.8211         168.255 
       0.515458         163.845         90.3917         165.911 
       0.521598          160.02         88.0218         162.194 
       0.527764          158.04         85.7192         159.938 
       0.533884         155.707         83.5168         157.472 
           0.54         152.944         81.4009         154.319 
       0.546137          151.48         79.3588         152.413 
       0.552299         148.304         77.3863         149.236 
       0.558452         146.736         75.4914         146.818 
       0.564573         144.342         73.6735         145.374 
       0.570708         141.054         71.9124         143.396 
       0.576825         139.061         70.2113         140.303 
       0.582926         136.614          68.564         138.495 
       0.589034         135.001         66.9631          137.01 
       0.595184         133.223          65.401         134.094 
       0.601379         131.134         63.8789         132.701 
       0.607522          128.86         62.4203         130.303 
       0.613639         127.542         61.0166          129.34 
       0.619772         124.976         59.6551         127.634 
       0.625918         123.658         58.3336         125.421 
       0.632068         121.814         57.0516         123.521 
       0.638161         120.761         55.8188          122.67 
         0.6443         119.002         54.6128         120.896 
       0.650464         117.666         53.4376         118.297 
       0.656582         115.638         52.3054         117.399 
       0.662703         114.793         51.2058         115.743 
       0.668861         112.732         50.1321         114.578 
       0.675024         110.999          49.089         113.054 
       0.681124         110.218         48.0865         111.482 
       0.687237          108.39         47.1104         110.131 
       0.693381         106.651          46.157         108.573 
       0.699536         105.867         45.2285         107.469 
       0.705665         105.102         44.3296         106.556 
       0.711789         103.172         43.4559         105.196 
       0.717957         102.872         42.5999         103.988 
        0.72409         101.079         41.7717         103.117 
       0.730186          99.539         40.9707         101.991 
       0.736317         98.6939         40.1865          100.52 
       0.742472         97.8222         39.4202         99.4933 
       0.748622         96.7695         38.6747          98.282 
        0.75476         95.7011         37.9503         97.3245 
       0.760888         94.4982         37.2457         95.8768 
       0.767043         93.9765         36.5564         95.2546 
       0.773185         92.9323          35.886          94.534 
       0.779291         91.2201         35.2364         93.3029 
       0.785407          90.799         34.6021         92.1364 
       0.791564         90.0569         33.9794         91.4196 
       0.797719         88.1311         33.3725         90.8162 
       0.803834         87.7315         32.7842          89.632 
       0.809972         86.8024         32.2081           88.77 
       0.816124          86.217         31.6446         88.0412 
       0.822261         85.3921         31.0962         87.1248 
       0.828378         84.6728         30.5625         86.0194 
       0.834502         84.1447         30.0409          85.203 
       0.840667          82.759         29.5282         84.7125 
       0.846816         81.8151          29.029         83.9435 
       0.852925         81.2605         28.5444         83.1966 
       0.859047         80.2701           28.07         82.3799 
       0.865192         79.5586         27.6048         81.5441 
       0.871341         78.8695           27.15         80.7259 
       0.877463         77.8214         26.7074          80.132 
       0.883569         77.6881         26.2759         79.7035 
       0.889708         76.8184         25.8518         78.8197 
       0.895864         76.0194          25.436         78.3155 
       0.902008         75.4351         25.0303         77.4395 
       0.908149         74.9374         24.6336         76.8074 
       0.914301         74.0656          24.245         76.1467 
       0.920448         73.5188         23.8651         75.6347 
       0.926574         72.8073         23.4948         74.8846 
       0.932687         72.7314         23.1331         74.3917 
       0.938823         71.5283         22.7777         73.6384 
       0.944975         70.7763         22.4291         73.0291 
       0.951105         70.3039          22.089         72.4197 
       0.957225         69.6952         21.7566         71.9208 
       0.963368            68.9         21.4299         71.2613 
       0.969511         68.7747           21.11         70.6786 
       0.975621         68.2672         20.7983         70.5531 
       0.981748         67.7139         20.4922         69.9673 
       0.987916          66.963         20.1903         69.3925 
        0.99406         66.4625         19.8957         68.6914 
        1.00019         66.1273         19.6075         68.0877 
        1.00632         65.3954         19.3254         67.6123 
        1.01246         65.0958         19.0484         66.9815 
        1.01859         64.3059         18.7772          66.777 
        1.02471          63.792         18.5118          66.449 
        1.03085         63.2632         18.2505         65.8394 
        1.03698          63.001         17.9949         65.3394 
        1.04314         62.3894         17.7431          64.801 
        1.04929         61.9848         17.4967         64.5058 
        1.05541          61.299          17.256         64.1638 
        1.06154         61.1731         17.0193         63.6454 
        1.06769         60.7378         16.7866         63.2208 
        1.07382         60.2814         16.5591         62.8218 
        1.07993         59.8905         16.3363         62.3839 
        1.08607         59.3407         16.1167         61.9236 
        1.09222         59.1874         15.9009         61.5036 
        1.09836         58.5463         15.6894         61.0208 
        1.10449           58.23         15.4819          60.717 
        1.11063         57.6859          15.278          60.092 
        1.11677         57.3461         15.0778         59.7258 
         1.1229         56.8236         14.8815         59.5408 
        1.12903         56.3196         14.6886         59.0331 
        1.13518         56.2876          14.499         58.6572 
        1.14131         55.8985         14.3128         58.2229 
        1.14745         55.4111           14.13         57.9625 
        1.15359         55.0575         13.9503         57.5708 
        1.15973         54.6331         13.7737         57.3676 
        1.16584          54.204          13.601         56.7325 
        1.17197         53.8683          13.431         56.6262 
        1.17811         53.6131         13.2634         56.1797 
        1.18424         53.1372         13.0992         55.8735 
        1.19038         52.9018         12.9372         55.5202 
        1.19652         52.5723         12.7781         55.1476 
        1.20267         51.9391         12.6216         54.8741 
        1.20881         51.8002         12.4678         54.4716 
        1.21495         51.3423         12.3169         54.1693 
        1.22108         51.2587         12.1684         53.9083 
         1.2272         50.5636         12.0228         53.5595 
        1.23334         50.3391         11.8792         53.3634 
        1.23949         50.1784         11.7376         52.8883 
        1.24562         49.6915         11.5987         52.5127 
        1.25174         49.4893         11.4623         52.3057 
        1.25789         49.2743         11.3277         51.9916 
        1.26402         48.8118         11.1955         51.7864 
        1.27014         48.5241         11.0657         51.5709 
        1.27628         48.2095         10.9376         51.2248 
        1.28244         47.8979         10.8112         50.8206 
        1.28858         47.7383         10.6871         50.5355 
        1.29471         47.4945         10.5651         50.3245 
        1.30084         47.1752         10.4452         49.9175 
        1.30697         46.8035          10.327         49.7583 
        1.31312         46.5042         10.2104         49.5582 
        1.31925          46.235          10.096         49.2032 
        1.32537         45.9908         9.98344         49.0164 
        1.33151         45.5966         9.87221         48.6998 
        1.33765         45.4421         9.76274         48.4401 
        1.34378          45.156         9.65515         48.2193 
        1.34992          44.872          9.5491         47.9001 
        1.35606         44.6167         9.44442         47.6679 
         1.3622         44.2568          9.3415         47.4607 
        1.36833         44.1108         9.24036         47.1944 
        1.37445         43.7945         9.14078         46.9957 
        1.38059         43.4758         9.04235         46.7125 
        1.38675         43.2567         8.94515         46.4413 
        1.39288         43.0177         8.84976         46.1807 
        1.39901          42.821         8.75581         45.9973 
        1.40515         42.4913         8.66301         45.8787 
         1.4113         42.2974         8.57159         45.6602 
        1.41742         42.2054         8.48184         45.2875 
        1.42355         41.8396         8.39321         45.0724 
         1.4297         41.6989         8.30559         44.8831 
        1.43585         41.4466         8.21924         44.6095 
        1.44198         41.0849         8.13446         44.4447 
        1.44809         40.9607         8.05103         44.1902 
        1.45423         40.7343         7.96847         43.9617 
        1.46036          40.505         7.88721         43.7725 
        1.46649         40.2925         7.80706         43.6201 
        1.47263         40.0188         7.72796         43.4267 
        1.47877         39.7482            7.65         43.0945 
        1.48491         39.7017         7.57299          42.934 
        1.49104         39.4086          7.4972         42.7933 
        1.49718         39.0666         7.42239         42.5621 
        1.50333         39.0485         7.34849          42.334 
        1.50947         38.7698         7.27574         42.1414 
         1.5156         38.5497         7.20409         41.9428 
        1.52172         38.3746         7.13341         41.7323 
        1.52787         38.2629         7.06353         41.5828 
          1.534         37.9101         6.99467         41.3961 
        1.54013         37.7093         6.92681           41.17 
        1.54627         37.6318         6.85972         40.9664 
        1.55241         37.2291          6.7935          40.785 
        1.55855         37.1154         6.72826         40.6181 
        1.56467         36.8492         6.66404         40.4645 
         1.5708         36.8328         6.60049         40.2694 
        1.57695         36.6473         6.53767         40.1043 
        1.58308         36.3859          6.4758         39.9415 
        1.58922         36.1593          6.4147         39.7166 
        1.59535         36.0819          6.3544         39.5612 
         1.6015         35.7654          6.2948         39.3462 
        1.60764         35.5918         6.23599         39.1634 
        1.61376         35.4295         6.17809         39.0868 
        1.61989         35.2321         6.12089         38.8871 
        1.62604         35.0373         6.06427         38.6606 
        1.63218         35.0366         6.00841         38.4872 
        1.63831         34.6771         5.95339         38.3627 
        1.64444         34.5547         5.89903         38.2029 
        1.65059         34.4817         5.84522         38.0054 
        1.65673         34.1917         5.79214         37.8316 
        1.66285         33.9568         5.73987         37.7039 
        1.66898         33.8963         5.68822         37.5782 
        1.67512          33.613         5.63712         37.3776 
        1.68127         33.4855         5.58659          37.184 
         1.6874         33.3128         5.53679         37.0447 
        1.69353          33.137         5.48764         36.9305 
        1.69967          33.022         5.43896         36.7673 
        1.70581         32.9205         5.39089         36.6192 
        1.71193         32.7276         5.34359          36.485 
        1.71806         32.4249         5.29675         36.3042 
        1.72421         32.3735         5.25038         36.1538 
        1.73035         32.2032         5.20462         36.0154 
        1.73649          31.952         5.15941         35.8619 
        1.74262         31.8254         5.11478         35.7066 
        1.74876         31.6667         5.07064         35.5548 
        1.75489         31.5683         5.02712         35.4133 
        1.76101         31.4214         4.98412         35.2726 
        1.76715          31.229         4.94156         35.1068 
        1.77329           31.06         4.89945          34.976 
        1.77943         30.9145         4.85781         34.8575 
        1.78557         30.7452         4.81672         34.7041 
        1.79171         30.6412         4.77609         34.5545 
        1.79785         30.4609         4.73593         34.4228 
        1.80399         30.4229         4.69624         34.2961 
        1.81012         30.1436         4.65705         34.1531 
        1.81625         30.0215         4.61833         34.0014 
        1.82239         29.8969         4.57999         33.8782 
        1.82853         29.7538         4.54211         33.7918 
        1.83466         29.5144         4.50469         33.6383 
        1.84078          29.357         4.46773         33.4538 
        1.84692         29.2971         4.43113         33.3679 
        1.85306         29.1134         4.39489         33.2538 
         1.8592         28.9581         4.35911         33.0955 
        1.86533         28.8303         4.32375         32.9729 
        1.87147         28.7299         4.28875         32.8381 
        1.87761         28.5946         4.25411            32.7 
