# k  (h/Mpc)    Pcb(k)  (Mpc/h)^3    Pcb_linear(k) (Mpc/h)^3    Pcb_NL(k) (Mpc/h)^3   ShotnoiseSubtracted = false
     0.00783031          5908.8         5983.33          5928.5 
       0.013688         6693.37         6666.28         6622.47 
       0.019231          6173.9         6155.18         6119.27 
      0.0249154         5136.24         5182.26         5162.62 
      0.0312784         4066.31         4065.99         4064.79 
      0.0375637          3225.1         3201.33         3204.15 
      0.0433917         2662.05         2664.25         2666.83 
      0.0492413         2343.75         2335.57         2338.39 
      0.0555754         2109.94         2127.38          2127.6 
      0.0619321         1995.38         1976.99         1975.78 
       0.067871         1814.94         1825.78         1824.49 
      0.0738098         1630.39         1639.39         1635.16 
      0.0800417         1405.38         1416.63          1417.1 
      0.0862327         1201.53         1199.57         1207.81 
      0.0921407         1038.92         1024.89         1035.56 
      0.0982031         901.214          893.38         909.195 
       0.104506         828.969         806.931         825.231 
       0.110769         775.273         758.561         771.363 
       0.116806         739.262          729.57         739.253 
       0.122832         713.065         701.244         710.156 
       0.129052         664.146         661.095         668.759 
       0.135211         612.836          607.68         616.901 
       0.141259         560.679         547.218         559.823 
       0.147318          505.67         487.471         505.164 
       0.153489         451.655         435.476         451.158 
       0.159709         415.631         396.399         413.969 
       0.165845         393.299         370.809         391.207 
       0.171974         372.195         354.744         372.233 
       0.178125         359.887         343.236         361.458 
       0.184229         347.551         331.676         348.146 
        0.19034         325.556         316.863         331.985 
       0.196428         312.366         298.138          311.82 
       0.202534         295.659         276.752         292.023 
       0.208729         272.824         254.924          270.83 
       0.214876         252.854          235.55          254.98 
       0.220989         239.857         219.969         240.212 
       0.227147         226.281           208.2         227.959 
        0.23329         216.962         199.591         219.898 
       0.239377         210.976         192.806          212.12 
       0.245482         199.042          186.35         203.357 
       0.251667         194.872         179.149         197.009 
       0.257832         186.975         170.935          187.99 
       0.263955         177.936         161.994          178.83 
       0.270079         169.054         152.915         170.187 
        0.27624         163.312         144.351         161.372 
       0.282372          156.18         136.892         154.788 
        0.28843         149.185         130.745         148.704 
       0.294538         142.552         125.626         143.445 
       0.300721         139.787          121.21         139.162 
        0.30691         133.518         117.121         134.988 
       0.313033          129.43         113.075          130.01 
       0.319153         123.331         108.843          125.62 
       0.325316         120.633         104.412         121.479 
        0.33145         115.284         99.9589         116.412 
       0.337538         112.275         95.7005         111.927 
       0.343633         107.756         91.7512          108.52 
       0.349808         104.037         88.1665         105.305 
       0.355968         101.511         84.9948         102.532 
       0.362074         98.2903         82.1727          99.178 
       0.368217         95.0591         79.5436          95.696 
       0.374374          92.025          77.001         93.0896 
       0.380519         89.8404         74.4908         90.1663 
       0.386598         87.1358         72.0046         87.7959 
       0.392688         85.1559         69.5322         85.2246 
        0.39888         82.5873         67.0878         82.5694 
       0.405048         80.1557         64.7669         80.2809 
       0.411186          78.047         62.6051         78.2609 
       0.417313         75.7802         60.6082         75.7838 
       0.423458         73.7258         58.7458         73.9823 
       0.429607         71.7634         56.9953          72.071 
       0.435692         69.3029         55.3447         70.2543 
       0.441815         68.3633         53.7337         68.8818 
       0.447964         66.8981         52.1503         66.9207 
       0.454126         63.7787         50.6003         64.9185 
       0.460267         62.8714         49.0984         63.8332 
       0.466387         61.4083         47.6531         62.0285 
        0.47254         60.0231         46.2638         60.6842 
       0.478662         59.1247         44.9525           59.29 
       0.484765         57.2163         43.7126         57.5782 
       0.490885         55.9847         42.5275         56.6432 
       0.497035         55.1174         41.3872         55.5895 
       0.503198         53.4437         40.2879         54.1663 
       0.509342          52.163         39.2273         53.1347 
       0.515458         51.0841         38.2006         52.2829 
       0.521598         50.1895          37.199         50.7136 
       0.527764          49.204         36.2259         49.4318 
       0.533884         48.3646         35.2952         48.5425 
           0.54         47.0986          34.401         47.5995 
       0.546137         46.4464         33.5379         46.8058 
       0.552299         45.6323         32.7044         45.5639 
       0.558452         44.3324         31.9035         44.6105 
       0.564573         43.4932         31.1353          44.008 
       0.570708         42.7625          30.391         43.1883 
       0.576825         41.9488         29.6721         42.2946 
       0.582926         40.9528          28.976         41.4875 
       0.589034         39.9755         28.2994         40.9367 
       0.595184         39.4008         27.6392         40.0118 
       0.601379         38.6561          26.996         39.4397 
       0.607522         37.7507         26.3795         38.4561 
       0.613639         37.4682         25.7863         37.9055 
       0.619772         36.5735         25.2109         37.2424 
       0.625918         36.1071         24.6525         36.6941 
       0.632068         35.5957         24.1107         35.9761 
       0.638161         34.9309         23.5897         35.3994 
         0.6443         34.3111           23.08          34.715 
       0.650464         33.6939         22.5834         34.1069 
       0.656582         33.2883         22.1049         33.6578 
       0.662703         32.5829         21.6402         32.9959 
       0.668861         32.0625         21.1864         32.5967 
       0.675024         31.5186         20.7456          31.924 
       0.681124         30.9725         20.3219         31.4307 
       0.687237         30.3393         19.9094          30.938 
       0.693381         30.0551         19.5065         30.3877 
       0.699536          29.421         19.1141         30.1067 
       0.705665         29.3936         18.7342         29.6866 
       0.711789         28.5584          18.365         29.0091 
       0.717957         28.1787         18.0032         28.7192 
        0.72409         27.7819         17.6532         28.3453 
       0.730186          27.302         17.3147         27.9027 
       0.736317         27.0875         16.9833         27.4425 
       0.742472         26.5985         16.6594         27.0814 
       0.748622         26.2696         16.3444         26.6599 
        0.75476         25.8701         16.0382         26.3094 
       0.760888         25.4147         15.7405         25.9481 
       0.767043         25.0707         15.4492         25.6679 
       0.773185         24.6806         15.1659         25.2995 
       0.779291         24.5128         14.8913         24.9819 
       0.785407         24.2815         14.6233         24.5709 
       0.791564         23.8291         14.3601         24.2542 
       0.797719         23.2655         14.1036         24.0314 
       0.803834         23.1901          13.855         23.6325 
       0.809972         22.8127         13.6115         23.3272 
       0.816124         22.4381         13.3734         23.0458 
       0.822261         22.1857         13.1416         22.7199 
       0.828378          22.039         12.9161          22.376 
       0.834502         21.7331         12.6957         22.1913 
       0.840667         21.4341          12.479         21.9168 
       0.846816         21.0439          12.268         21.6421 
       0.852925         20.8575         12.0632          21.444 
       0.859047         20.5753         11.8627         21.1308 
       0.865192         20.3264         11.6661         20.8682 
       0.871341         20.1951         11.4739         20.6512 
       0.877463         19.7947         11.2869         20.4095 
       0.883569         19.5601         11.1045         20.1919 
       0.889708         19.3314         10.9253         19.9379 
       0.895864         19.0978         10.7496         19.6735 
       0.902008         18.9136         10.5781         19.4668 
       0.908149         18.7052         10.4105         19.3052 
       0.914301         18.6068         10.2462         19.1443 
       0.920448         18.3038         10.0857         18.8417 
       0.926574         18.0782         9.92917          18.616 
       0.932687         17.8639         9.77632         18.4163 
       0.938823         17.6066         9.62615         18.1828 
       0.944975         17.4679          9.4788         18.0189 
       0.951105         17.2587         9.33508         17.8082 
       0.957225         17.0337          9.1946          17.631 
       0.963368         16.9952         9.05655         17.4314 
       0.969511         16.7568         8.92134         17.2327 
       0.975621         16.6308         8.78963         17.0978 
       0.981748         16.3522         8.66025         16.9262 
       0.987916          16.203         8.53267         16.7409 
        0.99406         16.0603         8.40816         16.5576 
        1.00019         15.8437         8.28638         16.3909 
        1.00632         15.7231         8.16713          16.244 
        1.01246          15.639         8.05006          16.097 
        1.01859          15.344         7.93549         15.9629 
        1.02471         15.2633         7.82329         15.7834 
        1.03085         15.1355         7.71289         15.6072 
        1.03698         14.8571         7.60485         15.4569 
        1.04314          14.775         7.49844         15.2913 
        1.04929         14.5983         7.39432         15.1938 
        1.05541         14.4228          7.2926         15.0973 
        1.06154         14.3533         7.19255         14.8909 
        1.06769         14.2228         7.09423         14.7258 
        1.07382         14.0813         6.99808         14.6212 
        1.07993         13.9588         6.90393         14.4779 
        1.08607         13.7672         6.81112          14.363 
        1.09222         13.6864         6.71993         14.2589 
        1.09836          13.528         6.63052         14.1114 
        1.10449         13.4178         6.54284         13.9686 
        1.11063         13.2176         6.45665         13.8437 
        1.11677         13.1662         6.37205         13.7055 
         1.1229         13.0797         6.28911         13.6154 
        1.12903         12.9156         6.20758         13.4955 
        1.13518         12.7829         6.12743         13.3646 
        1.14131         12.7238         6.04875         13.2479 
        1.14745         12.5671         5.97149         13.1557 
        1.15359         12.5172         5.89558         13.0065 
        1.15973         12.3412         5.82095         12.9273 
        1.16584         12.1983         5.74796         12.8153 
        1.17197          12.185         5.67611         12.7504 
        1.17811         12.0139         5.60528         12.5717 
        1.18424         11.9184         5.53586         12.4896 
        1.19038         11.8536         5.46743         12.4243 
        1.19652          11.763         5.40017         12.2814 
        1.20267         11.6549         5.33406         12.2039 
        1.20881         11.5352         5.26906         12.1052 
        1.21495         11.4554         5.20526         12.0167 
        1.22108         11.3445         5.14252         11.9154 
         1.2272         11.2274         5.08097         11.8323 
        1.23334         11.1808         5.02028         11.7413 
        1.23949         11.0586         4.96045          11.622 
        1.24562         10.9848         4.90176          11.543 
        1.25174         10.9118         4.84411         11.4629 
        1.25789         10.7973         4.78722         11.3751 
        1.26402         10.7551         4.73134         11.2688 
        1.27014         10.6123         4.67649         11.1953 
        1.27628         10.5347         4.62235         11.0953 
        1.28244         10.4657         4.56896         11.0479 
        1.28858         10.4161         4.51649         10.9532 
        1.29471         10.3193         4.46496         10.8737 
        1.30084         10.2281         4.41428          10.822 
        1.30697          10.146         4.36431         10.7176 
        1.31312         10.0317         4.31504         10.6379 
        1.31925           9.964         4.26669         10.5755 
        1.32537         9.91922         4.21913         10.5073 
        1.33151          9.8362         4.17212         10.4307 
        1.33765         9.77566         4.12585         10.3432 
        1.34378         9.69144         4.08038          10.276 
        1.34992         9.58415         4.03557         10.2172 
        1.35606         9.56479         3.99133         10.1286 
         1.3622         9.49457         3.94783         10.0574 
        1.36833         9.38331         3.90509         10.0126 
        1.37445         9.36134           3.863          9.9275 
        1.38059         9.25984         3.82141         9.85277 
        1.38675         9.15236         3.78033          9.8057 
        1.39288         9.13123         3.74002         9.72284 
        1.39901         9.06061         3.70031         9.65913 
        1.40515         9.01475         3.66109         9.59213 
         1.4113         8.92851         3.62246         9.52793 
        1.41742         8.84804         3.58453         9.48325 
        1.42355         8.80693         3.54708         9.42571 
         1.4297         8.77507         3.51004          9.3435 
        1.43585         8.70681         3.47355         9.29729 
        1.44198         8.63524         3.43772         9.24018 
        1.44809         8.56118         3.40246         9.18492 
        1.45423          8.5095         3.36757         9.10608 
        1.46036         8.45604         3.33323         9.04748 
        1.46649          8.4116         3.29936         9.00972 
        1.47263          8.3246         3.26593         8.96709 
        1.47877         8.28292         3.23298           8.897 
        1.48491         8.25737         3.20044          8.8305 
        1.49104          8.1978         3.16841         8.77616 
        1.49718         8.12217         3.13679         8.73653 
        1.50333         8.07475         3.10556         8.68269 
        1.50947         8.02097         3.07482         8.63158 
         1.5156         7.96624         3.04454          8.5829 
        1.52172         7.91586         3.01467         8.52383 
        1.52787          7.8726         2.98514          8.4655 
          1.534         7.81019         2.95604         8.41665 
        1.54013         7.74357         2.92735         8.36107 
        1.54627         7.69519           2.899         8.30462 
        1.55241         7.65073         2.87102         8.25846 
        1.55855         7.60074         2.84344         8.21795 
        1.56467         7.55163         2.81631         8.17906 
         1.5708          7.5412         2.78945         8.13101 
        1.57695         7.45851          2.7629         8.07951 
        1.58308         7.43287         2.73675         8.03927 
        1.58922         7.39096         2.71093         8.00059 
        1.59535         7.32685         2.68545         7.94844 
         1.6015          7.2778         2.66026         7.90161 
        1.60764         7.24671         2.63541         7.85491 
        1.61376         7.18706         2.61094         7.80801 
        1.61989         7.14021         2.58676         7.78106 
        1.62604         7.12541         2.56284         7.73798 
        1.63218         7.07201         2.53923         7.69327 
        1.63831         7.03282         2.51597         7.66039 
        1.64444         6.96754           2.493         7.61738 
        1.65059         6.93123         2.47026         7.56477 
        1.65673         6.90501         2.44783         7.52495 
        1.66285          6.8426         2.42574         7.48896 
        1.66898         6.83127         2.40391         7.44174 
        1.67512         6.78914         2.38232          7.3979 
        1.68127         6.75536         2.36096         7.36546 
         1.6874         6.69671         2.33992         7.32782 
        1.69353         6.63926         2.31914          7.2739 
        1.69967         6.62123         2.29857         7.24351 
        1.70581         6.59325         2.27826         7.21161 
        1.71193         6.54575         2.25827         7.17482 
        1.71806         6.50453         2.23847         7.15262 
        1.72421         6.47061         2.21888         7.11286 
        1.73035          6.4254         2.19954         7.07652 
        1.73649         6.40255         2.18043         7.04721 
        1.74262         6.38002         2.16157         6.99412 
        1.74876         6.33436         2.14292         6.95443 
        1.75489         6.29878         2.12452         6.92325 
        1.76101         6.24855         2.10635         6.88749 
        1.76715         6.22946         2.08836         6.86086 
        1.77329         6.17803         2.07057         6.82289 
        1.77943         6.15167         2.05297         6.78014 
        1.78557         6.12833         2.03561         6.74876 
        1.79171         6.09944         2.01844         6.71574 
        1.79785         6.04004         2.00146         6.68256 
        1.80399         6.02546         1.98469         6.65597 
        1.81012         6.00891         1.96813         6.62843 
        1.81625          5.9599         1.95176         6.60029 
        1.82239         5.92457         1.93556         6.57117 
        1.82853         5.88419         1.91955         6.53758 
        1.83466         5.84789         1.90374         6.50728 
        1.84078         5.82586         1.88812         6.47744 
        1.84692         5.80456         1.87265          6.4386 
        1.85306         5.75772         1.85734         6.40597 
         1.8592         5.73956         1.84222         6.38177 
        1.86533         5.71403         1.82727         6.35267 
        1.87147         5.67891         1.81248         6.31716 
