# k  (h/Mpc)    P(k)  (Mpc/h)^3    P_linear(k)  (Mpc/h)^3     P_NL(k)  ShotnoiseSubtracted = false
     0.00783031         24387.3         24799.2         24554.5 
       0.013688         27955.9         27612.4         27383.4 
       0.019231         25608.1         25488.5         25279.4 
      0.0249154         20990.9         21456.5         21297.1 
      0.0312784         16704.6         16833.1         16735.6 
      0.0375637         13377.2         13252.6         13210.2 
      0.0433917         10939.9         11028.8         10980.9 
      0.0492413         9699.92         9667.95         9630.25 
      0.0555754         8603.94         8805.94         8777.46 
      0.0619321         8285.82         8183.32         8155.17 
       0.067871         7415.93          7557.3         7545.12 
      0.0738098         6686.43         6785.74         6719.15 
      0.0800417         5761.49         5863.65         5859.58 
      0.0862327         4993.15         4965.16         5070.76 
      0.0921407         4417.53         4242.11         4378.84 
      0.0982031         3846.92         3697.77         3911.59 
       0.104506         3600.45         3339.94         3595.77 
       0.110769         3353.04         3139.72         3327.65 
       0.116806         3207.01         3019.72          3168.3 
       0.122832         3064.61         2902.47         3037.44 
       0.129052         2822.28         2736.28         2857.74 
       0.135211          2624.6         2515.19         2650.86 
       0.141259         2460.72         2264.94         2452.29 
       0.147318         2266.26         2017.64         2263.25 
       0.153489         2041.72         1802.43          2031.2 
       0.159709         1911.93         1640.69         1898.49 
       0.165845         1832.27         1534.77         1823.02 
       0.171974          1748.4         1468.28         1731.21 
       0.178125         1669.18         1420.65         1689.08 
       0.184229         1592.46          1372.8         1612.65 
        0.19034         1504.64         1311.49         1536.93 
       0.196428          1456.7         1233.99         1456.82 
       0.202534         1388.97         1145.47          1385.9 
       0.208729         1307.91         1055.12         1292.08 
       0.214876         1248.19         974.935          1246.9 
       0.220989         1195.22         910.441         1196.79 
       0.227147         1148.09         861.731         1153.23 
        0.23329          1100.3         826.097         1120.83 
       0.239377         1078.68         798.017         1077.95 
       0.245482         1009.61         771.292         1033.26 
       0.251667         1001.62         741.486         1007.09 
       0.257832         956.756         707.492         965.068 
       0.263955         921.247         670.487         928.195 
       0.270079         884.213         632.908         894.584 
        0.27624         870.027          597.46         859.276 
       0.282372         834.628         566.583         837.537 
        0.28843         822.938         541.148         816.846 
       0.294538         779.134          519.96         790.827 
       0.300721         772.283          501.68         768.243 
        0.30691         741.928         484.755         756.879 
       0.313033         725.228         468.015         730.252 
       0.319153         707.883         450.495         708.752 
       0.325316         686.374         432.153         691.661 
        0.33145         667.486         413.724         664.858 
       0.337538           652.3         396.099         648.973 
       0.343633         637.017         379.751         639.219 
       0.349808         612.101         364.916         626.658 
       0.355968         606.859         351.788          612.38 
       0.362074         599.801         340.108         600.134 
       0.368217         580.112         329.227         584.165 
       0.374374         556.203         318.702         570.853 
       0.380519         555.282         308.312         557.319 
       0.386598         537.615         298.022          550.97 
       0.392688         534.083         287.789         535.908 
        0.39888         517.793         277.672         524.215 
       0.405048          509.83         268.066         513.435 
       0.411186         502.156         259.117         502.472 
       0.417313         491.744         250.853          493.47 
       0.423458         479.462         243.144         484.746 
       0.429607         474.942           235.9         476.712 
       0.435692          461.96         229.067         463.755 
       0.441815         456.311         222.401         460.037 
       0.447964         446.751         215.846          453.57 
       0.454126         441.237         209.431         440.368 
       0.460267         430.131         203.214         437.441 
       0.466387         424.017         197.233         430.081 
        0.47254         420.425         191.482         422.281 
       0.478662         415.291         186.056         413.925 
       0.484765         400.796         180.923         407.823 
       0.490885         397.044         176.018         400.289 
       0.497035         388.968         171.299         395.557 
       0.503198         385.223         166.749         390.364 
       0.509342         382.765         162.359         383.779 
       0.515458         378.212         158.109         379.292 
       0.521598         366.777         153.964         373.871 
       0.527764         363.011         149.936         370.375 
       0.533884         358.798         146.084         365.231 
           0.54         354.171         142.383         359.035 
       0.546137         351.492         138.811         354.801 
       0.552299         345.854         135.361          349.64 
       0.558452         342.897         132.046         345.676 
       0.564573         338.711         128.867         342.666 
       0.570708         332.598         125.786         338.245 
       0.576825         325.953         122.811          332.21 
       0.582926         324.222         119.929         329.536 
       0.589034         320.118         117.129         325.147 
       0.595184         318.209         114.397         320.001 
       0.601379         311.143         111.734         316.449 
       0.607522         308.288         109.183          311.52 
       0.613639         305.479         106.728         310.806 
       0.619772          301.23         104.346         308.721 
       0.625918         299.104         102.035         303.264 
       0.632068         293.623         99.7923         300.632 
       0.638161         291.754         97.6358         298.317 
         0.6443         287.944         95.5264         294.276 
       0.650464         285.402         93.4708         289.156 
       0.656582         281.061         91.4903         287.316 
       0.662703         280.981          89.567          284.83 
       0.668861         277.171          87.689         283.155 
       0.675024         273.744         85.8644         280.254 
       0.681124         270.798         84.1109         276.083 
       0.687237         268.496         82.4034         273.209 
       0.693381         264.248         80.7359         270.488 
       0.699536          261.09         79.1118         268.669 
       0.705665         259.169         77.5394         264.705 
       0.711789         258.194         76.0112         263.431 
       0.717957         255.708         74.5139         262.082 
        0.72409         253.984         73.0653         258.576 
       0.730186         250.195         71.6643         255.734 
       0.736317         248.185         70.2926         254.117 
       0.742472         245.442         68.9521         251.912 
       0.748622         243.857         67.6481         249.027 
        0.75476         240.647          66.381         249.004 
       0.760888         238.188         65.1486         245.506 
       0.767043          237.44         63.9428         243.239 
       0.773185         235.456         62.7703         241.571 
       0.779291         231.916         61.6341         238.981 
       0.785407         231.189         60.5245          237.13 
       0.791564          228.83         59.4354         235.149 
       0.797719         226.323         58.3737          233.34 
       0.803834         223.699         57.3447         232.045 
       0.809972         223.065          56.337         229.915 
       0.816124         221.673         55.3514         227.758 
       0.822261         220.167         54.3922         226.825 
       0.828378         217.774         53.4586         224.548 
       0.834502         215.427         52.5463         222.844 
       0.840667         214.101         51.6495         220.805 
       0.846816         212.792         50.7762         219.486 
       0.852925         211.306         49.9287         217.959 
       0.859047         209.474         49.0988         216.198 
       0.865192         206.797         48.2852         214.197 
       0.871341         204.949         47.4895         212.691 
       0.877463         205.111         46.7155         211.572 
       0.883569         202.934         45.9607         211.262 
       0.889708         200.557         45.2189         208.577 
       0.895864           200.3         44.4916         207.559 
       0.902008         198.071         43.7818         205.423 
       0.908149         196.311         43.0881         203.962 
       0.914301         194.536         42.4083         202.326 
       0.920448         193.269         41.7439         201.319 
       0.926574         191.214          41.096         199.902 
       0.932687         191.233         40.4634         198.245 
       0.938823          188.64         39.8419          197.74 
       0.944975         188.267          39.232         195.983 
       0.951105         186.671         38.6372         194.897 
       0.957225          185.86         38.0557         193.257 
       0.963368         182.933         37.4843         192.045 
       0.969511         182.191         36.9247         190.841 
       0.975621         180.857         36.3796         189.817 
       0.981748         179.785         35.8441         188.974 
       0.987916         178.628          35.316         187.333 
        0.99406         177.423         34.8007         186.174 
        1.00019         175.966         34.2966         184.967 
        1.00632         175.134         33.8031         183.601 
        1.01246         173.546         33.3186         182.066 
        1.01859         173.204         32.8443         181.376 
        1.02471         170.888           32.38         180.299 
        1.03085         169.997          31.923         179.276 
        1.03698          168.73         31.4759         178.693 
        1.04314         167.509         31.0354         177.152 
        1.04929         166.983         30.6045         175.879 
        1.05541         165.722         30.1835          175.12 
        1.06154         164.191         29.7694         174.389 
        1.06769         163.805         29.3625         173.313 
        1.07382         162.388         28.9645         172.287 
        1.07993         161.206         28.5748         171.343 
        1.08607         160.947         28.1907         170.011 
        1.09222         159.272         27.8132         169.251 
        1.09836         158.021         27.4432         168.255 
        1.10449         156.854         27.0803         167.723 
        1.11063         155.776         26.7235         166.498 
        1.11677         154.933         26.3734         165.324 
         1.1229         153.374         26.0301         164.389 
        1.12903          152.92         25.6927         163.497 
        1.13518         152.096         25.3609         162.638 
        1.14131         150.682         25.0353         161.703 
        1.14745         150.689         24.7155         160.551 
        1.15359         148.887         24.4013         160.008 
        1.15973         147.818         24.0924         159.104 
        1.16584         147.312         23.7903         158.407 
        1.17197         147.014          23.493         157.688 
        1.17811         144.985         23.1998         156.584 
        1.18424         144.628         22.9125         155.568 
        1.19038         143.958         22.6292         155.314 
        1.19652         142.523         22.3509         153.959 
        1.20267         142.266         22.0772         153.587 
        1.20881         141.032         21.8082         152.614 
        1.21495         140.095         21.5441         151.801 
        1.22108          139.43         21.2845         150.965 
         1.2272         138.239         21.0297         150.268 
        1.23334         138.205         20.7785         149.652 
        1.23949         136.522         20.5309         148.737 
        1.24562         135.938          20.288         147.608 
        1.25174         135.274         20.0494         146.945 
        1.25789         134.648         19.8139         146.056 
        1.26402         133.021         19.5826         145.699 
        1.27014         132.555         19.3556         145.028 
        1.27628         131.671         19.1315         144.654 
        1.28244         131.429         18.9105         143.608 
        1.28858         130.244         18.6934         142.935 
        1.29471         129.579         18.4801         142.151 
        1.30084         128.622         18.2703          141.22 
        1.30697         127.521         18.0635         140.538 
        1.31312         126.817         17.8596         139.706 
        1.31925         126.053         17.6595         139.299 
        1.32537         125.877         17.4626         138.708 
        1.33151         124.883          17.268         137.924 
        1.33765         123.986         17.0766         137.292 
        1.34378         123.362         16.8884          136.71 
        1.34992         122.773         16.7029         135.962 
        1.35606          122.35         16.5198         135.144 
         1.3622         120.925         16.3397         134.764 
        1.36833         120.481         16.1628         133.981 
        1.37445         119.931         15.9886         133.247 
        1.38059          119.08         15.8165          132.59 
        1.38675         118.621         15.6465         131.856 
        1.39288         117.609         15.4796         131.329 
        1.39901         117.222         15.3153         130.836 
        1.40515         116.378          15.153         130.227 
         1.4113         115.945         14.9931         129.579 
        1.41742         114.765         14.8361         128.969 
        1.42355         114.559          14.681         128.292 
         1.4297         113.549         14.5278         127.773 
        1.43585          112.95         14.3767          127.19 
        1.44198         112.816         14.2284         126.832 
        1.44809         111.997         14.0825         126.012 
        1.45423         111.546         13.9381         125.318 
        1.46036         110.543          13.796         124.793 
        1.46649         109.962         13.6558         124.375 
        1.47263         109.216         13.5174         123.861 
        1.47877         108.458          13.381         122.995 
        1.48491         107.796         13.2463         122.441 
        1.49104         107.506         13.1138         122.199 
        1.49718         106.516         12.9829         121.449 
        1.50333         105.879         12.8537         120.713 
        1.50947         105.377         12.7264         120.273 
         1.5156         104.908         12.6011          119.87 
        1.52172         104.382         12.4774         119.337 
        1.52787         103.569         12.3552         118.768 
          1.534         103.205         12.2348         118.237 
        1.54013          102.73         12.1161         117.791 
        1.54627         102.101         11.9987         117.333 
        1.55241         101.487         11.8829          116.74 
        1.55855          100.84         11.7688         116.064 
        1.56467         100.075         11.6565         115.676 
         1.5708         99.5137         11.5453         115.166 
        1.57695         99.4711         11.4354         114.619 
        1.58308         98.8686         11.3272         114.249 
        1.58922         98.2012         11.2203         113.716 
        1.59535         97.5751         11.1148         113.179 
         1.6015          97.418         11.0106         112.697 
        1.60764         96.7523         10.9077         112.219 
        1.61376         96.0657         10.8064         111.773 
        1.61989         95.3826         10.7064         111.341 
        1.62604         94.9915         10.6074         110.608 
        1.63218         94.6367         10.5097         110.069 
        1.63831         94.1495         10.4134         109.848 
        1.64444          93.493         10.3183         109.374 
        1.65059         92.6977         10.2242         108.866 
        1.65673         92.5105         10.1314         108.328 
        1.66285         92.1505         10.0399         107.928 
        1.66898         91.4598         9.94959         107.644 
        1.67512          90.624         9.86019         107.071 
        1.68127         90.4396         9.77181         106.643 
         1.6874         90.0908         9.68471         106.278 
        1.69353         89.5987         9.59873         105.687 
        1.69967         89.0747         9.51358         105.316 
        1.70581         88.2665         9.42951         104.899 
        1.71193         87.7478         9.34676         104.374 
        1.71806         87.7301         9.26484         103.984 
        1.72421         87.1473         9.18373         103.615 
        1.73035         86.8447         9.10368           103.2 
        1.73649         86.2566         9.02461         102.706 
        1.74262         85.7631         8.94654         102.139 
        1.74876         85.3192         8.86934         101.741 
        1.75489         84.7205         8.79321         101.421 
        1.76101         84.2285         8.71799         101.038 
        1.76715           83.98         8.64356          100.63 
        1.77329         83.2996          8.5699         100.164 
        1.77943         83.1063         8.49706         99.7374 
        1.78557         82.7178         8.42519          99.402 
        1.79171         81.9549         8.35413         98.9534 
        1.79785         81.6362         8.28388         98.4931 
        1.80399         81.1911         8.21445          98.174 
        1.81012         80.7277         8.14591         97.7703 
        1.81625         80.4161         8.07818         97.3286 
        1.82239         79.8592         8.01112           96.94 
        1.82853         79.3853         7.94485         96.5447 
        1.83466         79.0848          7.8794         96.1201 
        1.84078         78.7609         7.81476         95.7424 
        1.84692         78.0933         7.75073         95.4819 
        1.85306         77.8078         7.68734         95.0404 
         1.8592         77.3098         7.62477         94.5471 
        1.86533         76.9133         7.56292         94.2674 
        1.87147         76.4535         7.50168         93.9348 
        1.87761         75.9078          7.4411         93.5153 
