# k  (h/Mpc)    P(k)  (Mpc/h)^3    P_linear(k)  (Mpc/h)^3     P_NL(k)  ShotnoiseSubtracted = false
     0.00783031         1471.12         1487.55         1473.89 
       0.013688         1656.85         1658.12         1647.84 
       0.019231         1532.87         1531.27         1523.18 
      0.0249154         1283.84         1289.35         1285.48 
      0.0312784         1013.44         1011.68         1012.57 
      0.0375637         800.833         796.569         797.993 
      0.0433917         663.826         662.945         664.346 
      0.0492413         582.751         581.171         582.434 
      0.0555754         527.665         529.371         529.679 
      0.0619321         494.282         491.954         491.769 
       0.067871         452.987         454.329         453.855 
      0.0738098         406.633          407.95         407.343 
      0.0800417         350.952          352.52         352.476 
      0.0862327         298.553         298.506          299.21 
      0.0921407         256.211         255.039         256.037 
      0.0982031         222.644         222.314         223.684 
       0.104506          202.81         200.802         202.258 
       0.110769         190.077         188.765          189.74 
       0.116806         181.739         181.551         182.153 
       0.122832         175.204         174.503         174.975 
       0.129052         164.214         164.512         164.863 
       0.135211          151.03          151.22         151.711 
       0.141259          136.91         136.174         136.949 
       0.147318         122.641         121.306         122.502 
       0.153489         109.443         108.368         109.454 
       0.159709         99.8852         98.6436         99.8606 
       0.165845         94.0514         92.2753         93.6695 
       0.171974         89.1647         88.2776         89.4256 
       0.178125         86.3684         85.4141         86.5838 
       0.184229         83.5318         82.5373         83.5764 
        0.19034         78.9991          78.851         79.7867 
       0.196428         74.9252         74.1916         75.0119 
       0.202534         70.2816         68.8696         69.8125 
       0.208729         64.5471         63.4376         64.4734 
       0.214876         59.5199         58.6167          59.908 
       0.220989         56.0931         54.7391          56.085 
       0.227147          52.761         51.8105         53.0959 
        0.23329         50.5708         49.6681         50.9879 
       0.239377          48.941         47.9798         49.2369 
       0.245482         46.9065          46.373         47.4417 
       0.251667         45.4673          44.581          45.715 
       0.257832         43.3842         42.5372         43.6192 
       0.263955         41.1789         40.3123         41.3718 
       0.270079         38.9908         38.0529         39.1374 
        0.27624         37.1461         35.9217         36.9899 
       0.282372          35.328         34.0652         35.2259 
        0.28843         33.6166          32.536         33.7051 
       0.294538         32.2485         31.2621         32.3994 
       0.300721         31.3331          30.163          31.308 
        0.30691         30.0822         29.1455         30.2799 
       0.313033         29.0307          28.139         29.2032 
       0.319153         27.6624         27.0856         28.1485 
       0.325316         26.9967         25.9828         27.0718 
        0.33145         25.7697         24.8748         25.9238 
       0.337538         24.7803         23.8151         24.8453 
       0.343633         23.6973         22.8322         23.8636 
       0.349808         22.8777         21.9402         23.0152 
       0.355968         22.1285          21.151         22.2968 
       0.362074         21.3568         20.4487         21.5253 
       0.368217          20.653         19.7945         20.7847 
       0.374374         19.9508         19.1617         20.1771 
       0.380519         19.3909          18.537         19.5064 
       0.386598         18.7843         17.9184         18.8973 
       0.392688         18.2564         17.3031         18.2824 
        0.39888         17.5862         16.6948         17.6748 
       0.405048         17.0433         16.1173         17.0458 
       0.411186         16.5093         15.5792         16.5685 
       0.417313         15.9398         15.0824         16.0402 
       0.423458         15.4785         14.6189         15.5815 
       0.429607         14.9962         14.1833         15.1109 
       0.435692         14.5517         13.7725         14.7057 
       0.441815         14.1722         13.3717          14.328 
       0.447964         13.8481         12.9776         13.8897 
       0.454126         13.3171         12.5919         13.4888 
       0.460267         12.9968         12.2181         13.1451 
       0.466387         12.5555         11.8585         12.7394 
        0.47254         12.2696         11.5127         12.4027 
       0.478662         11.9899         11.1865         12.0581 
       0.484765         11.5957         10.8779           11.73 
       0.490885         11.3092          10.583           11.48 
       0.497035         11.1036         10.2992         11.2065 
       0.503198         10.7796         10.0257         10.8721 
       0.509342         10.5038         9.76172         10.6151 
       0.515458         10.2068         9.50622         10.3861 
       0.521598         9.97575         9.25699         10.0755 
       0.527764         9.70319         9.01483          9.8164 
       0.533884         9.52118         8.78321         9.57729 
           0.54         9.26903         8.56069         9.34802 
       0.546137         9.06811         8.34593         9.15013 
       0.552299         8.86575         8.13849         8.89059 
       0.558452         8.59036          7.9392         8.69664 
       0.564573         8.44109         7.74803         8.53942 
       0.570708         8.24782         7.56282         8.33718 
       0.576825         8.02604         7.38391          8.1414 
       0.582926          7.8631         7.21067          7.9707 
       0.589034         7.62362         7.04231         7.82185 
       0.595184         7.49126         6.87803         7.59186 
       0.601379         7.30649         6.71795         7.48057 
       0.607522         7.17988         6.56456         7.29984 
       0.613639          7.0562         6.41694         7.13992 
       0.619772         6.85545         6.27375         7.01346 
       0.625918         6.76923         6.13477         6.85075 
       0.632068         6.64822         5.99995         6.69854 
       0.638161          6.4628          5.8703         6.56786 
         0.6443         6.32502         5.74347         6.42362 
       0.650464         6.17437         5.61988         6.32286 
       0.656582         6.10654          5.5008         6.19033 
       0.662703         5.97409         5.38516         6.05871 
       0.668861         5.85769         5.27225         5.96138 
       0.675024         5.72482         5.16255         5.82837 
       0.681124         5.61435         5.05712         5.71241 
       0.687237         5.51179         4.95446          5.5898 
       0.693381         5.41249          4.8542         5.47887 
       0.699536         5.26484         4.75655         5.38516 
       0.705665         5.18777         4.66201         5.31459 
       0.711789         5.09006         4.57013         5.19952 
       0.717957         4.98465          4.4801          5.0939 
        0.72409         4.88994         4.39301         5.01438 
       0.730186         4.81692         4.30877         4.91413 
       0.736317         4.75103          4.2263         4.81997 
       0.742472         4.66386         4.14571         4.75604 
       0.748622         4.57287         4.06731         4.67265 
        0.75476         4.46842         3.99112         4.58052 
       0.760888         4.39646         3.91702         4.50691 
       0.767043         4.33626         3.84453         4.43546 
       0.773185         4.23798         3.77403         4.36252 
       0.779291          4.1882         3.70572         4.29096 
       0.785407         4.11343           3.639         4.21081 
       0.791564         4.04581         3.57352         4.14357 
       0.797719         3.96562         3.50969         4.06709 
       0.803834         3.92679         3.44782         4.00211 
       0.809972         3.86558         3.38723         3.95372 
       0.816124         3.77603         3.32798         3.87652 
       0.822261         3.70519          3.2703         3.81167 
       0.828378         3.65771         3.21417         3.75512 
       0.834502         3.61691         3.15932         3.69316 
       0.840667         3.53572          3.1054         3.63556 
       0.846816         3.47083         3.05289           3.587 
       0.852925         3.43642         3.00194         3.53155 
       0.859047          3.3769         2.95204         3.48448 
       0.865192         3.33426         2.90312         3.42616 
       0.871341         3.28677         2.85528         3.37758 
       0.877463         3.23133         2.80875         3.32059 
       0.883569         3.16983         2.76337         3.27406 
       0.889708         3.11606         2.71876         3.22772 
       0.895864         3.07048         2.67503         3.17632 
       0.902008         3.03055         2.63236         3.13372 
       0.908149         2.99347         2.59065         3.08277 
       0.914301         2.93677         2.54978         3.04675 
       0.920448         2.89034         2.50983         2.99388 
       0.926574         2.84644         2.47088         2.96067 
       0.932687         2.80828         2.43284         2.89989 
       0.938823         2.76923         2.39547         2.87494 
       0.944975         2.73068          2.3588         2.82967 
       0.951105         2.69292         2.32304         2.78771 
       0.957225         2.67328         2.28808          2.7562 
       0.963368          2.6286         2.25373          2.7136 
       0.969511         2.58615         2.22008         2.68023 
       0.975621         2.54787          2.1873         2.63646 
       0.981748         2.51763         2.15511         2.60048 
       0.987916         2.48202         2.12336         2.57248 
        0.99406         2.43622         2.09237         2.54111 
        1.00019         2.40448         2.06207         2.51074 
        1.00632         2.37684         2.03239          2.4724 
        1.01246         2.34485         2.00326          2.4441 
        1.01859         2.31282         1.97475         2.40891 
        1.02471         2.28389         1.94683         2.37001 
        1.03085         2.25036         1.91936         2.34145 
        1.03698         2.21726         1.89247          2.3157 
        1.04314         2.19349         1.86599         2.28452 
        1.04929         2.16459         1.84008         2.25703 
        1.05541         2.13441         1.81477          2.2321 
        1.06154         2.10852         1.78987         2.20398 
        1.06769         2.09061          1.7654         2.17975 
        1.07382         2.05507         1.74148         2.14958 
        1.07993         2.02343         1.71805         2.12028 
        1.08607         2.01043         1.69495         2.10058 
        1.09222         1.97951         1.67226         2.07073 
        1.09836         1.95684         1.65001         2.04268 
        1.10449         1.93526         1.62819         2.02313 
        1.11063         1.90458         1.60674         1.99494 
        1.11677         1.88458         1.58569         1.97378 
         1.1229         1.86136         1.56505          1.9535 
        1.12903         1.83559         1.54476         1.93137 
        1.13518         1.81565         1.52481         1.90657 
        1.14131         1.78772         1.50523         1.88118 
        1.14745         1.75956         1.48601         1.85823 
        1.15359         1.74799         1.46712         1.84365 
        1.15973         1.72018         1.44855         1.81985 
        1.16584         1.70553         1.43038          1.7996 
        1.17197         1.68456          1.4125          1.7798 
        1.17811         1.67003         1.39488         1.75964 
        1.18424           1.649          1.3776         1.73705 
        1.19038         1.63053         1.36057         1.71823 
        1.19652         1.61154         1.34384         1.70313 
        1.20267          1.5939         1.32738         1.67984 
        1.20881         1.57448         1.31121         1.66233 
        1.21495         1.55856         1.29533          1.6489 
        1.22108         1.54011         1.27972         1.62865 
         1.2272         1.52508          1.2644         1.60777 
        1.23334         1.50253          1.2493         1.59474 
        1.23949         1.48545         1.23441          1.5808 
        1.24562         1.47287         1.21981          1.5629 
        1.25174          1.4541         1.20546         1.54226 
        1.25789         1.44032          1.1913         1.52526 
        1.26402         1.42187          1.1774         1.50856 
        1.27014         1.40613         1.16375         1.49608 
        1.27628         1.39575         1.15027         1.47975 
        1.28244         1.37459         1.13699         1.46288 
        1.28858          1.3641         1.12393         1.44788 
        1.29471         1.34556         1.11111         1.43313 
        1.30084          1.3293          1.0985         1.42261 
        1.30697         1.32195         1.08606         1.40505 
        1.31312         1.29828          1.0738          1.3903 
        1.31925         1.28877         1.06177         1.38151 
        1.32537         1.27436         1.04993         1.36668 
        1.33151         1.26631         1.03823         1.35217 
        1.33765         1.24791         1.02672          1.3394 
        1.34378         1.23694         1.01541         1.32657 
        1.34992         1.22702         1.00425         1.31274 
        1.35606         1.20667        0.993245         1.29748 
         1.3622         1.20001        0.982421         1.28517 
        1.36833         1.18584        0.971785         1.27771 
        1.37445         1.17214        0.961311         1.26436 
        1.38059         1.16517         0.95096         1.25121 
        1.38675         1.15548        0.940737         1.23659 
        1.39288         1.14131        0.930706         1.22871 
        1.39901         1.12622        0.920825          1.2162 
        1.40515         1.11573        0.911066         1.20382 
         1.4113         1.10614        0.901452         1.19437 
        1.41742         1.09626        0.892013         1.18378 
        1.42355         1.08667        0.882692         1.16853 
         1.4297         1.07371        0.873476         1.16329 
        1.43585         1.06523        0.864396         1.15257 
        1.44198         1.05604         0.85548         1.13877 
        1.44809         1.04311        0.846706          1.1304 
        1.45423         1.03313        0.838023         1.11767 
        1.46036         1.02212        0.829477         1.10807 
        1.46649         1.01372        0.821048          1.1001 
        1.47263         1.00207         0.81273         1.09006 
        1.47877        0.991972         0.80453         1.07865 
        1.48491        0.983595        0.796431         1.07112 
        1.49104         0.97523        0.788461         1.05889 
        1.49718        0.966093        0.780594         1.05158 
        1.50333        0.955853        0.772821         1.04234 
        1.50947         0.94796        0.765171         1.03182 
         1.5156        0.938489        0.757636         1.02412 
        1.52172        0.929497        0.750202         1.01714 
        1.52787        0.920688        0.742853         1.00476 
          1.534        0.912128        0.735612        0.997244 
        1.54013         0.90364        0.728474         0.98895 
        1.54627        0.894297        0.721418        0.979085 
        1.55241        0.885993        0.714455        0.971463 
        1.55855        0.879706        0.707593        0.963069 
        1.56467        0.871961         0.70084        0.955906 
         1.5708        0.861782        0.694156        0.947149 
        1.57695        0.856341        0.687549         0.93905 
        1.58308        0.847391        0.681044        0.932526 
        1.58922          0.8407        0.674617        0.924247 
        1.59535        0.832851        0.668276        0.917226 
         1.6015        0.825067        0.662008        0.909366 
        1.60764        0.819627        0.655823        0.901741 
        1.61376        0.812237        0.649734        0.895776 
        1.61989        0.803764        0.643718        0.888427 
        1.62604        0.795757        0.637764        0.881035 
        1.63218        0.791735         0.63189        0.874372 
        1.63831         0.78313        0.626102        0.867337 
        1.64444        0.776394        0.620386          0.8593 
        1.65059        0.770087        0.614727        0.852749 
        1.65673        0.762583        0.609144         0.84593 
        1.66285        0.755841        0.603647        0.838581 
        1.66898        0.751394        0.598216        0.831698 
        1.67512        0.741944        0.592841        0.825977 
        1.68127        0.736685        0.587527        0.820819 
         1.6874        0.733217        0.582291         0.81506 
        1.69353         0.72331        0.577121        0.807869 
        1.69967        0.717086        0.572001         0.80056 
        1.70581        0.713953        0.566946        0.795179 
        1.71193        0.706275        0.561972        0.790244 
        1.71806        0.702062        0.557046        0.782688 
        1.72421        0.695673        0.552169        0.776506 
        1.73035        0.688499        0.547356        0.771078 
        1.73649        0.684039        0.542602        0.765139 
        1.74262        0.678249        0.537908        0.759396 
        1.74876        0.672497        0.533266        0.754832 
        1.75489        0.665154        0.528689        0.749347 
        1.76101         0.66068        0.524167        0.742264 
        1.76715        0.656077        0.519691        0.736722 
        1.77329        0.651168        0.515263        0.731689 
        1.77943        0.643755        0.510884        0.726124 
        1.78557        0.639125        0.506562        0.720362 
        1.79171        0.636189         0.50229        0.715071 
        1.79785        0.628878        0.498066        0.710263 
        1.80399        0.624648        0.493892        0.705332 
        1.81012        0.619871        0.489771          0.6994 
        1.81625         0.61471        0.485698        0.693978 
        1.82239        0.610144        0.481667        0.689875 
        1.82853        0.603205        0.477682         0.68596 
        1.83466        0.599834        0.473747         0.68143 
        1.84078        0.595065         0.46986         0.67625 
        1.84692        0.591694        0.466011        0.670875 
        1.85306        0.586285          0.4622        0.665263 
         1.8592        0.581316        0.458437        0.660713 
        1.86533        0.576616        0.454719        0.657226 
        1.87147        0.572661        0.451037         0.65197 
        1.87761        0.567859        0.447394        0.647144 
