# k  (h/Mpc)    P(k)  (Mpc/h)^3    P_linear(k)  (Mpc/h)^3     P_NL(k)  ShotnoiseSubtracted = false
     0.00783031         20466.6         20783.5         20583.6 
       0.013688         23416.3         23143.1         22960.3 
       0.019231         21475.5         21363.9         21199.6 
      0.0249154         17647.5         17984.7           17865 
      0.0312784         14033.1         14109.6         14044.2 
      0.0375637         11217.9         11108.5         11082.4 
      0.0433917         9188.09         9244.53          9214.5 
      0.0492413         8136.74          8103.9         8081.01 
      0.0555754         7236.37         7381.37         7362.82 
      0.0619321         6949.85         6859.49         6840.06 
       0.067871         6236.33         6334.75         6326.28 
      0.0738098         5618.47         5688.02         5641.26 
      0.0800417          4840.5          4915.1         4913.07 
      0.0862327         4184.66         4161.96         4238.86 
      0.0921407         3686.81         3555.88         3655.11 
      0.0982031         3206.11          3099.6          3254.5 
       0.104506          2993.8         2799.65         2984.78 
       0.110769         2789.56         2631.82          2766.2 
       0.116806         2664.92         2531.23         2636.91 
       0.122832         2552.01         2432.95         2529.54 
       0.129052         2353.55         2293.65         2379.88 
       0.135211          2186.7         2108.32          2205.8 
       0.141259         2041.62         1898.55         2033.06 
       0.147318         1872.67         1691.26         1869.97 
       0.153489         1683.64         1510.87         1675.45 
       0.159709         1573.51         1375.29         1560.94 
       0.165845         1503.83          1286.5         1495.87 
       0.171974         1432.67         1230.77         1419.52 
       0.178125         1370.52         1190.84          1384.7 
       0.184229         1311.44         1150.73         1323.78 
        0.19034         1232.77         1099.34         1261.35 
       0.196428         1194.31         1034.38         1192.32 
       0.202534         1138.88         960.175         1131.72 
       0.208729         1068.62         884.442         1054.16 
       0.214876         1013.62         817.228         1014.87 
       0.220989         969.502         763.167         971.085 
       0.227147         928.779         722.337          932.77 
        0.23329         890.191         692.466          906.04 
       0.239377         871.358         668.928         871.086 
       0.245482         813.705         646.527         834.196 
       0.251667         806.661         621.542         812.988 
       0.257832         771.044         593.047         777.943 
       0.263955         741.996         562.028         746.721 
       0.270079         710.331         530.528         718.606 
        0.27624         698.494         500.815         688.805 
       0.282372         669.962         474.932          669.16 
        0.28843         656.628         453.612         650.645 
       0.294538         621.456         435.851         630.145 
       0.300721         616.341         420.527         612.181 
        0.30691         589.974         406.341         601.425 
       0.313033         576.891         392.308          579.93 
       0.319153         560.706         377.623         562.526 
       0.325316          543.94         362.248         547.854 
        0.33145         527.358           346.8         526.088 
       0.337538         516.258         332.025         512.323 
       0.343633         501.747         318.322         504.511 
       0.349808         482.078         305.887         493.558 
       0.355968         477.538         294.883         482.497 
       0.362074         470.864         285.092         471.598 
       0.368217         456.134         275.971         457.671 
       0.374374         435.731         267.148         446.953 
       0.380519         434.189         258.439         435.552 
       0.386598         421.127         249.814         430.591 
       0.392688          417.64         241.236         417.345 
        0.39888          405.26         232.755         408.533 
       0.405048         396.937         224.703         400.428 
       0.411186         390.652         217.202          390.29 
       0.417313         382.415         210.275         382.531 
       0.423458          372.98         203.813         375.854 
       0.429607         368.309          197.74          369.01 
       0.435692         358.143         192.013         358.918 
       0.441815         353.898         186.425         355.522 
       0.447964         345.693         180.931         349.644 
       0.454126         339.404         175.553         339.312 
       0.460267         331.743         170.342         336.885 
       0.466387         327.126         165.329         330.702 
        0.47254         321.978         160.508         324.454 
       0.478662         319.741         155.959         317.746 
       0.484765         307.788         151.657         312.136 
       0.490885         304.612         147.546         306.707 
       0.497035         298.457         143.589         302.629 
       0.503198         294.601         139.775         298.298 
       0.509342          292.56         136.096         293.472 
       0.515458         288.366         132.534         289.796 
       0.521598         280.098         129.059         284.927 
       0.527764         276.903         125.683         282.023 
       0.533884         273.586         122.453         277.851 
           0.54         269.622         119.351         272.691 
       0.546137         267.778         116.357         269.401 
       0.552299         262.527         113.465         265.045 
       0.558452         260.801         110.686         261.644 
       0.564573         257.144         108.021         259.338 
       0.570708         251.683         105.439         256.106 
       0.576825          247.02         102.945         250.954 
       0.582926         244.825         100.529          248.65 
       0.589034         241.898         98.1823         245.572 
       0.595184         240.046         95.8919         241.064 
       0.601379         235.164         93.6601         238.377 
       0.607522         232.566         91.5215         234.692 
       0.613639         230.369         89.4634         233.982 
       0.619772         226.248         87.4671         231.918 
       0.625918         224.969         85.5295         227.527 
       0.632068         220.683         83.6498         224.935 
       0.638161         219.456         81.8422         223.648 
         0.6443         216.072          80.074         220.566 
       0.650464         213.866          78.351         216.248 
       0.656582         210.738         76.6908         214.789 
       0.662703         210.628         75.0786         212.699 
       0.668861         207.412         73.5044         211.102 
       0.675024         204.267         71.9749           208.9 
       0.681124         202.335         70.5051         205.553 
       0.687237         200.318         69.0738         203.459 
       0.693381         197.035          67.676         201.162 
       0.699536         195.047         66.3146         199.572 
       0.705665         193.123         64.9966          196.87 
       0.711789         191.879         63.7156         195.826 
       0.717957         190.624         62.4605         194.428 
        0.72409         188.588         61.2463         192.122 
       0.730186         185.878         60.0718         189.913 
       0.736317         183.994          58.922         188.201 
       0.742472         182.176         57.7984          186.28 
       0.748622         180.859         56.7053         184.287 
        0.75476         178.701         55.6432         183.859 
       0.760888         176.837         54.6101         181.057 
       0.767043         176.191         53.5994         179.625 
       0.773185         174.671         52.6166         178.304 
       0.779291         171.486         51.6641          176.14 
       0.785407         170.901          50.734         174.578 
       0.791564          169.25         49.8211          173.07 
       0.797719         166.585         48.9311         171.833 
       0.803834         165.341         48.0686         170.642 
       0.809972         164.723         47.2239         169.089 
       0.816124         163.447         46.3978         167.609 
       0.822261         162.378         45.5937         166.547 
       0.828378         160.521         44.8112         164.745 
       0.834502          159.37         44.0464         163.327 
       0.840667         157.611         43.2947         161.856 
       0.846816         156.351         42.5626         160.873 
       0.852925         155.198         41.8522         159.662 
       0.859047         154.151         41.1566         158.421 
       0.865192         151.889         40.4746         156.751 
       0.871341         150.657         39.8076         155.621 
       0.877463             150         39.1588         154.811 
       0.883569         149.167         38.5261         154.277 
       0.889708          147.18         37.9043         152.312 
       0.895864         146.242         37.2946         151.427 
       0.902008         144.967         36.6997         149.957 
       0.908149         144.269         36.1182          148.86 
       0.914301         142.353         35.5483         147.616 
       0.920448         141.611         34.9914         146.791 
       0.926574         140.218         34.4483         145.544 
       0.932687         140.196          33.918          144.66 
       0.938823         138.123          33.397         143.805 
       0.944975         137.591         32.8858         142.664 
       0.951105         136.446         32.3872         141.649 
       0.957225         135.802         31.8998         140.537 
       0.963368         133.492         31.4209         139.552 
       0.969511         133.069         30.9518         138.492 
       0.975621         131.835         30.4948         137.962 
       0.981748         131.606         30.0459         137.131 
       0.987916         130.343         29.6033         136.003 
        0.99406         129.388         29.1713         134.993 
        1.00019         128.759         28.7488          134.06 
        1.00632         127.495         28.3351         133.063 
        1.01246         126.653         27.9289         131.861 
        1.01859         126.326         27.5314         131.414 
        1.02471         124.565         27.1422         130.711 
        1.03085         123.679         26.7591         129.927 
        1.03698         122.968         26.3843         129.389 
        1.04314         121.691         26.0151         128.268 
        1.04929         121.571         25.6539         127.414 
        1.05541          120.55          25.301         126.807 
        1.06154         119.675         24.9539         126.105 
        1.06769         119.311         24.6128          125.36 
        1.07382         118.047         24.2792         124.636 
        1.07993         117.234         23.9525         123.804 
        1.08607         116.695         23.6305         122.923 
        1.09222         115.949         23.3142         122.341 
        1.09836         115.024          23.004         121.505 
        1.10449         113.912         22.6998         121.132 
        1.11063         113.227         22.4007         120.131 
        1.11677         112.414         22.1072         119.282 
         1.1229          111.63         21.8195          118.64 
        1.12903         111.317         21.5366         117.939 
        1.13518         110.567         21.2585         117.368 
        1.14131         109.402         20.9856          116.47 
        1.14745         109.339         20.7175         115.848 
        1.15359         108.152         20.4541          115.33 
        1.15973         107.592         20.1952         114.725 
        1.16584         106.839          19.942         113.954 
        1.17197         106.337         19.6927         113.541 
        1.17811          105.26          19.447         112.727 
        1.18424         105.059         19.2062         111.898 
        1.19038         104.761         18.9687         111.748 
        1.19652         103.759         18.7354         110.836 
        1.20267         103.031          18.506         110.411 
        1.20881         102.535         18.2805           109.6 
        1.21495         101.467         18.0591         109.176 
        1.22108         101.178         17.8415         108.572 
         1.2272         100.239         17.6279         107.901 
        1.23334         99.8733         17.4174         107.619 
        1.23949         99.2004         17.2098         106.856 
        1.24562         98.6013         17.0062         105.957 
        1.25174         98.2419         16.8062          105.46 
        1.25789         97.5641         16.6088         104.851 
        1.26402         96.3166         16.4149         104.584 
        1.27014         95.9969         16.2246         104.113 
        1.27628         95.6548         16.0368         103.818 
        1.28244         95.3217         15.8516         103.002 
        1.28858         94.6095         15.6695         102.472 
        1.29471          93.805         15.4907         101.998 
        1.30084         93.6796         15.3149         101.233 
        1.30697         92.5356         15.1416         100.759 
        1.31312         92.1296         14.9706         100.207 
        1.31925         91.5354         14.8029         99.8819 
        1.32537         91.1828         14.6379         99.5256 
        1.33151         90.5859         14.4748         98.9255 
        1.33765          89.928         14.3143         98.4793 
        1.34378         89.4985         14.1565         98.0165 
        1.34992         89.1663          14.001         97.4065 
        1.35606         88.7223         13.8475         96.8857 
         1.3622         87.8545         13.6966         96.5503 
        1.36833         87.4003         13.5483          95.871 
        1.37445         87.0902         13.4023         95.5115 
        1.38059         86.3064          13.258         94.8305 
        1.38675         85.7613         13.1155         94.4122 
        1.39288         85.5814         12.9756         93.9248 
        1.39901         85.0638         12.8379         93.6176 
        1.40515         84.3098         12.7018         93.2998 
         1.4113         84.1352         12.5678         92.9138 
        1.41742         83.4323         12.4362         92.4286 
        1.42355         83.1089         12.3062         91.8377 
         1.4297         82.5584         12.1778         91.5267 
        1.43585         82.0136         12.0512         90.9351 
        1.44198         81.6794         11.9268         90.7876 
        1.44809         81.3867         11.8045         90.2213 
        1.45423         80.9486         11.6835         89.6569 
        1.46036         80.2563         11.5643         89.2999 
        1.46649         79.8422         11.4468         89.0271 
        1.47263         79.1821         11.3308         88.6484 
        1.47877         78.7492         11.2165         88.0465 
        1.48491         78.3866         11.1036         87.6438 
        1.49104         78.1016         10.9925         87.4635 
        1.49718         77.6509         10.8828         86.8421 
        1.50333         77.2067         10.7744         86.3717 
        1.50947         76.6522         10.6678          86.084 
         1.5156         76.4428         10.5627         85.7341 
        1.52172         76.0501         10.4591          85.305 
        1.52787          75.409         10.3566         84.9001 
          1.534          75.061         10.2557         84.5926 
        1.54013         74.6885         10.1562          84.273 
        1.54627         74.2944         10.0578         83.8835 
        1.55241         73.9665         9.96072         83.4514 
        1.55855         73.4611         9.86505         83.0221 
        1.56467         73.0859          9.7709         82.7375 
         1.5708         72.4934         9.67772         82.3639 
        1.57695         72.4597         9.58561         81.9661 
        1.58308         72.0813          9.4949          81.676 
        1.58922          71.629         9.40531         81.3283 
        1.59535         71.1743         9.31691          80.996 
         1.6015         70.9585         9.22952          80.595 
        1.60764         70.4121         9.14329         80.2403 
        1.61376         70.1042          9.0584          80.029 
        1.61989         69.7167         8.97452         79.6764 
        1.62604         69.3047         8.89151         79.0676 
        1.63218          69.142         8.80961         78.6838 
        1.63831         68.5324         8.72893         78.5793 
        1.64444         68.1162         8.64922          78.211 
        1.65059         67.6976         8.57033         77.8424 
        1.65673         67.3901          8.4925         77.4721 
        1.66285         67.1775         8.41586         77.1705 
        1.66898          66.834         8.34014         76.9291 
        1.67512         66.1946         8.26521         76.5557 
        1.68127         66.0565         8.19112         76.2644 
         1.6874         65.5998         8.11811         75.9804 
        1.69353         65.2817         8.04604         75.5472 
        1.69967         65.1298         7.97467         75.2741 
        1.70581         64.5987         7.90419         74.9945 
        1.71193         64.2081         7.83483         74.6519 
        1.71806         63.9957         7.76616         74.3714 
        1.72421         63.6385         7.69817         74.0716 
        1.73035         63.3113         7.63107         73.7562 
        1.73649         63.0534         7.56479         73.4268 
        1.74262         62.6012         7.49935          73.058 
        1.74876         62.3292         7.43463         72.7661 
        1.75489         61.9678         7.37082         72.5098 
        1.76101         61.6606         7.30777          72.224 
        1.76715         61.2593         7.24537         71.9369 
        1.77329         61.0001         7.18363         71.6137 
        1.77943          60.648         7.12258         71.3085 
        1.78557         60.4885         7.06233         71.0644 
        1.79171          59.967         7.00276         70.7716 
        1.79785         59.6091         6.94388         70.4427 
        1.80399         59.3988         6.88568         70.1464 
        1.81012         59.1217         6.82823         69.8701 
        1.81625         58.8287         6.77145         69.5868 
        1.82239         58.4325         6.71524          69.308 
        1.82853         58.2477         6.65969         69.0514 
        1.83466         57.9864         6.60483         68.7507 
        1.84078         57.5634         6.55064         68.4652 
        1.84692         57.3213         6.49697         68.2983 
        1.85306           57.02         6.44384         67.9713 
         1.8592         56.8369         6.39138         67.5905 
        1.86533         56.4137         6.33954         67.3912 
        1.87147         56.0532         6.28821         67.1301 
        1.87761         55.7616         6.23743         66.8476 
