# k  (h/Mpc)    P(k)  (Mpc/h)^3    P_linear(k)  (Mpc/h)^3     P_NL(k)  ShotnoiseSubtracted = false
     0.00783031         6443.18         6525.45         6465.58 
       0.013688         7302.99            7270         7221.84 
       0.019231         6734.08          6712.5         6672.84 
      0.0249154         5598.38         5651.45         5629.38 
      0.0312784         4433.43         4434.09         4432.01 
      0.0375637          3517.7         3491.13         3493.76 
      0.0433917         2902.29         2905.43         2907.76 
      0.0492413         2556.08            2547         2549.68 
      0.0555754         2299.62         2319.95         2319.99 
      0.0619321         2176.84         2155.95         2154.49 
       0.067871         1978.44         1991.05         1989.68 
      0.0738098         1777.47         1787.79         1782.84 
      0.0800417         1532.03         1544.87         1545.41 
      0.0862327         1310.56         1308.15         1317.88 
      0.0921407         1134.25         1117.66         1130.22 
      0.0982031         983.847         974.247         992.956 
       0.104506         905.872         879.973         901.706 
       0.110769         847.004         827.224         842.456 
       0.116806         807.561         795.609         807.196 
       0.122832         778.823         764.719         775.413 
       0.129052         724.927         720.936         730.163 
       0.135211         669.204         662.685         673.735 
       0.141259          612.91         596.751         611.831 
       0.147318          553.22         531.595         552.687 
       0.153489         494.229         474.894         493.602 
       0.159709         455.262         432.281         453.252 
       0.165845             431         404.373         428.706 
       0.171974         407.934         386.854         407.772 
       0.178125         394.278         374.306         396.103 
       0.184229         380.654         361.699         381.387 
        0.19034         356.314         345.544         363.642 
       0.196428         342.258         325.126         341.563 
       0.202534         324.203         301.803         320.124 
       0.208729         299.397         277.999         297.003 
       0.214876         277.731         256.872         280.049 
       0.220989         263.602          239.88         264.041 
       0.227147         248.863         227.046         250.678 
        0.23329         238.618         217.657         241.935 
       0.239377         232.142         210.259          233.33 
       0.245482         218.674         203.218         223.598 
       0.251667          214.31         195.364          216.74 
       0.257832         205.691         186.408         206.822 
       0.263955         195.862         176.658         196.828 
       0.270079         186.138         166.757         187.456 
        0.27624         180.081         157.417         177.829 
       0.282372         172.301         149.282         170.686 
        0.28843         164.721          142.58         164.059 
       0.294538         157.304         136.998         158.333 
       0.300721          154.41         132.181         153.662 
        0.30691         147.419         127.722         149.121 
       0.313033         143.015         123.311         143.613 
       0.319153          136.37         118.695         138.795 
       0.325316         133.309         113.863         134.288 
        0.33145         127.475         109.007         128.697 
       0.337538         124.288         104.363         123.802 
       0.343633         119.337         100.056         120.189 
       0.349808         115.195         96.1471         116.692 
       0.355968         112.521         92.6883         113.654 
       0.362074         109.028         89.6108         109.983 
       0.368217         105.474         86.7439         106.139 
       0.374374         102.043         83.9708         103.257 
       0.380519         99.7158         81.2334         100.048 
       0.386598          96.737         78.5222         97.4994 
       0.392688         94.5922          75.826         94.6385 
        0.39888         91.8079         73.1603         91.7323 
       0.405048         89.0957         70.6294         89.2997 
       0.411186         86.7921         68.2717         87.0182 
       0.417313         84.3603         66.0943         84.2933 
       0.423458         82.1119         64.0632         82.3254 
       0.429607         79.9557         62.1544         80.2573 
       0.435692         77.2156         60.3542          78.232 
       0.441815         76.2321         58.5978         76.7574 
       0.447964         74.5872         56.8707         74.6155 
       0.454126         71.1048         55.1805         72.3681 
       0.460267         70.1288         53.5425         71.2214 
       0.466387         68.6193         51.9666         69.2474 
        0.47254         67.0195         50.4512         67.7596 
       0.478662          66.091         49.0216         66.2395 
       0.484765         63.9529         47.6693          64.325 
       0.490885         62.6139          46.377         63.2979 
       0.497035         61.6492         45.1335         62.1475 
       0.503198         59.7694         43.9346         60.6093 
       0.509342          58.395          42.778          59.477 
       0.515458         57.2332         41.6584         58.5424 
       0.521598         56.2314         40.5662         56.8084 
       0.527764         55.1781          39.505         55.4132 
       0.533884         54.2472           38.49         54.4497 
           0.54         52.8475         37.5148         53.3988 
       0.546137         52.1379         36.5737         52.5344 
       0.552299         51.2286         35.6646         51.1587 
       0.558452         49.8286         34.7913         50.0995 
       0.564573         48.8821         33.9536         49.4426 
       0.570708         48.0598         33.1419         48.5456 
       0.576825         47.2054         32.3579         47.5441 
       0.582926         46.0877         31.5987         46.6522 
       0.589034          45.039          30.861          46.058 
       0.595184         44.3758         30.1411         45.0473 
       0.601379         43.5713         29.4395         44.4082 
       0.607522         42.5419         28.7673         43.3144 
       0.613639         42.2488         28.1204         42.7282 
       0.619772          41.267         27.4929         41.9775 
       0.625918         40.7022         26.8839         41.3783 
       0.632068          40.151         26.2931         40.5914 
       0.638161         39.4475         25.7249         39.9677 
         0.6443         38.7829         25.1691         39.2083 
       0.650464         38.1155         24.6275         38.4915 
       0.656582         37.6064         24.1057         38.0267 
       0.662703         36.8163          23.599         37.2898 
       0.668861         36.2644         23.1042         36.8394 
       0.675024         35.6776         22.6234         36.1101 
       0.681124         35.0812         22.1614         35.5599 
       0.687237         34.3597         21.7115         35.0205 
       0.693381          34.028         21.2722         34.4077 
       0.699536         33.3679         20.8442          34.106 
       0.705665         33.3513           20.43         33.6442 
       0.711789         32.4017         20.0273          32.884 
       0.717957         31.9903         19.6328         32.5669 
        0.72409          31.533         19.2511         32.1632 
       0.730186         30.9885          18.882         31.6802 
       0.736317         30.7835         18.5206         31.1579 
       0.742472          30.249         18.1674         30.7519 
       0.748622         29.8575         17.8238         30.2899 
        0.75476          29.436           17.49         29.8929 
       0.760888         28.9246         17.1652         29.4788 
       0.767043         28.5454         16.8476          29.195 
       0.773185         28.1155         16.5386         28.7966 
       0.779291         27.9189         16.2393         28.4312 
       0.785407          27.657         15.9469         27.9666 
       0.791564         27.1719         15.6599         27.6151 
       0.797719         26.5591         15.3802         27.3854 
       0.803834         26.4588         15.1091         26.9337 
       0.809972         25.9914         14.8436         26.5873 
       0.816124         25.6234         14.5839         26.2874 
       0.822261         25.3458         14.3312         25.9171 
       0.828378         25.1849         14.0852         25.5293 
       0.834502         24.8261         13.8448         25.3286 
       0.840667          24.502         13.6085         25.0385 
       0.846816          24.072         13.3784         24.7311 
       0.852925         23.8666         13.1551          24.494 
       0.859047         23.5315         12.9365         24.1463 
       0.865192          23.261         12.7221          23.863 
       0.871341         23.1259         12.5125         23.6136 
       0.877463         22.6608         12.3085         23.3465 
       0.883569         22.4092         12.1097         23.1212 
       0.889708         22.1814         11.9142         22.8299 
       0.895864         21.9093         11.7226         22.5399 
       0.902008         21.6925         11.5356          22.297 
       0.908149          21.461         11.3528         22.1278 
       0.914301         21.3376         11.1737         21.9431 
       0.920448         21.0262         10.9986         21.6095 
       0.926574         20.7538         10.8279         21.3592 
       0.932687         20.5325         10.6612         21.1458 
       0.938823         20.2264         10.4975         20.8723 
       0.944975         20.0878         10.3368         20.6889 
       0.951105         19.8452         10.1801         20.4732 
       0.957225         19.5888         10.0269         20.2594 
       0.963368         19.5669         9.87632         20.0358 
       0.969511         19.2871         9.72887         19.8123 
       0.975621         19.1448         9.58524         19.6715 
       0.981748         18.8355         9.44415         19.4785 
       0.987916         18.6572         9.30502         19.2815 
        0.99406         18.5154         9.16923         19.0644 
        1.00019         18.2728         9.03643         18.8726 
        1.00632         18.1323         8.90639         18.7085 
        1.01246         18.0409         8.77872          18.537 
        1.01859          17.709         8.65378         18.4022 
        1.02471         17.6182         8.53143         18.2101 
        1.03085         17.4747         8.41103         18.0031 
        1.03698         17.1709         8.29322         17.8299 
        1.04314         17.0724         8.17717         17.6408 
        1.04929         16.8796         8.06363         17.5349 
        1.05541          16.683          7.9527          17.434 
        1.06154         16.6095          7.8436         17.2039 
        1.06769         16.4452         7.73638          17.021 
        1.07382         16.3013         7.63152         16.9012 
        1.07993          16.168         7.52885         16.7365 
        1.08607         15.9486         7.42764         16.6098 
        1.09222         15.8564         7.32819         16.4939 
        1.09836         15.6842         7.23069         16.3333 
        1.10449         15.5526         7.13507         16.1736 
        1.11063         15.3255         7.04108         16.0271 
        1.11677         15.2638         6.94882         15.8729 
         1.1229          15.164         6.85838         15.7706 
        1.12903         14.9767         6.76947         15.6371 
        1.13518         14.8596         6.68207         15.4903 
        1.14131         14.7782         6.59626         15.3579 
        1.14745         14.5841         6.51201         15.2585 
        1.15359         14.5422         6.42922         15.0875 
        1.15973         14.3385         6.34784          15.004 
        1.16584         14.1887         6.26824         14.8708 
        1.17197         14.1695         6.18989         14.7967 
        1.17811         13.9743         6.11265         14.6021 
        1.18424         13.8648         6.03695          14.506 
        1.19038         13.7945         5.96232         14.4383 
        1.19652         13.7022         5.88898         14.2729 
        1.20267           13.58         5.81688         14.1863 
        1.20881         13.4318           5.746          14.077 
        1.21495         13.3396         5.67642         13.9827 
        1.22108         13.2228           5.608         13.8612 
         1.2272         13.0841         5.54088         13.7753 
        1.23334         13.0372          5.4747         13.6665 
        1.23949         12.9113         5.40945         13.5275 
        1.24562         12.8106         5.34545         13.4454 
        1.25174          12.734         5.28258         13.3547 
        1.25789         12.6043         5.22054         13.2582 
        1.26402         12.5477          5.1596          13.134 
        1.27014         12.3845         5.09979          13.055 
        1.27628         12.3074         5.04075         12.9451 
        1.28244          12.231         4.98253         12.8914 
        1.28858         12.1662         4.92531         12.7804 
        1.29471          12.066         4.86911         12.6921 
        1.30084         11.9681         4.81384         12.6308 
        1.30697         11.8659         4.75935         12.5107 
        1.31312         11.7427         4.70562         12.4237 
        1.31925         11.6683         4.65289          12.351 
        1.32537         11.6119         4.60103          12.276 
        1.33151         11.5167         4.54976         12.1907 
        1.33765          11.453         4.49931          12.093 
        1.34378         11.3543         4.44972         12.0213 
        1.34992         11.2357         4.40085          11.953 
        1.35606         11.2055         4.35261          11.853 
         1.3622         11.1267         4.30518         11.7748 
        1.36833         11.0054         4.25857         11.7189 
        1.37445         10.9863         4.21267         11.6234 
        1.38059         10.8679         4.16731          11.543 
        1.38675         10.7408         4.12251         11.4864 
        1.39288         10.7175         4.07855         11.3926 
        1.39901         10.6372         4.03525         11.3208 
        1.40515         10.5831         3.99248         11.2439 
         1.4113         10.4895         3.95035         11.1683 
        1.41742         10.3922         3.90899         11.1166 
        1.42355         10.3574         3.86814         11.0564 
         1.4297           10.31         3.82776         10.9615 
        1.43585         10.2401         3.78797         10.9094 
        1.44198          10.149         3.74889         10.8445 
        1.44809         10.0658         3.71044         10.7848 
        1.45423         10.0113         3.67239         10.6909 
        1.46036         9.95626         3.63494         10.6262 
        1.46649         9.89742         3.59801         10.5857 
        1.47263         9.79991         3.56155         10.5365 
        1.47877          9.7572         3.52562         10.4595 
        1.48491         9.72915         3.49013         10.3868 
        1.49104         9.65824          3.4552         10.3202 
        1.49718         9.56624         3.42073         10.2762 
        1.50333          9.5197         3.38667         10.2144 
        1.50947          9.4638         3.35314         10.1562 
         1.5156         9.39599         3.32012          10.102 
        1.52172         9.33078         3.28754         10.0342 
        1.52787         9.28834         3.25534         9.96728 
          1.534         9.21608          3.2236         9.91255 
        1.54013          9.1382         3.19233         9.85109 
        1.54627         9.08768         3.16141         9.78605 
        1.55241         9.03144         3.13089         9.73177 
        1.55855         8.97532         3.10082         9.68719 
        1.56467         8.91781         3.07123          9.6437 
         1.5708         8.90528         3.04194          9.5857 
        1.57695         8.80776         3.01299         9.52698 
        1.58308         8.78861         2.98448           9.484 
        1.58922         8.73524         2.95631         9.43805 
        1.59535         8.65999         2.92853         9.37499 
         1.6015         8.60958         2.90106         9.32531 
        1.60764         8.57722         2.87395         9.27305 
        1.61376         8.49325         2.84727         9.21484 
        1.61989         8.44776         2.82091          9.1901 
        1.62604         8.42875         2.79482         9.14142 
        1.63218         8.37082         2.76907         9.08858 
        1.63831         8.32928         2.74371         9.05385 
        1.64444          8.2528         2.71866         9.00679 
        1.65059         8.21015         2.69386         8.94343 
        1.65673         8.17173          2.6694         8.89523 
        1.66285         8.11516         2.64531         8.85638 
        1.66898         8.09834         2.62151         8.80594 
        1.67512         8.04736         2.59795         8.75118 
        1.68127         8.00974         2.57467         8.71478 
         1.6874         7.94019         2.55172         8.67219 
        1.69353         7.88013         2.52906         8.60178 
        1.69967         7.85081         2.50663         8.57283 
        1.70581         7.81637         2.48448         8.54052 
        1.71193         7.77156         2.46268         8.49606 
        1.71806         7.71821         2.44109          8.4731 
        1.72421         7.67954         2.41972         8.42701 
        1.73035         7.62616         2.39863         8.38524 
        1.73649         7.60334          2.3778         8.35299 
        1.74262         7.57929         2.35723         8.28897 
        1.74876         7.52467         2.33688         8.24258 
        1.75489         7.48454         2.31683         8.21068 
        1.76101         7.42589         2.29701         8.17292 
        1.76715         7.40416          2.2774         8.13618 
        1.77329         7.35095         2.25799         8.08951 
        1.77943         7.31587          2.2388         8.04248 
        1.78557         7.28954         2.21986         8.00792 
        1.79171         7.25241         2.20114          7.9723 
        1.79785         7.18402         2.18263         7.93589 
        1.80399         7.16668         2.16434         7.90425 
        1.81012         7.15189         2.14628         7.87043 
        1.81625         7.09706         2.12843         7.83944 
        1.82239         7.05927         2.11076         7.80876 
        1.82853         7.00661          2.0933         7.76843 
        1.83466         6.96064         2.07606         7.73162 
        1.84078         6.93589         2.05903         7.69629 
        1.84692          6.9165         2.04216         7.64978 
        1.85306         6.85835         2.02546         7.61569 
         1.8592         6.83748         2.00897         7.59207 
        1.86533         6.81047         1.99267         7.55647 
        1.87147         6.77012         1.97654         7.51375 
        1.87761         6.74517         1.96057         7.48413 
