# k  (h/Mpc)    Pcb(k)  (Mpc/h)^3    Pcb_linear(k) (Mpc/h)^3    Pcb_NL(k) (Mpc/h)^3   ShotnoiseSubtracted = false
     0.00783031           19602         19902.1         19711.6 
       0.013688         22414.3         22162.2         21989.5 
       0.019231         20563.9         20458.6         20304.3 
      0.0249154         16910.9         17222.8         17111.9 
      0.0312784         13444.2         13511.9         13453.7 
      0.0375637         10741.6         10637.9         10615.6 
      0.0433917         8802.03         8852.96            8827 
      0.0492413         7792.07         7760.65         7741.14 
      0.0555754         6935.21         7068.73         7052.45 
      0.0619321         6655.07         6568.96         6551.55 
       0.067871         5976.49         6066.45         6058.84 
      0.0738098         5383.19         5447.11         5404.82 
      0.0800417         4637.68         4706.94         4705.41 
      0.0862327         4006.44          3985.7         4056.18 
      0.0921407         3525.48         3405.28         3496.15 
      0.0982031         3064.72         2968.32         3110.01 
       0.104506         2859.68         2681.08         2850.32 
       0.110769         2665.07         2520.36         2642.82 
       0.116806          2545.2         2424.03          2520.2 
       0.122832         2438.87         2329.92         2417.98 
       0.129052         2250.26         2196.51         2274.96 
       0.135211         2090.08         2019.04         2108.03 
       0.141259            1949         1818.15         1940.86 
       0.147318         1785.62         1619.64         1783.28 
       0.153489         1604.47         1446.88         1597.11 
       0.159709          1498.5         1317.04         1486.51 
       0.165845         1431.06         1232.02         1423.61 
       0.171974         1362.67         1178.64         1350.78 
       0.178125         1304.43         1140.41         1317.49 
       0.184229          1249.2            1102         1260.08 
        0.19034          1172.8         1052.78         1200.61 
       0.196428         1136.28         990.565         1134.06 
       0.202534         1083.48         919.511         1075.67 
       0.208729         1015.56         846.984         1001.71 
       0.214876           961.6         782.617          963.54 
       0.220989         919.388         730.846         921.119 
       0.227147         880.025         691.746          883.95 
        0.23329         843.496         663.142         858.421 
       0.239377          825.31         640.598         825.309 
       0.245482         770.343         619.147         790.165 
       0.251667         763.423          595.22         770.012 
       0.257832          729.98         567.929         736.546 
       0.263955         702.235         538.225         706.574 
       0.270079           671.8          508.06         679.653 
        0.27624         660.349         479.606          651.03 
       0.282372         633.389         454.822         631.865 
        0.28843         619.616         434.401         613.821 
       0.294538         586.499         417.392         594.532 
       0.300721         581.652         402.718         577.633 
        0.30691         556.274         389.133          566.97 
       0.313033         543.941         375.692         546.621 
       0.319153             528          361.63         530.116 
       0.325316         512.305         346.906         516.022 
        0.33145         496.219         332.112         495.407 
       0.337538         485.983         317.964         482.068 
       0.343633          471.71         304.842         474.613 
       0.349808         453.309         292.932         464.045 
       0.355968         448.813         282.394         453.645 
       0.362074         442.156         273.018         443.042 
       0.368217         428.507         264.283         429.655 
       0.374374         409.114         255.835         419.487 
       0.380519         407.316         247.495         408.606 
       0.386598         395.278         239.234          403.84 
       0.392688         391.718          231.02         391.131 
        0.39888         380.251         222.898         382.852 
       0.405048         371.908         215.187         375.344 
       0.411186         365.837         208.005         365.479 
       0.417313         358.117          201.37          357.96 
       0.423458         349.327         195.182         351.677 
       0.429607         344.595         189.366         345.133 
       0.435692         335.041         183.882          335.72 
       0.441815         331.104         178.529         332.389 
       0.447964         323.302         173.269         326.674 
       0.454126         316.693         168.118         316.962 
       0.460267         309.845         163.129         314.613 
       0.466387         305.568         158.327         308.689 
        0.47254         300.165         153.711         302.795 
       0.478662         298.452         149.354         296.501 
       0.484765          287.19         145.234         290.968 
       0.490885         284.088         141.297         286.016 
       0.497035         278.407         137.508          282.09 
       0.503198         274.449         133.856         277.948 
       0.509342         272.433         130.332         273.497 
       0.515458         268.369         126.921         269.999 
       0.521598         260.875         123.593         265.242 
       0.527764         257.838          120.36         262.446 
       0.533884         254.666         117.267         258.515 
           0.54         250.874         114.297         253.625 
       0.546137         249.121         111.429         250.557 
       0.552299         244.055          108.66         246.337 
       0.558452         242.484         105.999          243.06 
       0.564573         238.974         103.446           240.9 
       0.570708         233.716         100.974         237.895 
       0.576825          229.56         98.5848         232.996 
       0.582926         227.211         96.2721         230.763 
       0.589034         224.559         94.0242         227.976 
       0.595184         222.655         91.8309         223.627 
       0.601379         218.341         89.6936         221.168 
       0.607522         215.727         87.6455         217.719 
       0.613639         213.628         85.6746          216.96 
       0.619772         209.648         83.7628         214.891 
       0.625918          208.45         81.9074          210.81 
       0.632068          204.51         80.1072         208.251 
       0.638161         203.349         78.3762         207.123 
         0.6443         200.143         76.6829         204.255 
       0.650464         198.037         75.0328         200.163 
       0.656582         195.157          73.443         198.783 
       0.662703         194.967          71.899         196.758 
       0.668861         191.859         70.3915          195.18 
       0.675024         188.836         68.9268         193.102 
       0.681124         187.166         67.5192          190.03 
       0.687237         185.187         66.1486         188.065 
       0.693381         182.112         64.8099         185.849 
       0.699536         180.378         63.5062         184.304 
       0.705665         178.556          62.244         181.948 
       0.711789          177.14         61.0173         180.852 
       0.717957         176.174         59.8153         179.427 
        0.72409         174.081         58.6525         177.405 
       0.730186         171.603         57.5278         175.377 
       0.736317         169.765         56.4267         173.635 
       0.742472         168.164         55.3506         171.824 
       0.748622         166.872         54.3039         170.001 
        0.75476         164.951         53.2867         169.442 
       0.760888         163.207         52.2974         166.807 
       0.767043         162.566         51.3295         165.545 
       0.773185         161.136         50.3883         164.332 
       0.779291         158.084         49.4762         162.275 
       0.785407          157.52         48.5854         160.752 
       0.791564         156.061         47.7112         159.404 
       0.797719          153.38         46.8589         158.303 
       0.803834         152.401         46.0329         157.077 
       0.809972         151.743          45.224         155.652 
       0.816124         150.528         44.4328         154.315 
       0.822261         149.478         43.6628         153.222 
       0.828378         147.826         42.9134         151.524 
       0.834502         146.917          42.181         150.186 
       0.840667         145.032         41.4611         148.887 
       0.846816         143.788         40.7601         147.942 
       0.852925         142.768         40.0798          146.81 
       0.859047          141.77         39.4136         145.652 
       0.865192          139.72         38.7605         144.077 
       0.871341         138.617         38.1218         142.997 
       0.877463         137.737         37.5004          142.25 
       0.883569          137.19         36.8945         141.667 
       0.889708         135.409          36.299           139.9 
       0.895864         134.293         35.7152         139.071 
       0.902008         133.217         35.1455         137.724 
       0.908149         132.671         34.5885         136.703 
       0.914301          130.85         34.0429         135.535 
       0.920448         130.133         33.5095         134.761 
       0.926574           128.9         32.9894         133.573 
       0.932687         128.842         32.4816         132.835 
       0.938823         126.899         31.9827           131.9 
       0.944975         126.306         31.4931         130.884 
       0.951105          125.26         31.0156         129.896 
       0.957225         124.618         30.5489         128.914 
       0.963368         122.491         30.0902         127.973 
       0.969511          122.17         29.6409         126.957 
       0.975621         121.035         29.2033          126.53 
       0.981748         120.871         28.7735          125.71 
       0.987916         119.625         28.3496         124.695 
        0.99406         118.672         27.9359         123.717 
        1.00019         118.226         27.5313         122.833 
        1.00632         116.913         27.1351         121.917 
        1.01246         116.244         26.7461         120.796 
        1.01859         115.826         26.3655         120.409 
        1.02471         114.237         25.9927         119.791 
        1.03085         113.378         25.6259         119.036 
        1.03698         112.815          25.267         118.492 
        1.04314         111.568         24.9134          117.47 
        1.04929         111.452         24.5675          116.73 
        1.05541         110.449         24.2295         116.158 
        1.06154         109.754         23.8971         115.448 
        1.06769         109.371         23.5704         114.767 
        1.07382         108.186          23.251         114.113 
        1.07993         107.494         22.9381         113.316 
        1.08607         106.824         22.6298         112.527 
        1.09222         106.331         22.3268         111.986 
        1.09836         105.447         22.0297         111.182 
        1.10449         104.376         21.7384         110.824 
        1.11063         103.766         21.4521         109.873 
        1.11677         102.986          21.171         109.132 
         1.1229          102.35         20.8954         108.538 
        1.12903         102.004         20.6245         107.879 
        1.13518         101.344         20.3582         107.345 
        1.14131         100.284         20.0968         106.471 
        1.14745         100.143         19.8401          105.96 
        1.15359         99.1455         19.5879         105.469 
        1.15973         98.6699           19.34         104.921 
        1.16584         97.8639         19.0974         104.143 
        1.17197         97.3004         18.8587         103.798 
        1.17811         96.5074         18.6234         103.038 
        1.18424         96.2678         18.3928         102.285 
        1.19038         95.9875         18.1654         102.105 
        1.19652         95.0916         17.9419         101.323 
        1.20267         94.3239         17.7223         100.889 
        1.20881         93.9367         17.5063         100.125 
        1.21495          92.922         17.2943         99.7522 
        1.22108         92.6882         17.0859         99.2286 
         1.2272         91.8217         16.8814          98.589 
        1.23334         91.3907         16.6798         98.3372 
        1.23949         90.9012          16.481         97.6107 
        1.24562         90.2809          16.286         96.7921 
        1.25174         89.9618         16.0944         96.3355 
        1.25789          89.341         15.9054         95.7911 
        1.26402         88.1956         15.7198         95.5378 
        1.27014         87.9686         15.5375         95.0991 
        1.27628         87.6301         15.3576         94.8059 
        1.28244         87.2541         15.1803          94.053 
        1.28858         86.6859         15.0059         93.5476 
        1.29471         85.9298         14.8347         93.1393 
        1.30084         85.8279         14.6663         92.4184 
        1.30697         84.8023         14.5003         92.0126 
        1.31312         84.4167         14.3366         91.5549 
        1.31925         83.8841          14.176         91.2127 
        1.32537         83.4673         14.0179         90.8704 
        1.33151         82.9061         13.8618         90.3135 
        1.33765         82.3846          13.708         89.9114 
        1.34378         81.9983          13.557         89.4757 
        1.34992         81.6998         13.4081         88.9033 
        1.35606         81.1972         13.2611         88.4654 
         1.3622         80.4647         13.1166         88.1348 
        1.36833         80.0911         12.9746         87.4975 
        1.37445         79.7667         12.8347         87.2216 
        1.38059         79.0197         12.6965         86.5637 
        1.38675          78.505           12.56          86.192 
        1.39288         78.4393         12.4261         85.7163 
        1.39901         77.8616         12.2942          85.436 
        1.40515         77.2173         12.1639         85.1735 
         1.4113         77.0209         12.0355         84.8367 
        1.41742         76.4598         11.9095         84.3775 
        1.42355         76.1162         11.7851         83.8301 
         1.4297         75.6879          11.662         83.5344 
        1.43585         75.1653         11.5408         82.9948 
        1.44198         74.7584         11.4217         82.8472 
        1.44809         74.5384         11.3046         82.3569 
        1.45423         74.1484         11.1887         81.8396 
        1.46036         73.5322         11.0746         81.5039 
        1.46649         73.1303          10.962         81.2444 
        1.47263         72.5261          10.851         80.8886 
        1.47877         72.1978         10.7415         80.3413 
        1.48491         71.8413         10.6334         79.9852 
        1.49104         71.5805          10.527         79.8151 
        1.49718         71.1753         10.4219         79.2482 
        1.50333         70.8319         10.3181         78.8217 
        1.50947         70.2582          10.216         78.5524 
         1.5156         70.1118         10.1154          78.225 
        1.52172         69.6595         10.0161         77.8324 
        1.52787         69.1366         9.91803         77.4667 
          1.534         68.7752         9.82135         77.2101 
        1.54013         68.4111         9.72605         76.9075 
        1.54627          68.103         9.63185         76.5279 
        1.55241         67.7504         9.53888         76.1435 
        1.55855         67.3272         9.44727         75.7772 
        1.56467         67.0309         9.35711         75.5015 
         1.5708          66.502         9.26787         75.1484 
        1.57695         66.4697         9.17965         74.7985 
        1.58308         66.0585         9.09279         74.5242 
        1.58922         65.6589           9.007         74.1951 
        1.59535          65.313         8.92234         73.9088 
         1.6015          64.974         8.83865         73.5375 
        1.60764         64.5621         8.75607         73.2025 
        1.61376         64.2967         8.67477         73.0286 
        1.61989         63.9266         8.59445         72.7067 
        1.62604         63.5772         8.51496         72.1412 
        1.63218         63.4166         8.43652         71.7918 
        1.63831         62.7667         8.35926         71.7062 
        1.64444         62.4137         8.28293         71.3612 
        1.65059         62.1354         8.20738         71.0097 
        1.65673         61.7566         8.13285         70.6824 
        1.66285         61.5641         8.05945         70.4224 
        1.66898         61.3246         7.98694         70.1974 
        1.67512           60.74         7.91518         69.8551 
        1.68127         60.5933         7.84423         69.5689 
         1.6874         60.1582         7.77431         69.2963 
        1.69353         59.8624         7.70529         68.9232 
        1.69967         59.7049         7.63694         68.6685 
        1.70581         59.2835         7.56945         68.4189 
        1.71193         58.9584         7.50303         68.1303 
        1.71806         58.6913         7.43726         67.8751 
        1.72421         58.3936         7.37215         67.5803 
        1.73035         58.0941          7.3079         67.2816 
        1.73649         57.8433         7.24442         66.9953 
        1.74262         57.4257         7.18175         66.6787 
        1.74876         57.2193         7.11978         66.4029 
        1.75489         56.8866         7.05866         66.1508 
        1.76101         56.6534         6.99829         65.8874 
        1.76715         56.2171         6.93853         65.6308 
        1.77329         55.9716          6.8794         65.3523 
        1.77943         55.6947         6.82094         65.0784 
        1.78557         55.5051         6.76324         64.8372 
        1.79171         55.0849          6.7062          64.573 
        1.79785         54.7275          6.6498         64.2876 
        1.80399         54.5673         6.59407         64.0141 
        1.81012         54.2992         6.53905         63.7567 
        1.81625         54.0484         6.48468         63.4959 
        1.82239         53.6748         6.43085         63.2412 
        1.82853         53.5005         6.37766         63.0119 
        1.83466         53.2557         6.32512         62.7444 
        1.84078         52.8305         6.27322         62.4866 
        1.84692         52.6718         6.22183           62.33 
        1.85306         52.3724         6.17094          62.041 
         1.8592         52.2083         6.12071          61.702 
        1.86533         51.8295         6.07106         61.5053 
        1.87147         51.4742         6.02191         61.2549 
