# k  (h/Mpc)    Pcb(k)  (Mpc/h)^3    Pcb_linear(k) (Mpc/h)^3    Pcb_NL(k) (Mpc/h)^3   ShotnoiseSubtracted = false
     0.00783031         9823.75         9956.57         9864.44 
       0.013688         11165.4         11090.7         11014.1 
       0.019231           10280         10239.6         10174.9 
      0.0249154         8518.07         8620.65          8581.6 
      0.0312784         6754.22         6763.54         6753.93 
      0.0375637         5369.88         5325.12         5325.38 
      0.0433917         4421.19         4431.69         4431.15 
      0.0492413         3899.78         3884.94          3885.7 
      0.0555754         3497.53         3538.61         3536.81 
      0.0619321         3325.45         3288.45         3284.85 
       0.067871         3011.16         3036.92         3034.77 
      0.0738098         2707.05         2726.88         2716.27 
      0.0800417         2332.49         2356.35         2357.14 
      0.0862327         2000.98          1995.3         2015.84 
      0.0921407         1739.92         1704.74         1731.08 
      0.0982031         1509.28         1485.99         1526.04 
       0.104506         1395.96          1342.2         1389.36 
       0.110769         1303.86         1261.74         1295.06 
       0.116806         1242.91         1213.52         1239.28 
       0.122832          1197.2          1166.4          1190.3 
       0.129052         1111.04         1099.62         1120.48 
       0.135211         1027.74         1010.77          1035.3 
       0.141259         946.308         910.204         943.636 
       0.147318         857.634         810.825         856.935 
       0.153489         767.142          724.34         765.512 
       0.159709         710.008         659.342          705.62 
       0.165845         673.694         616.777         670.208 
       0.171974         638.466         590.055         636.558 
       0.178125         615.552         570.914         619.306 
       0.184229          593.26         551.685         595.205 
        0.19034          554.18         527.046          567.26 
       0.196428         534.725         495.901         533.143 
       0.202534         508.111         460.329         501.586 
       0.208729         471.183         424.021         466.037 
       0.214876         439.299         391.797         442.585 
       0.220989         417.976         365.879         418.981 
       0.227147         396.197         346.305         398.774 
        0.23329         379.902         331.985         385.762 
       0.239377         370.302         320.699         371.615 
       0.245482         346.726          309.96          355.62 
       0.251667         341.334         297.982         345.529 
       0.257832         327.712          284.32         329.787 
       0.263955          313.09         269.449         314.567 
       0.270079         297.966         254.348         300.661 
        0.27624         290.159         240.103         285.944 
       0.282372         278.114         227.696         275.296 
        0.28843         267.273         217.472         265.302 
       0.294538         254.424         208.957         256.571 
       0.300721         250.882         201.611         249.322 
        0.30691         239.177          194.81         242.607 
       0.313033         232.877         188.081         233.628 
       0.319153         223.072         181.041          226.04 
       0.325316         217.354          173.67         219.143 
        0.33145          208.59         166.264         210.104 
       0.337538         204.181         159.181         202.711 
       0.343633         196.473         152.612         197.991 
       0.349808          189.43         146.649          192.67 
       0.355968         185.953         141.374         187.913 
       0.362074         180.991          136.68          182.25 
       0.368217          175.39         132.307         176.049 
       0.374374         168.796         128.078         171.376 
       0.380519         165.897         123.902         166.332 
       0.386598         161.137         119.767         162.874 
       0.392688         158.089         115.654         157.865 
        0.39888         153.805         111.589         153.506 
       0.405048         149.265         107.728         150.187 
       0.411186         145.729         104.132         145.984 
       0.417313         142.297         100.811         141.787 
       0.423458         138.767         97.7132         138.766 
       0.429607         135.452         94.8015         135.698 
       0.435692         131.046         92.0561         132.213 
       0.441815         129.604         89.3765         130.131 
       0.447964         126.674         86.7427         126.937 
       0.454126         121.161         84.1645         123.034 
       0.460267         119.529         81.6664         121.525 
       0.466387         117.728         79.2625         118.504 
        0.47254         114.637         76.9516         116.009 
       0.478662         113.736         74.7705         113.611 
       0.484765         109.859         72.7081          110.45 
       0.490885         107.896         70.7369          108.77 
       0.497035         106.194         68.8403         106.967 
       0.503198         103.125         67.0117         104.751 
       0.509342         101.328         65.2475         102.954 
       0.515458         99.5801         63.5399          101.44 
       0.521598         97.6568          61.874         98.7176 
       0.527764         96.2279         60.2554         96.7866 
       0.533884         94.6632         58.7072         95.2671 
           0.54         92.5601         57.2199         93.3959 
       0.546137         91.4408         55.7844         92.0981 
       0.552299          89.742         54.3979         89.8759 
       0.558452         87.9698         53.0658         88.1735 
       0.564573         86.3892          51.788         87.1707 
       0.570708         84.7115         50.5501         85.7895 
       0.576825         83.5406         49.3542         83.9851 
       0.582926         81.7004         48.1963         82.6003 
       0.589034           80.34          47.071         81.7061 
       0.595184         79.0906         45.9729          79.989 
       0.601379         77.8383          44.903          79.009 
       0.607522         76.1493         43.8776         77.2787 
       0.613639         75.5682          42.891         76.4506 
       0.619772         73.9997         41.9339         75.2087 
       0.625918         72.8553          41.005         74.1043 
       0.632068         71.9778         40.1038         72.8573 
       0.638161         71.0522         39.2372         72.0333 
         0.6443           70.08         38.3895          70.816 
       0.650464         69.1408         37.5634         69.3258 
       0.656582         67.8548         36.7675         68.7411 
       0.662703         66.7278         35.9946         67.5391 
       0.668861         65.7494         35.2398         66.7597 
       0.675024         64.8399         34.5066          65.671 
       0.681124         64.0986         33.8019         64.7358 
       0.687237         62.7789         33.1157         63.8658 
       0.693381         61.9642         32.4456         62.8552 
       0.699536         61.2961         31.7929         62.2832 
       0.705665         61.1482          31.161         61.6664 
       0.711789         59.5754         30.5469         60.4646 
       0.717957         59.0853         29.9451          59.803 
        0.72409         58.0851          29.363         59.2713 
       0.730186          57.112         28.7999         58.5406 
       0.736317          56.904         28.2487         57.5784 
       0.742472         56.1723           27.71         56.9237 
       0.748622         55.3852          27.186         56.1577 
        0.75476         54.7561         26.6767         55.4118 
       0.760888         53.9178         26.1815         54.6329 
       0.767043         53.4092         25.6969         54.3055 
       0.773185         52.6751         25.2257          53.757 
       0.779291          52.079         24.7691         53.0453 
       0.785407         51.6515         24.3232         52.2646 
       0.791564         51.0788         23.8855         51.7308 
       0.797719         50.0415         23.4588         51.3691 
       0.803834         49.7825         23.0453         50.5701 
       0.809972         48.8412         22.6403         50.0008 
       0.816124         48.5023         22.2442          49.552 
       0.822261         48.0661         21.8588         48.9068 
       0.828378         47.7215         21.4836         48.2406 
       0.834502          47.118          21.117         47.8475 
       0.840667         46.5188         20.7565         47.5041 
       0.846816         45.8507         20.4056         46.9754 
       0.852925         45.4773          20.065          46.463 
       0.859047         44.8082         19.7315         45.9142 
       0.865192         44.4674         19.4045         45.4915 
       0.871341         44.1377         19.0848         44.9881 
       0.877463         43.3572         18.7737         44.5461 
       0.883569         43.0661         18.4704         44.2821 
       0.889708         42.7116         18.1723         43.7478 
       0.895864         42.2783           17.88         43.3568 
       0.902008         41.8468         17.5947         42.8226 
       0.908149         41.4714         17.3159         42.5223 
       0.914301         41.0509         17.0428         42.1814 
       0.920448         40.7176         16.7757         41.7198 
       0.926574         40.1588         16.5154         41.2917 
       0.932687         39.9924         16.2612         40.9424 
       0.938823         39.3458         16.0114         40.4477 
       0.944975         39.0283         15.7663         40.1198 
       0.951105         38.6263         15.5272         39.8175 
       0.957225         38.1917         15.2936         39.4261 
       0.963368         38.0874         15.0639         39.0285 
       0.969511         37.7063          14.839         38.6765 
       0.975621         37.4621           14.62         38.4968 
       0.981748         36.9606         14.4048          38.155 
       0.987916         36.5575         14.1926         37.8652 
        0.99406         36.3705         13.9855         37.4243 
        1.00019         35.9716         13.7829         37.0544 
        1.00632         35.7081         13.5846         36.7517 
        1.01246          35.477         13.3898         36.4281 
        1.01859         34.9456         13.1993         36.2795 
        1.02471         34.7826         13.0126         36.0119 
        1.03085         34.4953          12.829         35.6057 
        1.03698         34.1287         12.6493         35.2958 
        1.04314         33.8771         12.4723         34.9563 
        1.04929         33.5663         12.2991         34.7544 
        1.05541          33.195         12.1299         34.6058 
        1.06154         33.1441         11.9635          34.262 
        1.06769         32.7351            11.8         33.9707 
        1.07382         32.5826         11.6401         33.7292 
        1.07993         32.3375         11.4834         33.4601 
        1.08607         32.0421         11.3291         33.2378 
        1.09222         31.8053         11.1774         32.9574 
        1.09836         31.5053         11.0287         32.6903 
        1.10449         31.2953         10.8828         32.4608 
        1.11063         30.9238         10.7395         32.1359 
        1.11677         30.7257         10.5988         31.8804 
         1.1229         30.4923         10.4608         31.7434 
        1.12903         30.0869         10.3252         31.5102 
        1.13518          30.173         10.1919         31.2485 
        1.14131         29.9234          10.061          31.025 
        1.14745         29.4971         9.93251          30.857 
        1.15359         29.4235         9.80623         30.5698 
        1.15973         29.0491         9.68211         30.4121 
        1.16584         28.9044         9.56069         30.0986 
        1.17197         28.7058         9.44119         29.9918 
        1.17811         28.5396         9.32338         29.7437 
        1.18424         28.2776         9.20792         29.5426 
        1.19038          28.066         9.09408         29.3507 
        1.19652         27.9959         8.98222         29.0973 
        1.20267          27.705         8.87225         28.9619 
        1.20881         27.5152         8.76414         28.7804 
        1.21495         27.2652         8.65801         28.5803 
        1.22108          27.137         8.55366         28.3909 
         1.2272          26.797         8.45128         28.2282 
        1.23334         26.6983         8.35034         28.0281 
        1.23949         26.6611         8.25082          27.781 
        1.24562         26.2927          8.1532         27.6191 
        1.25174         26.2096         8.05731         27.4905 
        1.25789         26.0459         7.96268         27.2871 
        1.26402         25.8091         7.86973         27.0901 
        1.27014         25.5798          7.7785         26.9867 
        1.27628         25.4173         7.68845         26.7863 
        1.28244         25.2891         7.59965         26.6278 
        1.28858         25.1464         7.51237         26.4458 
        1.29471         25.0397         7.42666         26.3308 
        1.30084         24.8744         7.34236         26.1361 
        1.30697         24.6542         7.25924          25.938 
        1.31312         24.4693          7.1773         25.8061 
        1.31925         24.3256         7.09687         25.6424 
        1.32537         24.1766         7.01776         25.5308 
        1.33151         23.9879         6.93957          25.352 
        1.33765         23.8867         6.86261         25.1927 
        1.34378         23.7208         6.78698         25.0726 
        1.34992         23.5492         6.71244         24.9246 
        1.35606         23.4121         6.63886          24.782 
         1.3622         23.2802         6.56651         24.6489 
        1.36833         23.0694         6.49542         24.5508 
        1.37445         23.0043         6.42541         24.3792 
        1.38059         22.8326         6.35623         24.2561 
        1.38675          22.604          6.2879         24.1238 
        1.39288         22.5966         6.22084         23.9844 
        1.39901         22.3999          6.1548         23.8363 
        1.40515         22.2435         6.08957         23.7093 
         1.4113         22.1254         6.02531         23.5666 
        1.41742          21.985         5.96222         23.4132 
        1.42355         21.8658         5.89992         23.3357 
         1.4297         21.7494         5.83832          23.162 
        1.43585         21.6748         5.77763         23.0661 
        1.44198         21.4127         5.71803         22.9445 
        1.44809         21.3573         5.65939         22.8111 
        1.45423          21.229         5.60135         22.6584 
        1.46036         21.1473         5.54423         22.5472 
        1.46649         20.9906         5.48789         22.4608 
        1.47263         20.8487         5.43229         22.3606 
        1.47877         20.7777         5.37748         22.2312 
        1.48491         20.7428         5.32335         22.1152 
        1.49104         20.5082         5.27008         22.0072 
        1.49718         20.3315         5.21749         21.8989 
        1.50333         20.3175         5.16554         21.7711 
        1.50947         20.2011         5.11441         21.6585 
         1.5156         20.0808         5.06404         21.5619 
        1.52172         19.9639         5.01435         21.4564 
        1.52787         19.8648         4.96524         21.3365 
          1.534         19.7615         4.91683          21.223 
        1.54013         19.5973         4.86913         21.1049 
        1.54627         19.5413         4.82196         20.9983 
        1.55241          19.347         4.77542         20.9054 
        1.55855         19.3045         4.72956         20.8051 
        1.56467          19.121         4.68442         20.7304 
         1.5708         19.1462         4.63974         20.6202 
        1.57695         18.9556         4.59558         20.5017 
        1.58308         18.8596          4.5521         20.4154 
        1.58922         18.7969         4.50915         20.3118 
        1.59535         18.6856         4.46676         20.2116 
         1.6015          18.544         4.42487         20.1077 
        1.60764         18.4436         4.38352          20.004 
        1.61376         18.3306         4.34283         19.9222 
        1.61989         18.2298         4.30261         19.8515 
        1.62604         18.1867         4.26282         19.7576 
        1.63218         18.1198         4.22355         19.6709 
        1.63831         17.9653         4.18487         19.6009 
        1.64444         17.8945         4.14666         19.5012 
        1.65059         17.7936         4.10883         19.3895 
        1.65673         17.6623         4.07152          19.311 
        1.66285         17.6381         4.03478         19.2467 
        1.66898          17.527         3.99848         19.1535 
        1.67512          17.443         3.96255         19.0413 
        1.68127         17.3227         3.92703         18.9594 
         1.6874         17.2211         3.89203          18.874 
        1.69353         17.1747         3.85748         18.7474 
        1.69967         17.0665         3.82326         18.6863 
        1.70581         16.9787         3.78947         18.6325 
        1.71193         16.9203         3.75622         18.5526 
        1.71806         16.7929         3.72329         18.4727 
        1.72421         16.6992          3.6907         18.3874 
        1.73035          16.607         3.65853           18.32 
        1.73649         16.5716         3.62675         18.2549 
        1.74262         16.4699         3.59538         18.1371 
        1.74876         16.4236         3.56435         18.0356 
        1.75489         16.3249         3.53376         17.9807 
        1.76101         16.2263         3.50353         17.9392 
        1.76715         16.1594         3.47362         17.8483 
        1.77329          16.105         3.44402         17.7512 
        1.77943           16.01         3.41475         17.6716 
        1.78557          15.904         3.38586         17.5992 
        1.79171         15.8215         3.35731         17.5333 
        1.79785          15.739         3.32907         17.4718 
        1.80399         15.7151         3.30117         17.4079 
        1.81012         15.6207         3.27363         17.3293 
        1.81625         15.5708         3.24641         17.2498 
        1.82239         15.4823         3.21946         17.1813 
        1.82853         15.3901         3.19283         17.1177 
        1.83466         15.3324         3.16653         17.0505 
        1.84078         15.2036         3.14055         16.9733 
        1.84692          15.169         3.11482         16.8895 
        1.85306         15.1014         3.08934         16.8362 
         1.8592         15.0122         3.06419         16.7868 
        1.86533          14.939         3.03934         16.7016 
        1.87147         14.8928         3.01473         16.6222 
