# k  (h/Mpc)    Pcb(k)  (Mpc/h)^3    Pcb_linear(k) (Mpc/h)^3    Pcb_NL(k) (Mpc/h)^3   ShotnoiseSubtracted = false
     0.00783031         11671.8           11834         11723.9 
       0.013688         13283.5           13181         13087.8 
       0.019231         12220.9           12169         12089.5 
      0.0249154         10109.8         10244.9         10194.9 
      0.0312784         8021.18         8037.79         8022.03 
      0.0375637         6383.68         6328.33          6326.1 
      0.0433917         5250.49         5266.56         5263.15 
      0.0492413         4634.84          4616.8          4615.4 
      0.0555754         4150.16         4205.22         4201.74 
      0.0619321         3954.24         3907.93         3902.58 
       0.067871         3574.03            3609         3606.24 
      0.0738098         3214.25         3240.56         3225.72 
      0.0800417         2769.24         2800.23         2800.95 
      0.0862327         2379.09         2371.16         2399.12 
      0.0921407         2073.78         2025.86          2061.7 
      0.0982031         1799.29         1765.91         1820.82 
       0.104506         1667.68         1595.03         1659.98 
       0.110769         1556.86         1499.42         1545.49 
       0.116806          1484.3         1442.11          1477.9 
       0.122832         1428.44         1386.12         1419.28 
       0.129052         1323.82         1306.76         1335.84 
       0.135211         1225.77         1201.17          1235.1 
       0.141259         1131.69         1081.66         1127.99 
       0.147318         1027.86         963.559         1027.04 
       0.153489         920.124         860.782         917.741 
       0.159709         853.493         783.542          847.64 
       0.165845          810.82         732.958         806.696 
       0.171974         769.114         701.203         765.792 
       0.178125         740.427         678.456         745.562 
       0.184229         712.843         655.604         715.823 
        0.19034          665.81         626.325         682.102 
       0.196428         643.497         589.312         641.497 
       0.202534           612.2          547.04         604.665 
       0.208729         568.971         503.892         562.114 
       0.214876         532.014         465.599         535.586 
       0.220989         506.763         434.799         508.087 
       0.227147         481.401         411.537         484.308 
        0.23329         461.594          394.52         468.994 
       0.239377         450.296         381.108          451.53 
       0.245482         420.788         368.347         431.962 
       0.251667          415.04         354.112         420.105 
       0.257832         398.267         337.876         401.058 
       0.263955         381.174         320.204         383.005 
       0.270079         363.064         302.258         366.674 
        0.27624         354.535          285.33         349.232 
       0.282372         339.985         270.586         336.739 
        0.28843         327.807         258.436         324.998 
       0.294538         311.543         248.318         314.539 
       0.300721         307.788         239.588         305.732 
        0.30691         293.389         231.506         297.984 
       0.313033         286.102         223.509         286.994 
       0.319153         274.803         215.143         277.826 
       0.325316         267.375         206.384          269.57 
        0.33145         257.101         197.583         258.504 
       0.337538         251.936         189.165         249.848 
       0.343633         242.726         181.359         244.656 
       0.349808         233.866         174.273          238.31 
       0.355968          230.08         168.004         232.588 
       0.362074         224.554         162.426         225.862 
       0.368217         217.763         157.229         218.301 
       0.374374         208.922         152.203          212.61 
       0.380519         205.984         147.241         206.518 
       0.386598         200.159         142.327         202.754 
       0.392688          196.79          137.44         196.321 
        0.39888         191.511         132.608          191.26 
       0.405048         185.973         128.021         187.417 
       0.411186         181.821         123.748         182.002 
       0.417313         177.799           119.8         177.079 
       0.423458         173.476         116.119         173.492 
       0.429607         169.653         112.659         169.834 
       0.435692         164.365         109.396         165.422 
       0.441815         162.557         106.212         163.054 
       0.447964         158.785         103.082         159.337 
       0.454126         152.456         100.018         154.431 
       0.460267         150.241         97.0496         152.751 
       0.466387         148.209         94.1929         149.176 
        0.47254         144.289         91.4467         146.065 
       0.478662         143.529         88.8548         143.087 
       0.484765         138.438         86.4039         139.302 
       0.490885          136.19         84.0614         137.185 
       0.497035         133.939         81.8075         134.985 
       0.503198         130.384         79.6345         132.424 
       0.509342         128.474          77.538         130.233 
       0.515458         126.339         75.5087         128.362 
       0.521598         123.687         73.5289          125.16 
       0.527764         122.048         71.6055         123.055 
       0.533884         120.122         69.7657         121.149 
           0.54         117.717         67.9982         118.733 
       0.546137         116.399         66.2923         117.187 
       0.552299         114.107         64.6447         114.516 
       0.558452          112.35         63.0616         112.482 
       0.564573         110.423         61.5431         111.289 
       0.570708         108.077          60.072         109.645 
       0.576825         106.629         58.6508         107.302 
       0.582926         104.452         57.2749         105.701 
       0.589034         102.998         55.9376         104.588 
       0.595184         101.463         54.6327         102.365 
       0.601379          99.895         53.3612         101.221 
       0.607522          97.914         52.1427         99.1831 
       0.613639         97.0321         50.9702         98.2521 
       0.619772         95.0643         49.8328          96.785 
       0.625918          93.739         48.7289         95.2526 
       0.632068         92.5427          47.658         93.7246 
       0.638161         91.5356         46.6282         92.8625 
         0.6443          90.295         45.6207         91.4093 
       0.650464         89.2083         44.6391         89.4373 
       0.656582         87.5162         43.6932         88.7408 
       0.662703         86.4234         42.7747         87.3057 
       0.668861         85.0032         41.8778         86.3542 
       0.675024         83.8025         41.0065         85.0622 
       0.681124         83.0681          40.169          83.887 
       0.687237         81.4553         39.3536         82.8074 
       0.693381         80.2639         38.5572         81.5585 
       0.699536         79.6054         37.7816         80.7536 
       0.705665         79.2462         37.0307         80.0678 
       0.711789         77.4248         36.3009         78.7295 
       0.717957         77.0173         35.5858         77.8038 
        0.72409         75.6326          34.894          77.175 
       0.730186         74.4074         34.2249         76.2939 
       0.736317         74.0295         33.5698         75.0847 
       0.742472         73.2386         32.9296         74.2889 
       0.748622         72.3057         32.3069          73.322 
        0.75476         71.4924         31.7017         72.4202 
       0.760888         70.4847         31.1132         71.3917 
       0.767043         69.9746         30.5373         70.9663 
       0.773185         69.0741         29.9774          70.347 
       0.779291         68.0524         29.4347           69.42 
       0.785407         67.6088         28.9048         68.4712 
       0.791564         66.9996         28.3847         67.8672 
       0.797719         65.5878         27.8777         67.3947 
       0.803834         65.2581         27.3863         66.3953 
       0.809972         64.2417          26.905         65.7046 
       0.816124         63.8474         26.4343         65.1527 
       0.822261         63.2597         25.9762         64.3767 
       0.828378         62.7742         25.5304         63.5288 
       0.834502         62.1553         25.0947         62.9654 
       0.840667         61.2626         24.6664         62.5958 
       0.846816         60.4629         24.2493         61.9456 
       0.852925          59.995         23.8446          61.307 
       0.859047         59.1618         23.4483         60.6391 
       0.865192          58.744         23.0597         60.0806 
       0.871341         58.2313         22.6797         59.4263 
       0.877463         57.3379           22.31          58.896 
       0.883569         57.0958         21.9496         58.5816 
       0.889708         56.5331         21.5953         57.9095 
       0.895864          56.019          21.248         57.4771 
       0.902008         55.4853          20.909         56.7778 
       0.908149         55.0253         20.5777         56.3428 
       0.914301         54.4284          20.253         55.8827 
       0.920448          54.031         19.9357         55.4024 
       0.926574         53.3792         19.6263         54.8379 
       0.932687         53.2737         19.3242         54.4069 
       0.938823         52.3969         19.0274         53.8107 
       0.944975         51.8579         18.7361         53.3554 
       0.951105          51.436          18.452         52.9408 
       0.957225         50.9118         18.1744         52.5065 
       0.963368         50.5875         17.9015          51.996 
       0.969511         50.2891         17.6342         51.5667 
       0.975621         49.9697         17.3739          51.408 
       0.981748         49.3722         17.1182         50.9637 
       0.987916         48.8358          16.866         50.5615 
        0.99406         48.5503         16.6198         49.9976 
        1.00019         48.1235         16.3791         49.5185 
        1.00632         47.7107         16.1434         49.1502 
        1.01246         47.4238          15.912         48.7132 
        1.01859         46.7569         15.6856         48.5457 
        1.02471         46.5151         15.4638         48.2507 
        1.03085         46.1279         15.2456         47.7325 
        1.03698         45.7871          15.032         47.3414 
        1.04314         45.4009         14.8217         46.9299 
        1.04929         45.0176         14.6159         46.6791 
        1.05541         44.5228         14.4148         46.4599 
        1.06154         44.4797          14.217         46.0456 
        1.06769         44.0106         14.0227         45.6965 
        1.07382         43.7825         13.8326         45.3864 
        1.07993         43.4557         13.6465         45.0617 
        1.08607          43.099         13.4631         44.7439 
        1.09222         42.8387         13.2828         44.3628 
        1.09836         42.3963         13.1061         44.0206 
        1.10449         42.1979         12.9328         43.7607 
        1.11063         41.7347         12.7624         43.3066 
        1.11677         41.4747         12.5952          43.002 
         1.1229         41.0918         12.4313         42.8784 
        1.12903            40.6         12.2701         42.5281 
        1.13518         40.7123         12.1117         42.2044 
        1.14131         40.4072         11.9562         41.9156 
        1.14745         39.9198         11.8035         41.7078 
        1.15359         39.7442         11.6534         41.3644 
        1.15973         39.2925         11.5059         41.1828 
        1.16584         39.0904         11.3616         40.7258 
        1.17197          38.826         11.2196         40.6267 
        1.17811         38.6511         11.0796         40.3049 
        1.18424         38.2853         10.9424         40.0799 
        1.19038         38.0008         10.8071         39.7693 
        1.19652         37.8696         10.6742         39.4873 
        1.20267         37.4392         10.5435         39.3123 
        1.20881         37.2896          10.415          39.044 
        1.21495         36.9321         10.2889         38.7681 
        1.22108         36.8482         10.1649         38.5819 
         1.2272         36.3416         10.0432          38.339 
        1.23334          36.194         9.92326          38.126 
        1.23949         36.1442         9.80499         37.7953 
        1.24562         35.6824         9.68899         37.5418 
        1.25174         35.5641         9.57504         37.4094 
        1.25789         35.4041         9.46257         37.1394 
        1.26402         35.0906         9.35212         36.9314 
        1.27014         34.7757         9.24371         36.7936 
        1.27628          34.551         9.13669         36.5085 
        1.28244         34.3761         9.03116         36.2503 
        1.28858          34.215         8.92745           36.04 
        1.29471         34.0689         8.82559         35.9056 
        1.30084         33.8478         8.72541         35.6151 
        1.30697         33.5575         8.62664         35.4281 
        1.31312         33.3303         8.52925         35.2678 
        1.31925         33.1465         8.43368         35.0172 
        1.32537         32.9658         8.33966         34.8805 
        1.33151         32.6836         8.24675         34.6365 
        1.33765         32.5397          8.1553         34.4366 
        1.34378         32.3377         8.06542         34.2745 
        1.34992          32.135         7.97684          34.066 
        1.35606         31.9492         7.88939         33.8873 
         1.3622         31.7234         7.80342         33.7153 
        1.36833          31.512         7.71893         33.5677 
        1.37445         31.3628         7.63574         33.3759 
        1.38059         31.1491         7.55353          33.217 
        1.38675         30.9239         7.47232         33.0077 
        1.39288         30.8272         7.39264         32.8338 
        1.39901         30.6364         7.31416         32.6618 
        1.40515         30.4079         7.23664         32.5418 
         1.4113         30.2558         7.16027         32.3626 
        1.41742         30.1496          7.0853         32.0993 
        1.42355         29.8821         7.01127         32.0022 
         1.4297         29.7701         6.93807          31.804 
        1.43585         29.6505         6.86594         31.6536 
        1.44198         29.3316         6.79512         31.5048 
        1.44809         29.2696         6.72542         31.3052 
        1.45423         29.0892         6.65646         31.1425 
        1.46036         28.9587         6.58858         31.0016 
        1.46649         28.7888         6.52162         30.8791 
        1.47263         28.5756         6.45555         30.7449 
        1.47877          28.427         6.39042         30.5479 
        1.48491         28.4368         6.32609         30.3928 
        1.49104         28.1178         6.26278         30.2774 
        1.49718         27.8513         6.20029          30.136 
        1.50333         27.8849         6.13856         29.9545 
        1.50947         27.7128         6.07779         29.8006 
         1.5156         27.5117         6.01794         29.6735 
        1.52172         27.4091         5.95889          29.541 
        1.52787         27.2992         5.90052         29.4051 
          1.534         27.1197           5.843         29.2507 
        1.54013          26.923          5.7863         29.0899 
        1.54627         26.8585         5.73026         28.9492 
        1.55241         26.5754         5.67495         28.8205 
        1.55855         26.5263         5.62044         28.6902 
        1.56467         26.2495         5.56681         28.5865 
         1.5708         26.3155         5.51371         28.4566 
        1.57695         26.0949         5.46124         28.3202 
        1.58308         25.9304         5.40956         28.1893 
        1.58922         25.8492         5.35852         28.0346 
        1.59535         25.7427         5.30815         27.9187 
         1.6015         25.5307         5.25836         27.7696 
        1.60764         25.3457         5.20923         27.6345 
        1.61376         25.2633         5.16087         27.5574 
        1.61989          25.108         5.11308         27.4252 
        1.62604         24.9973         5.06579         27.2903 
        1.63218         24.9798         5.01913         27.1718 
        1.63831         24.7389         4.97316          27.062 
        1.64444         24.6346         4.92775         26.9414 
        1.65059         24.5398          4.8828         26.8064 
        1.65673         24.3555         4.83846         26.6905 
        1.66285         24.2538         4.79479         26.6029 
        1.66898         24.1333         4.75165         26.5071 
        1.67512          24.009         4.70896         26.3521 
        1.68127         23.8593         4.66675         26.2207 
         1.6874         23.7093         4.62516         26.1176 
        1.69353         23.6489         4.58409         25.9966 
        1.69967         23.5169         4.54343         25.8887 
        1.70581          23.456         4.50328         25.8048 
        1.71193         23.3303         4.46376          25.707 
        1.71806         23.1217         4.42464         25.5564 
        1.72421         23.0228          4.3859         25.4535 
        1.73035         22.9145         4.34767         25.3818 
        1.73649          22.771         4.30991         25.2829 
        1.74262         22.6864         4.27263          25.129 
        1.74876         22.6128         4.23576          25.001 
        1.75489         22.5022          4.1994         24.9193 
        1.76101         22.3703         4.16348          24.847 
        1.76715         22.2879         4.12793          24.735 
        1.77329         22.2001         4.09275         24.6256 
        1.77943          22.092         4.05797         24.5311 
        1.78557          21.917         4.02364         24.4322 
        1.79171         21.8195         3.98971         24.3296 
        1.79785         21.7199         3.95616         24.2378 
        1.80399         21.6906           3.923         24.1582 
        1.81012         21.5117         3.89027         24.0462 
        1.81625         21.4658         3.85792         23.9278 
        1.82239         21.3261          3.8259         23.8395 
        1.82853         21.2414         3.79425         23.7689 
        1.83466         21.1225         3.76299         23.6685 
        1.84078          20.943         3.73212         23.5482 
        1.84692         20.9094         3.70154          23.461 
        1.85306         20.7928         3.67127         23.3858 
         1.8592         20.6916         3.64138         23.2979 
        1.86533         20.5954         3.61185         23.1998 
        1.87147         20.5603          3.5826          23.103 
