# k  (h/Mpc)    P(k)  (Mpc/h)^3    P_linear(k)  (Mpc/h)^3     P_NL(k)  ShotnoiseSubtracted = false
     0.00783031         197.872         199.913          198.04 
       0.013688         222.078         222.968         221.584 
       0.019231         205.853         205.951         204.879 
      0.0249154         173.141         173.432         172.928 
      0.0312784         136.408         136.091          136.23 
      0.0375637         107.577         107.158         107.369 
      0.0433917         89.4104         89.1838         89.3895 
      0.0492413         78.3658         78.1839         78.3596 
      0.0555754         71.1895          71.216         71.2549 
      0.0619321         66.2838         66.1828         66.1465 
       0.067871         61.0263         61.1213         61.0426 
      0.0738098         54.7863         54.8823         54.8064 
      0.0800417         47.3423         47.4254         47.4056 
      0.0862327         40.1768          40.159         40.1999 
      0.0921407         34.3763         34.3113         34.3808 
      0.0982031         29.9388         29.9088         29.9978 
       0.104506         27.1132         27.0147         27.0952 
       0.110769         25.4449         25.3954         25.4451 
       0.116806         24.4003         24.4248         24.4389 
       0.122832          23.475         23.4765         23.4742 
       0.129052          22.084         22.1324         22.1212 
       0.135211         20.2993         20.3442         20.3419 
       0.141259         18.3242         18.3201         18.3372 
       0.147318         16.3601         16.3199         16.3612 
       0.153489         14.6104         14.5792         14.6227 
       0.159709         13.3014          13.271         13.3206 
       0.165845         12.4734         12.4143         12.4664 
       0.171974         11.8813         11.8764         11.9154 
       0.178125         11.4996         11.4912         11.5265 
       0.184229         11.1178         11.1041         11.1312 
        0.19034         10.5842         10.6082         10.6305 
       0.196428         9.98108         9.98137         10.0006 
       0.202534         9.30297         9.26538         9.29108 
       0.208729         8.55278          8.5346         8.56672 
       0.214876          7.8918         7.88602         7.92838 
       0.220989         7.39722         7.36436         7.40943 
       0.227147         6.97813         6.97036         7.01246 
        0.23329         6.68768         6.68211         6.72438 
       0.239377         6.46012         6.45498         6.49384 
       0.245482         6.23276         6.23881         6.27001 
       0.251667         6.00817         5.99772         6.03083 
       0.257832         5.72504         5.72275          5.7541 
       0.263955         5.43191         5.42343         5.45446 
       0.270079         5.13226         5.11947         5.15198 
        0.27624         4.85781         4.83274         4.86527 
       0.282372         4.60893         4.58299         4.61945 
        0.28843         4.39172         4.37725         4.41405 
       0.294538         4.21842         4.20587         4.24103 
       0.300721         4.08011           4.058         4.09321 
        0.30691         3.93184          3.9211         3.95566 
       0.313033         3.79521         3.78569         3.81759 
       0.319153         3.63743         3.64398         3.67591 
       0.325316         3.51417         3.49561         3.52861 
        0.33145         3.36176         3.34654         3.37829 
       0.337538         3.21888         3.20398          3.2352 
       0.343633         3.08054         3.07175         3.10266 
       0.349808         2.96602         2.95175          2.9845 
       0.355968           2.862         2.84556          2.8814 
       0.362074         2.76275         2.75108         2.78399 
       0.368217         2.67437         2.66306         2.69257 
       0.374374         2.58298         2.57793         2.60874 
       0.380519         2.50479         2.49389         2.52283 
       0.386598         2.42409         2.41066         2.44015 
       0.392688         2.34589         2.32788         2.35724 
        0.39888         2.25985         2.24605         2.27597 
       0.405048         2.18328         2.16835         2.19574 
       0.411186         2.11138         2.09596         2.12591 
       0.417313         2.04167         2.02912         2.05835 
       0.423458         1.98251         1.96676         1.99597 
       0.429607         1.91908         1.90816         1.93591 
       0.435692         1.86402         1.85289         1.88111 
       0.441815         1.80983         1.79897         1.82819 
       0.447964         1.76175         1.74595         1.77347 
       0.454126         1.70438         1.69406         1.72125 
       0.460267         1.65448         1.64377         1.67203 
       0.466387         1.60364         1.59539          1.6218 
        0.47254         1.55839         1.54887         1.57547 
       0.478662         1.51661         1.50498         1.53072 
       0.484765         1.47173         1.46346          1.4889 
       0.490885         1.43416         1.42379         1.45132 
       0.497035         1.40063         1.38561         1.41357 
       0.503198         1.36033         1.34881         1.37399 
       0.509342           1.327          1.3133         1.33877 
       0.515458         1.28964         1.27893         1.30548 
       0.521598         1.25627          1.2454         1.26952 
       0.527764         1.22089         1.21282         1.23683 
       0.533884         1.19488         1.18166         1.20522 
           0.54         1.16326         1.15172         1.17486 
       0.546137         1.13491         1.12283         1.14684 
       0.552299         1.10666         1.09492         1.11651 
       0.558452         1.07765         1.06811         1.09029 
       0.564573         1.05376         1.04239         1.06639 
       0.570708         1.02824         1.01747         1.04055 
       0.576825         1.00306          0.9934         1.01565 
       0.582926        0.981905        0.970093        0.992709 
       0.589034        0.954653        0.947443        0.971097 
       0.595184        0.933535        0.925342        0.945698 
       0.601379        0.912188        0.903805        0.926723 
       0.607522        0.893602        0.883168        0.905251 
       0.613639        0.875163        0.863308        0.884733 
       0.619772        0.852533        0.844043        0.866347 
       0.625918        0.835043        0.825347        0.846337 
       0.632068        0.818249        0.807208        0.827491 
       0.638161        0.799151        0.789765        0.810302 
         0.6443        0.782199        0.772702        0.792427 
       0.650464         0.76352        0.756075        0.777005 
       0.656582        0.749216        0.740055        0.760361 
       0.662703        0.733552        0.724497        0.744121 
       0.668861        0.720362        0.709306        0.729631 
       0.675024        0.704026        0.694547        0.714413 
       0.681124        0.688269        0.680363        0.699507 
       0.687237        0.675909        0.666552        0.684654 
       0.693381        0.662673        0.653063         0.67061 
       0.699536        0.646802        0.639926        0.657781 
       0.705665        0.634485        0.627207        0.646589 
       0.711789        0.623592        0.614846        0.633474 
       0.717957        0.609965        0.602734        0.620471 
        0.72409        0.598609        0.591017        0.609058 
       0.730186        0.586592        0.579684         0.59702 
       0.736317        0.577999        0.568589        0.585335 
       0.742472        0.566348        0.557746        0.575471 
       0.748622        0.554858        0.547198        0.565254 
        0.75476        0.543803        0.536949        0.553891 
       0.760888        0.533408         0.52698        0.543818 
       0.767043        0.526413        0.517227        0.534281 
       0.773185        0.514988        0.507742        0.525016 
       0.779291        0.505946        0.498551        0.515557 
       0.785407        0.496825        0.489576        0.506077 
       0.791564          0.4886        0.480766         0.49723 
       0.797719        0.480506        0.472178        0.487856 
       0.803834        0.472296        0.463855        0.479703 
       0.809972        0.463368        0.455704        0.472213 
       0.816124        0.454921        0.447732        0.463312 
       0.822261        0.446486        0.439973        0.455122 
       0.828378        0.439671        0.432421        0.447736 
       0.834502        0.433069        0.425042        0.439811 
       0.840667        0.424228        0.417787        0.432836 
       0.846816        0.417419        0.410724        0.426558 
       0.852925        0.411807        0.403868        0.418855 
       0.859047        0.404796        0.397155        0.412837 
       0.865192        0.397184        0.390574        0.405551 
       0.871341        0.390843        0.384138        0.398835 
       0.877463        0.385596        0.377877        0.392131 
       0.883569        0.378626        0.371772        0.386507 
       0.889708        0.372816        0.365771        0.380373 
       0.895864        0.366491        0.359888        0.374042 
       0.902008        0.360617        0.354147        0.368306 
       0.908149        0.354928        0.348535        0.362551 
       0.914301        0.348277        0.343036        0.356793 
       0.920448        0.343357        0.337662        0.351273 
       0.926574        0.338051        0.332422        0.346223 
       0.932687        0.332494        0.327304        0.340293 
       0.938823        0.328649        0.322277        0.336131 
       0.944975        0.323513        0.317344        0.330266 
       0.951105        0.318711        0.312532        0.325435 
       0.957225        0.314647        0.307829        0.320973 
       0.963368        0.309499        0.303207        0.315988 
       0.969511        0.304385         0.29868        0.311524 
       0.975621        0.299806        0.294271        0.306389 
       0.981748        0.296443        0.289939        0.301916 
       0.987916        0.291596        0.285668        0.298362 
        0.99406        0.287169        0.281499         0.29435 
        1.00019        0.283673        0.277422        0.289984 
        1.00632        0.278687         0.27343         0.28544 
        1.01246        0.274744        0.269511        0.281395 
        1.01859        0.271307        0.265675        0.277902 
        1.02471        0.267342        0.261918        0.273958 
        1.03085        0.264422        0.258222        0.269672 
        1.03698        0.260098        0.254605        0.265877 
        1.04314        0.256639        0.251043        0.262345 
        1.04929        0.252777        0.247557        0.258898 
        1.05541        0.249895        0.244151        0.255662 
        1.06154        0.246006        0.240802        0.252167 
        1.06769         0.24251         0.23751        0.248831 
        1.07382        0.239316        0.234291        0.245414 
        1.07993        0.235896        0.231139        0.242123 
        1.08607        0.233618        0.228032         0.23924 
        1.09222        0.229957        0.224979        0.235667 
        1.09836        0.227607        0.221985        0.232818 
        1.10449        0.224607         0.21905         0.22985 
        1.11063        0.220941        0.216164        0.226546 
        1.11677        0.217913        0.213332        0.224007 
         1.1229        0.215488        0.210555        0.221064 
        1.12903        0.212565        0.207826        0.218206 
        1.13518        0.210066        0.205142         0.21538 
        1.14131        0.207186        0.202508        0.212778 
        1.14745        0.203808        0.199922          0.2097 
        1.15359        0.201763         0.19738        0.207512 
        1.15973        0.198841        0.194882        0.205015 
        1.16584        0.197086        0.192438        0.202129 
        1.17197        0.194494        0.190032        0.199955 
        1.17811        0.192426        0.187661        0.197596 
        1.18424        0.190226        0.185337        0.194894 
        1.19038        0.187417        0.183046        0.192555 
        1.19652        0.184728        0.180794        0.190451 
        1.20267        0.183194        0.178581         0.18778 
        1.20881        0.180727        0.176405        0.185758 
        1.21495        0.178946        0.174268        0.183945 
        1.22108        0.176482        0.172168        0.181334 
         1.2272        0.174691        0.170107        0.179113 
        1.23334        0.172305        0.168076        0.177135 
        1.23949         0.17042        0.166073        0.175197 
        1.24562        0.168368        0.164108        0.173164 
        1.25174        0.166577        0.162178        0.171059 
        1.25789        0.164865        0.160273        0.169146 
        1.26402        0.162365        0.158402        0.167228 
        1.27014        0.160666        0.156566        0.165153 
        1.27628        0.159141        0.154753        0.163181 
        1.28244        0.156764        0.152966        0.161462 
        1.28858        0.155282        0.151209        0.159513 
        1.29471        0.153895        0.149484        0.157831 
        1.30084        0.151826        0.147787         0.15635 
        1.30697        0.150046        0.146114        0.154499 
        1.31312        0.148002        0.144465        0.152681 
        1.31925        0.146576        0.142846        0.151148 
        1.32537        0.145186        0.141254        0.149544 
        1.33151        0.143779         0.13968        0.147902 
        1.33765        0.142128        0.138131        0.146274 
        1.34378        0.140245        0.136609        0.144651 
        1.34992         0.13882        0.135108         0.14312 
        1.35606        0.137388        0.133627        0.141457 
         1.3622        0.135945        0.132171        0.140007 
        1.36833        0.134333         0.13074         0.13864 
        1.37445        0.132594        0.129331        0.137222 
        1.38059        0.131376        0.127938        0.135686 
        1.38675         0.13044        0.126563        0.134147 
        1.39288        0.128892        0.125213        0.132724 
        1.39901        0.127462        0.123884        0.131406 
        1.40515        0.126336        0.122571         0.13002 
         1.4113        0.124663        0.121278         0.12883 
        1.41742        0.123464        0.120008        0.127699 
        1.42355        0.122463        0.118754        0.125916 
         1.4297        0.120892        0.117514        0.125014 
        1.43585        0.119741        0.116292        0.123554 
        1.44198        0.118762        0.115093        0.122036 
        1.44809        0.117323        0.113912        0.121243 
        1.45423        0.116239        0.112744         0.11967 
        1.46036         0.11499        0.111594        0.118596 
        1.46649        0.114087         0.11046        0.117613 
        1.47263        0.112813        0.109341        0.116332 
        1.47877        0.111417        0.108238        0.115255 
        1.48491        0.110524        0.107149        0.114214 
        1.49104         0.10916        0.106076        0.112745 
        1.49718         0.10807        0.105018        0.112014 
        1.50333        0.107329        0.103972        0.110641 
        1.50947         0.10611        0.102943        0.109502 
         1.5156        0.105018        0.101929        0.108674 
        1.52172        0.104101        0.100929        0.107488 
        1.52787        0.103044       0.0999404        0.106432 
          1.534        0.101924       0.0989662        0.105563 
        1.54013        0.100975       0.0980059        0.104518 
        1.54627        0.100219       0.0970567        0.103445 
        1.55241        0.099015       0.0961199        0.102474 
        1.55855       0.0980642       0.0951967        0.101489 
        1.56467       0.0975368       0.0942882        0.100609 
         1.5708       0.0963652        0.093389       0.0995762 
        1.57695       0.0954563       0.0925001       0.0985536 
        1.58308       0.0945225       0.0916248       0.0977768 
        1.58922       0.0936808       0.0907603       0.0969505 
        1.59535       0.0927835       0.0899072        0.095984 
         1.6015        0.091862       0.0890639       0.0949847 
        1.60764       0.0911188       0.0882318       0.0942351 
        1.61376       0.0900931       0.0874126        0.093591 
        1.61989       0.0893999       0.0866032       0.0926539 
        1.62604       0.0886374       0.0858022        0.091749 
        1.63218       0.0878223       0.0850118       0.0909567 
        1.63831       0.0870547       0.0842333       0.0901319 
        1.64444       0.0862359       0.0834641       0.0892247 
        1.65059       0.0854838       0.0827028       0.0884654 
        1.65673       0.0847466       0.0819518       0.0877424 
        1.66285       0.0840969       0.0812122       0.0869635 
        1.66898       0.0833025       0.0804815       0.0861396 
        1.67512       0.0823871       0.0797584       0.0853782 
        1.68127       0.0816395       0.0790435       0.0846448 
         1.6874        0.081109        0.078339       0.0839776 
        1.69353       0.0801828       0.0776435        0.083343 
        1.69967       0.0796993       0.0769547       0.0824492 
        1.70581       0.0787475       0.0762747       0.0816531 
        1.71193       0.0781854       0.0756054        0.081022 
        1.71806       0.0774122       0.0749427       0.0803076 
        1.72421       0.0769514       0.0742866       0.0797193 
        1.73035       0.0761396       0.0736391       0.0790288 
        1.73649       0.0755806       0.0729995       0.0781995 
        1.74262       0.0748882        0.072368       0.0775781 
        1.74876       0.0742244       0.0717435       0.0770456 
        1.75489       0.0737095       0.0711277       0.0764029 
        1.76101       0.0729757       0.0705193       0.0756765 
        1.76715       0.0723383       0.0699172       0.0751281 
        1.77329       0.0716394       0.0693214       0.0745467 
        1.77943        0.071058       0.0687322       0.0738698 
        1.78557       0.0706292       0.0681508       0.0731982 
        1.79171       0.0700385        0.067576       0.0725396 
        1.79785       0.0694305       0.0670078       0.0719689 
        1.80399       0.0688453       0.0664462       0.0714757 
        1.81012       0.0683014       0.0658918       0.0707563 
        1.81625       0.0677144       0.0653439        0.070133 
        1.82239       0.0671554       0.0648015       0.0697287 
        1.82853       0.0665636       0.0642655       0.0692042 
        1.83466       0.0660136        0.063736       0.0685733 
        1.84078       0.0655025       0.0632131       0.0679774 
        1.84692       0.0648781       0.0626952       0.0675107 
        1.85306         0.06455       0.0621825       0.0668933 
         1.8592        0.063864       0.0616763       0.0662442 
        1.86533       0.0634718        0.061176       0.0658078 
        1.87147       0.0628942       0.0606807       0.0653327 
        1.87761       0.0624588       0.0601906       0.0648538 
