# k  (h/Mpc)    P(k)  (Mpc/h)^3    P_linear(k)  (Mpc/h)^3     P_NL(k)  ShotnoiseSubtracted = false
     0.00783031         9029.04          9149.8          9065.3 
       0.013688         10256.8         10192.4         10122.6 
       0.019231         9446.22         9410.26         9351.67 
      0.0249154         7832.16         7922.52         7887.66 
      0.0312784         6208.85         6215.84         6208.24 
      0.0375637         4934.35         4893.91         4894.87 
      0.0433917         4064.24         4072.83         4073.12 
      0.0492413         3583.86         3570.37         3571.71 
      0.0555754         3216.17         3252.08          3250.8 
      0.0619321         3055.38         3022.18         3019.15 
       0.067871         2768.59         2791.01         2789.08 
      0.0738098         2488.64         2506.08         2496.94 
      0.0800417         2144.41         2165.56         2166.32 
      0.0862327          1838.6         1833.74         1851.57 
      0.0921407         1597.23         1566.71         1589.59 
      0.0982031         1385.44         1365.67         1400.34 
       0.104506         1280.33         1233.52         1274.26 
       0.110769         1196.11         1159.58         1188.32 
       0.116806         1140.17         1115.26         1137.43 
       0.122832         1098.57         1071.96         1092.52 
       0.129052         1020.08         1010.58          1028.5 
       0.135211         943.231          928.93         950.067 
       0.141259         867.586         836.506         865.302 
       0.147318         785.647         745.172          784.99 
       0.153489         702.558         665.691         701.186 
       0.159709         649.652         605.957         645.833 
       0.165845         616.146         566.837         612.932 
       0.171974         583.745         542.279           582.3 
       0.178125         563.097         524.688         566.357 
       0.184229          542.91         507.016         544.522 
        0.19034         507.257         484.372         518.996 
       0.196428          489.08          455.75         487.689 
       0.202534          464.49         423.057         458.482 
       0.208729         430.371         389.689         425.886 
       0.214876          400.82         360.074         403.914 
       0.220989         381.192         336.255         382.064 
       0.227147         361.032         318.265         363.441 
        0.23329         346.183         305.104          351.43 
       0.239377         337.321         294.733         338.622 
       0.245482         316.149         284.863         324.107 
       0.251667         310.982         273.855         314.781 
       0.257832         298.598           261.3         300.421 
       0.263955         285.079         247.632         286.425 
       0.270079         271.229         233.753          273.58 
        0.27624         263.813         220.661          260.05 
       0.282372         252.795         209.257         250.218 
        0.28843         242.659         199.864         241.005 
       0.294538         231.141         192.038         232.992 
       0.300721         227.738         185.287         226.371 
        0.30691         217.148         179.036         220.145 
       0.313033         211.289         172.853         211.994 
       0.319153          202.19         166.383         205.063 
       0.325316          197.13         159.608         198.738 
        0.33145         189.039         152.802         190.526 
       0.337538         184.937         146.292         183.704 
       0.343633         177.878         140.255         179.228 
       0.349808         171.544         134.775         174.343 
       0.355968         168.243         129.927         169.991 
       0.362074          163.59         125.613         164.794 
       0.368217         158.474         121.594         159.155 
       0.374374           152.7         117.707         154.905 
       0.380519         149.896          113.87         150.297 
       0.386598         145.564          110.07         147.025 
       0.392688         142.704          106.29         142.558 
        0.39888         138.798         102.553         138.523 
       0.405048         134.686         99.0056          135.42 
       0.411186         131.434         95.7006         131.692 
       0.417313         128.243         92.6485         127.828 
       0.423458         125.026         89.8014         125.052 
       0.429607         121.965         87.1256         122.225 
       0.435692         117.938         84.6022           119.1 
       0.441815         116.628         82.1402         117.157 
       0.447964         114.018         79.7192         114.199 
       0.454126         108.934         77.3499         110.696 
       0.460267         107.491         75.0539          109.27 
       0.466387         105.773         72.8448         106.492 
        0.47254         103.034         70.7206         104.244 
       0.478662         102.104         68.7166         102.067 
       0.484765         98.6737          66.821         99.1877 
       0.490885         96.8498         65.0095         97.6716 
       0.497035         95.3403         63.2664         96.0286 
       0.503198         92.5237         61.5859         93.9675 
       0.509342          90.808         59.9646         92.3303 
       0.515458         89.2095         58.3951         90.9587 
       0.521598         87.5357         56.8641         88.4584 
       0.527764         86.1938         55.3765         86.6319 
       0.533884         84.7818         53.9538         85.2571 
           0.54         82.8258         52.5869          83.594 
       0.546137         81.8031         51.2676         82.3982 
       0.552299         80.3141         49.9933         80.3724 
       0.558452         78.5946         48.7692         78.8163 
       0.564573         77.1582         47.5948         77.8945 
       0.570708          75.715         46.4571         76.6262 
       0.576825         74.6344         45.3581         75.0251 
       0.582926         72.9549         44.2939         73.7471 
       0.589034         71.6532         43.2597          72.931 
       0.595184         70.5354         42.2506         71.4009 
       0.601379         69.3991         41.2672         70.4936 
       0.607522         67.8491         40.3249         68.9034 
       0.613639         67.3638         39.4181         68.1322 
       0.619772          65.943         38.5385         66.9952 
       0.625918         64.9136         37.6849         66.0343 
       0.632068         64.1314         36.8567         64.8999 
       0.638161          63.254         36.0602         64.1109 
         0.6443         62.3671         35.2811         62.9971 
       0.650464         61.4888         34.5219         61.6949 
       0.656582         60.3842         33.7905         61.1463 
       0.662703         59.3007         33.0801         60.0504 
       0.668861         58.4611         32.3865         59.3461 
       0.675024         57.6424         31.7126         58.3442 
       0.681124         56.9157          31.065         57.5013 
       0.687237          55.734         30.4344         56.7136 
       0.693381         55.0508         29.8185         55.7989 
       0.699536         54.3777         29.2187         55.3075 
       0.705665         54.2851         28.6379         54.7182 
       0.711789         52.8433         28.0735         53.6041 
       0.717957         52.3495         27.5205         53.0402 
        0.72409         51.4941         26.9855         52.5386 
       0.730186         50.6247          26.468         51.8664 
       0.736317         50.4398         25.9614         51.0092 
       0.742472         49.7454         25.4663         50.4103 
       0.748622         49.0381         24.9847         49.7228 
        0.75476         48.4723         24.5168         49.0577 
       0.760888         47.7072         24.0616         48.3685 
       0.767043         47.2152         23.6163         48.0631 
       0.773185         46.5558         23.1832         47.5476 
       0.779291         46.0861         22.7636         46.9201 
       0.785407         45.6854         22.3537         46.2088 
       0.791564         45.1266         21.9515         45.7113 
       0.797719         44.2143         21.5594         45.3912 
       0.803834         43.9884         21.1794         44.6758 
       0.809972         43.1263         20.8072         44.1558 
       0.816124         42.7942         20.4432         43.7454 
       0.822261         42.4024         20.0889         43.1614 
       0.828378         42.1077         19.7441         42.5631 
       0.834502         41.5418         19.4071         42.2268 
       0.840667         41.0295         19.0759         41.8928 
       0.846816         40.4175         18.7534         41.4182 
       0.852925         40.0866         18.4404         40.9662 
       0.859047         39.4902         18.1339         40.4644 
       0.865192         39.1659         17.8334         40.0822 
       0.871341         38.9019         17.5395         39.6412 
       0.877463          38.179         17.2536           39.24 
       0.883569         37.8865         16.9749         38.9884 
       0.889708         37.5891         16.7009         38.5117 
       0.895864         37.1823         16.4323         38.1388 
       0.902008         36.8011         16.1701         37.6749 
       0.908149         36.4605         15.9139         37.4176 
       0.914301         36.1137         15.6628         37.1167 
       0.920448         35.7928         15.4174         36.6748 
       0.926574         35.2904         15.1782         36.2947 
       0.932687         35.1036         14.9445         35.9814 
       0.938823         34.5399          14.715         35.5316 
       0.944975          34.293         14.4897         35.2449 
       0.951105         33.9146           14.27         34.9758 
       0.957225         33.5199         14.0553          34.614 
       0.963368         33.4654         13.8442         34.2588 
       0.969511         33.0835         13.6376         33.9349 
       0.975621         32.8607         13.4362           33.76 
       0.981748         32.4081         13.2384         33.4558 
       0.987916         32.0591         13.0434         33.1969 
        0.99406         31.8944         12.8531         32.8076 
        1.00019         31.5255         12.6669         32.4826 
        1.00632         31.2979         12.4846           32.21 
        1.01246         31.1028         12.3057         31.9238 
        1.01859         30.6192         12.1305         31.7812 
        1.02471         30.4756          11.959         31.5295 
        1.03085         30.2252         11.7903         31.1716 
        1.03698         29.8643         11.6251         30.8923 
        1.04314          29.655         11.4624         30.5847 
        1.04929         29.3751         11.3033         30.4078 
        1.05541         29.0489         11.1478         30.2771 
        1.06154           28.99         10.9949         29.9591 
        1.06769         28.6289         10.8446         29.6927 
        1.07382         28.4879         10.6976         29.4802 
        1.07993         28.2743         10.5536         29.2317 
        1.08607         27.9907         10.4118         29.0377 
        1.09222         27.7874         10.2724         28.8042 
        1.09836           27.53         10.1357         28.5644 
        1.10449         27.3239         10.0017          28.348 
        1.11063         26.9853         9.86991         28.0707 
        1.11677         26.8206         9.74059         27.8369 
         1.1229          26.632         9.61381         27.6996 
        1.12903         26.2762         9.48918         27.4993 
        1.13518          26.323         9.36666         27.2652 
        1.14131         26.1075         9.24638         27.0626 
        1.14745         25.7248         9.12828         26.9115 
        1.15359         25.6726         9.01223           26.65 
        1.15973         25.3401         8.89816         26.5103 
        1.16584         25.1959         8.78658          26.246 
        1.17197         25.0409         8.67675         26.1407 
        1.17811          24.861         8.56848         25.9101 
        1.18424         24.6396         8.46236         25.7271 
        1.19038         24.4728         8.35775         25.5793 
        1.19652         24.3998         8.25494         25.3395 
        1.20267         24.1583         8.15387         25.2132 
        1.20881         23.9607         8.05452         25.0561 
        1.21495          23.756         7.95698         24.8896 
        1.22108         23.6192         7.86108         24.7026 
         1.2272         23.3359         7.76699         24.5669 
        1.23334         23.2551         7.67423         24.3827 
        1.23949            23.2         7.58276         24.1611 
        1.24562         22.8938         7.49305         24.0296 
        1.25174         22.8136         7.40492         23.9029 
        1.25789         22.6486         7.31795         23.7289 
        1.26402         22.4549         7.23253         23.5443 
        1.27014          22.248         7.14869         23.4472 
        1.27628         22.1119         7.06592         23.2758 
        1.28244         21.9927         6.98431         23.1503 
        1.28858         21.8667          6.9041         22.9793 
        1.29471         21.7652         6.82533         22.8696 
        1.30084         21.6182         6.74786         22.7115 
        1.30697         21.4254         6.67147         22.5228 
        1.31312         21.2576         6.59616         22.4028 
        1.31925         21.1297         6.52225         22.2658 
        1.32537         20.9988         6.44954         22.1636 
        1.33151         20.8431         6.37768          22.011 
        1.33765         20.7531         6.30696         21.8667 
        1.34378         20.5959         6.23745         21.7615 
        1.34992         20.4383         6.16894         21.6338 
        1.35606          20.325         6.10132         21.5014 
         1.3622         20.2131         6.03483         21.3841 
        1.36833         20.0191         5.96949         21.2943 
        1.37445         19.9768         5.90516         21.1381 
        1.38059         19.8151         5.84157         21.0252 
        1.38675         19.6015         5.77878         20.9166 
        1.39288         19.5985         5.71715         20.7871 
        1.39901         19.4225         5.65646          20.657 
        1.40515         19.2935         5.59651         20.5363 
         1.4113         19.1868         5.53745         20.4075 
        1.41742         19.0422         5.47947         20.2865 
        1.42355         18.9652         5.42221         20.2128 
         1.4297         18.8536          5.3656         20.0549 
        1.43585         18.7903         5.30982         19.9724 
        1.44198         18.5642         5.25505         19.8643 
        1.44809          18.499         5.20116         19.7553 
        1.45423         18.3909         5.14782         19.6107 
        1.46036         18.3223         5.09532         19.5114 
        1.46649         18.1842         5.04354         19.4386 
        1.47263         18.0541         4.99245         19.3503 
        1.47877              18         4.94208         19.2377 
        1.48491         17.9565         4.89233         19.1384 
        1.49104         17.7658         4.84337         19.0341 
        1.49718         17.6154         4.79504         18.9393 
        1.50333         17.5844          4.7473         18.8286 
        1.50947         17.4904          4.7003         18.7317 
         1.5156         17.3895         4.65401         18.6464 
        1.52172         17.2742         4.60835         18.5472 
        1.52787         17.1866         4.56321         18.4394 
          1.534         17.0918         4.51872         18.3432 
        1.54013          16.953         4.47488         18.2397 
        1.54627         16.8975         4.43154         18.1434 
        1.55241         16.7407         4.38876         18.0614 
        1.55855          16.691         4.34661         17.9751 
        1.56467         16.5465         4.30513         17.9084 
         1.5708         16.5506         4.26407         17.8069 
        1.57695         16.3837         4.22349         17.6993 
        1.58308          16.315         4.18352         17.6283 
        1.58922         16.2478         4.14405         17.5434 
        1.59535         16.1424         4.10509         17.4473 
         1.6015         16.0317         4.06659         17.3589 
        1.60764         15.9595          4.0286         17.2692 
        1.61376         15.8317         3.99119         17.1885 
        1.61989         15.7526         3.95424         17.1387 
        1.62604         15.7244         3.91766         17.0571 
        1.63218         15.6498         3.88158         16.9771 
        1.63831         15.5323         3.84603         16.9187 
        1.64444         15.4583         3.81091         16.8316 
        1.65059         15.3675         3.77615         16.7293 
        1.65673         15.2525         3.74186         16.6582 
        1.66285         15.2417         3.70809         16.6008 
        1.66898         15.1473         3.67473         16.5167 
        1.67512         15.0712         3.64171         16.4183 
        1.68127         14.9712         3.60907         16.3537 
         1.6874         14.8826          3.5769         16.2791 
        1.69353          14.831         3.54514         16.1534 
        1.69967         14.7359         3.51369         16.1063 
        1.70581         14.6513         3.48264          16.061 
        1.71193         14.6116         3.45208         15.9876 
        1.71806         14.5037         3.42182         15.9318 
        1.72421         14.4244         3.39187         15.8538 
        1.73035         14.3352         3.36231         15.7885 
        1.73649         14.3202          3.3331         15.7342 
        1.74262         14.2232         3.30427         15.6295 
        1.74876         14.1838         3.27575         15.5397 
        1.75489         14.0895         3.24764         15.4928 
        1.76101         14.0063         3.21986         15.4566 
        1.76715         13.9478         3.19236         15.3735 
        1.77329         13.8999         3.16516         15.2846 
        1.77943         13.8103         3.13826          15.213 
        1.78557         13.7403         3.11171         15.1499 
        1.79171         13.6633         3.08547         15.0952 
        1.79785         13.5807         3.05952         15.0429 
        1.80399         13.5547         3.03388         14.9847 
        1.81012         13.4915         3.00857         14.9181 
        1.81625         13.4362         2.98355         14.8533 
        1.82239         13.3703         2.95878         14.7949 
        1.82853         13.2772         2.93431         14.7372 
        1.83466         13.2226         2.91014         14.6788 
        1.84078         13.1251         2.88626         14.6121 
        1.84692         13.0959         2.86261         14.5337 
        1.85306         13.0274          2.8392         14.4871 
         1.8592         12.9562         2.81609         14.4482 
        1.86533         12.8924         2.79325         14.3727 
        1.87147         12.8456         2.77063         14.3012 
        1.87761         12.8007         2.74826         14.2501 
