# k  (h/Mpc)    P(k)  (Mpc/h)^3    P_linear(k)  (Mpc/h)^3     P_NL(k)  ShotnoiseSubtracted = false
     0.00783031         783.669         792.128          784.79 
       0.013688         881.239         883.121         877.663 
       0.019231         815.951         815.614         811.358 
      0.0249154         684.625         686.782          684.78 
      0.0312784         539.983         538.892         539.433 
      0.0375637         426.322         424.312         425.122 
      0.0433917         353.788         353.137         353.932 
      0.0492413         310.358         309.579         310.277 
      0.0555754         281.423         281.987         282.153 
      0.0619321         262.935         262.057         261.941 
       0.067871         241.447         242.014         241.731 
      0.0738098         216.735          217.31         217.006 
      0.0800417         187.146         187.783         187.729 
      0.0862327         159.026         159.011         159.256 
      0.0921407         136.273         135.856         136.231 
      0.0982031         118.519         118.424         118.921 
       0.104506         107.686         106.965          107.46 
       0.110769         100.982         100.553         100.873 
       0.116806         96.6645         96.7104         96.8666 
       0.122832         93.1198         92.9557         93.0458 
       0.129052         87.4207         87.6338          87.677 
       0.135211         80.3672         80.5532         80.6468 
       0.141259         72.7099         72.5386         72.7368 
       0.147318         65.0331         64.6187         64.9623 
       0.153489          58.045         57.7264         58.0525 
       0.159709         52.9013         52.5465         52.9135 
       0.165845         49.7302         49.1542         49.5643 
       0.171974         47.2253         47.0246         47.3517 
       0.178125         45.7352         45.4993          45.822 
       0.184229         44.2324         43.9668          44.243 
        0.19034         41.9531         42.0032         42.2468 
       0.196428         39.6806         39.5212          39.733 
       0.202534         37.1206         36.6862         36.9389 
       0.208729         34.0912         33.7927         34.0804 
       0.214876         31.4328         31.2246         31.5897 
       0.220989         29.5583         29.1591         29.5418 
       0.227147         27.8241          27.599         27.9614 
        0.23329         26.6668         26.4577         26.8277 
       0.239377         25.7815         25.5584         25.9076 
       0.245482         24.7934         24.7025         24.9939 
       0.251667          23.973         23.7479         24.0576 
       0.257832         22.8496         22.6592         22.9541 
       0.263955          21.686          21.474         21.7631 
       0.270079         20.5129         20.2705         20.5679 
        0.27624          19.482         19.1352         19.4294 
       0.282372         18.5051         18.1463         18.4699 
        0.28843         17.6122         17.3317         17.6581 
       0.294538         16.9062         16.6531         16.9682 
       0.300721         16.3931         16.0676         16.3842 
        0.30691          15.762         15.5255         15.8385 
       0.313033         15.2098         14.9894         15.2814 
       0.319153          14.523         14.4283         14.7204 
       0.325316         14.1212         13.8408         14.1409 
        0.33145         13.4912         13.2506         13.5395 
       0.337538         12.9407         12.6861         12.9699 
       0.343633         12.3737         12.1625         12.4445 
       0.349808         11.9346         11.6874         11.9833 
       0.355968         11.5291         11.2669         11.5866 
       0.362074          11.125         10.8928         11.1899 
       0.368217         10.7637         10.5444         10.8144 
       0.374374         10.3897         10.2073         10.4869 
       0.380519         10.0908         9.87451         10.1394 
       0.386598         9.77226         9.54496         9.81371 
       0.392688         9.48016         9.21721         9.48531 
        0.39888         9.12766         8.89318         9.16391 
       0.405048         8.83341         8.58553         8.83738 
       0.411186         8.54832         8.29893         8.57083 
       0.417313          8.2564         8.03426         8.29861 
       0.423458         8.01969         7.78736         8.05227 
       0.429607          7.7619         7.55533         7.80868 
       0.435692         7.53824          7.3365         7.59284 
       0.441815         7.32583           7.123         7.38695 
       0.447964         7.14824         6.91306         7.16329 
       0.454126         6.89339          6.7076         6.95448 
       0.460267         6.70845         6.50849         6.76412 
       0.466387         6.48702         6.31693          6.5578 
        0.47254         6.32283         6.13272         6.37572 
       0.478662         6.16673         5.95894          6.1955 
       0.484765         5.97044         5.79456         6.02716 
       0.490885         5.82189         5.63747         5.88568 
       0.497035         5.70507         5.48631         5.73777 
       0.503198         5.53747         5.34058         5.57115 
       0.509342         5.40071         5.19999         5.43276 
       0.515458         5.24477         5.06389         5.30519 
       0.521598          5.1171         4.93112         5.15308 
       0.527764         4.97156         4.80212         5.02133 
       0.533884         4.87612         4.67874          4.8948 
           0.54         4.74597         4.56021         4.77331 
       0.546137         4.63539         4.44581         4.66518 
       0.552299         4.52526         4.33531         4.53664 
       0.558452         4.39329         4.22915         4.43393 
       0.564573         4.30916         4.12731         4.34491 
       0.570708         4.20612         4.02865         4.23971 
       0.576825         4.09646         3.93335         4.13836 
       0.582926          4.0147         3.84107         4.04817 
       0.589034         3.89266         3.75138         3.96576 
       0.595184         3.81643         3.66387         3.85424 
       0.601379         3.72491          3.5786         3.78738 
       0.607522         3.65771         3.49689         3.69817 
       0.613639         3.58898         3.41825         3.61481 
       0.619772         3.48807         3.34197          3.5449 
       0.625918         3.43085         3.26794          3.4614 
       0.632068         3.36764         3.19612         3.38418 
       0.638161         3.27801         3.12706         3.31598 
         0.6443         3.20851          3.0595         3.24247 
       0.650464         3.12961         2.99366         3.18527 
       0.656582         3.08499         2.93023         3.11711 
       0.662703         3.01823         2.86863         3.05039 
       0.668861         2.96458         2.80848         2.99542 
       0.675024         2.89535         2.75005         2.93166 
       0.681124         2.83445         2.69388         2.87084 
       0.687237         2.78469          2.6392         2.80863 
       0.693381         2.73008         2.58579         2.75136 
       0.699536         2.65773         2.53378         2.70109 
       0.705665         2.61231         2.48342         2.66104 
       0.711789         2.56726         2.43447         2.60549 
       0.717957         2.51062         2.38651         2.55115 
        0.72409         2.46257         2.34012         2.50734 
       0.730186         2.42008         2.29525         2.45711 
       0.736317         2.38865         2.25132         2.40889 
       0.742472         2.34273         2.20838         2.37271 
       0.748622         2.29337         2.16662          2.3316 
        0.75476         2.24232         2.12604         2.28381 
       0.760888         2.20375         2.08657         2.24406 
       0.767043         2.17564         2.04795         2.20667 
       0.773185         2.12558          2.0104         2.16972 
       0.779291         2.09502           1.974         2.13161 
       0.785407         2.05558         1.93847         2.09181 
       0.791564         2.02354         1.90358         2.05648 
       0.797719         1.98895         1.86958         2.01724 
       0.803834          1.9606         1.83663         1.98472 
       0.809972         1.92548         1.80435         1.95722 
       0.816124         1.88487         1.77279         1.91895 
       0.822261           1.848         1.74206         1.88544 
       0.828378         1.82329         1.71216          1.8562 
       0.834502          1.8006         1.68294          1.8235 
       0.840667         1.75918         1.65422         1.79539 
       0.846816         1.72962         1.62625         1.77102 
       0.852925         1.71121         1.59911         1.73968 
       0.859047         1.68095         1.57253         1.71665 
       0.865192          1.6529         1.54647         1.68632 
       0.871341         1.62899         1.52099         1.65982 
       0.877463         1.60482          1.4962         1.63138 
       0.883569         1.57347         1.47202         1.60903 
       0.889708         1.54922         1.44826         1.58443 
       0.895864         1.52338         1.42497         1.55818 
       0.902008         1.49991         1.40224         1.53547 
       0.908149         1.47964         1.38002         1.51104 
       0.914301         1.44968         1.35825         1.48904 
       0.920448         1.42889         1.33697         1.46506 
       0.926574         1.40632         1.31622         1.44655 
       0.932687          1.3856         1.29595         1.41905 
       0.938823           1.369         1.27605         1.40465 
       0.944975         1.34916         1.25652         1.37996 
       0.951105         1.32925         1.23746          1.3603 
       0.957225         1.31641         1.21884         1.34275 
       0.963368         1.29415         1.20054         1.32182 
       0.969511         1.27199         1.18262          1.3042 
       0.975621         1.25182         1.16516         1.28208 
       0.981748         1.23891         1.14801         1.26378 
       0.987916         1.21834          1.1311         1.25047 
        0.99406         1.19749         1.11459         1.23429 
        1.00019         1.18484         1.09845         1.21728 
        1.00632         1.16493         1.08264         1.19789 
        1.01246         1.14966         1.06712         1.18181 
        1.01859          1.1354         1.05193         1.16671 
        1.02471         1.11873         1.03706         1.14935 
        1.03085         1.10434         1.02243         1.13239 
        1.03698         1.08743          1.0081         1.11776 
        1.04314         1.07437        0.993998         1.10299 
        1.04929          1.0591        0.980196         1.08902 
        1.05541         1.04605        0.966712         1.07621 
        1.06154         1.03044         0.95345         1.06207 
        1.06769         1.01837        0.940416         1.04909 
        1.07382         1.00363         0.92767         1.03417 
        1.07993        0.987699        0.915189         1.02017 
        1.08607        0.980411        0.902887         1.00959 
        1.09222        0.964632        0.890798        0.994209 
        1.09836        0.955352        0.878946        0.981999 
        1.10449         0.94356        0.867323         0.97104 
        1.11063        0.926867        0.855898        0.956321 
        1.11677         0.91511        0.844683        0.946131 
         1.1229        0.903953        0.833689        0.935053 
        1.12903        0.892103        0.822881        0.923091 
        1.13518        0.882918        0.812257        0.911359 
        1.14131        0.869115        0.801826        0.899896 
        1.14745        0.853713        0.791585        0.887309 
        1.15359        0.847507        0.781522        0.879508 
        1.15973        0.833408        0.771629        0.868596 
        1.16584        0.829071        0.761953        0.856836 
        1.17197        0.816866        0.752429        0.848022 
        1.17811        0.808857         0.74304        0.838315 
        1.18424         0.79973        0.733838        0.826761 
        1.19038         0.78739        0.724766        0.817182 
        1.19652        0.778017        0.715851         0.80919 
        1.20267        0.771119        0.707086        0.797532 
        1.20881        0.759331        0.698471        0.788801 
        1.21495         0.75265        0.690013        0.782404 
        1.22108        0.743252        0.681696        0.771579 
         1.2272          0.7361        0.673537        0.761767 
        1.23334         0.72513        0.665493        0.754495 
        1.23949        0.716915        0.657561        0.746996 
        1.24562        0.709852        0.649781        0.738252 
        1.25174        0.701691        0.642139         0.72873 
        1.25789        0.693898        0.634597        0.720656 
        1.26402        0.683555         0.62719        0.712581 
        1.27014        0.676197        0.619919        0.705026 
        1.27628        0.671766        0.612742        0.696634 
        1.28244        0.660663        0.605665        0.688902 
        1.28858        0.654542        0.598709        0.681007 
        1.29471        0.647455        0.591878        0.673764 
        1.30084        0.638924         0.58516        0.668537 
        1.30697        0.632602        0.578536        0.660584 
        1.31312         0.62302        0.572005        0.653039 
        1.31925        0.618391        0.565595        0.647584 
        1.32537        0.611877         0.55929        0.640392 
        1.33151          0.6068        0.553059        0.633492 
        1.33765        0.598854        0.546926        0.627045 
        1.34378        0.591325        0.540899        0.620515 
        1.34992        0.586616        0.534958         0.61391 
        1.35606        0.578518        0.529094        0.606364 
         1.3622        0.573718        0.523328        0.600539 
        1.36833        0.566986        0.517662        0.595791 
        1.37445        0.559442        0.512083        0.589539 
        1.38059        0.554732        0.506569        0.583329 
        1.38675        0.551853        0.501123        0.576276 
        1.39288        0.543926        0.495779        0.571253 
        1.39901        0.537771        0.490516        0.565528 
        1.40515         0.53249        0.485317        0.559265 
         1.4113        0.526528        0.480196        0.554553 
        1.41742        0.521433        0.475168         0.55021 
        1.42355        0.518305        0.470203        0.541986 
         1.4297        0.510584        0.465294        0.539579 
        1.43585        0.505852        0.460457        0.533379 
        1.44198        0.502884        0.455707        0.526582 
        1.44809        0.495778        0.451033        0.523286 
        1.45423        0.491168        0.446408        0.516565 
        1.46036        0.486111        0.441856        0.512067 
        1.46649        0.481467        0.437366        0.508262 
        1.47263        0.475926        0.432935        0.502997 
        1.47877        0.470977        0.428567        0.497793 
        1.48491        0.466706        0.424252         0.49401 
        1.49104        0.461673        0.420007        0.487905 
        1.49718        0.458018        0.415816        0.484806 
        1.50333        0.452492        0.411676        0.479252 
        1.50947        0.449046        0.407601        0.474205 
         1.5156        0.444166        0.403587        0.470685 
        1.52172        0.439697        0.399627        0.466228 
        1.52787        0.435227        0.395712        0.461348 
          1.534        0.431649        0.391854        0.457794 
        1.54013        0.426539        0.388052        0.453558 
        1.54627        0.422474        0.384294        0.448874 
        1.55241        0.418524        0.380585        0.444879 
        1.55855        0.414868        0.376929        0.440921 
        1.56467        0.411821        0.373332        0.437203 
         1.5708        0.406494        0.369772        0.432715 
        1.57695        0.404103        0.366252        0.428786 
        1.58308        0.399745        0.362787        0.425685 
        1.58922         0.39598        0.359363        0.421757 
        1.59535        0.392227        0.355986        0.417906 
         1.6015        0.388537        0.352646        0.413926 
        1.60764        0.385478        0.349352        0.410508 
        1.61376        0.381137        0.346108        0.407688 
        1.61989        0.378147        0.342903        0.404064 
        1.62604        0.374286        0.339732        0.400437 
        1.63218        0.371704        0.336603        0.397134 
        1.63831        0.368312         0.33352        0.393658 
        1.64444        0.364427        0.330474        0.389742 
        1.65059        0.361228         0.32746        0.386449 
        1.65673        0.357659        0.324486        0.383387 
        1.66285        0.354693        0.321558        0.380044 
        1.66898        0.352673        0.318665        0.376477 
        1.67512        0.347836        0.315802        0.373486 
        1.68127        0.345066        0.312971        0.370636 
         1.6874        0.343216        0.310182        0.367754 
        1.69353          0.3393        0.307428        0.364766 
        1.69967        0.336027        0.304701        0.361234 
        1.70581        0.333612        0.302008        0.358373 
        1.71193        0.330615        0.299358         0.35585 
        1.71806        0.327849        0.296734        0.352312 
        1.72421        0.324928        0.294136        0.349565 
        1.73035        0.321458        0.291572        0.346768 
        1.73649        0.319815         0.28904        0.343464 
        1.74262        0.316767        0.286539        0.340849 
        1.74876        0.313437        0.284067        0.338712 
        1.75489        0.310666        0.281629        0.336114 
        1.76101         0.30821         0.27922         0.33297 
        1.76715        0.305661        0.276836        0.330461 
        1.77329        0.303345        0.274476         0.32803 
        1.77943         0.29998        0.272144        0.325192 
        1.78557        0.297845        0.269842        0.322154 
        1.79171        0.295771        0.267566         0.31943 
        1.79785        0.292934        0.265316        0.317145 
        1.80399        0.290658        0.263092        0.314919 
        1.81012        0.288258        0.260897        0.311916 
        1.81625        0.285694        0.258728        0.309355 
        1.82239        0.283898         0.25658        0.307704 
        1.82853        0.280439        0.254458        0.305776 
        1.83466        0.278532        0.252361          0.3032 
        1.84078        0.275938        0.250291        0.300446 
        1.84692        0.274397         0.24824        0.298216 
        1.85306        0.272449         0.24621        0.295666 
         1.8592        0.269902        0.244206        0.293202 
        1.86533        0.267833        0.242225        0.291397 
        1.87147        0.265472        0.240264         0.28903 
        1.87761        0.263411        0.238323        0.286878 
