# k  (h/Mpc)    Pcb(k)  (Mpc/h)^3    Pcb_linear(k) (Mpc/h)^3    Pcb_NL(k) (Mpc/h)^3   ShotnoiseSubtracted = false
     0.00783031         24689.2         25086.5         24838.9 
       0.013688         28301.9         27932.2         27700.5 
       0.019231         25925.1         25783.7         25572.2 
      0.0249154         21250.8           21705         21543.7 
      0.0312784         16911.4           17028         16929.4 
      0.0375637         13542.8           13406         13363.2 
      0.0433917         11075.3         11156.5         11108.1 
      0.0492413         9819.98         9779.93          9741.8 
      0.0555754         8710.44         8907.94         8879.13 
      0.0619321         8388.38          8278.1         8249.63 
       0.067871         7507.72         7644.83         7632.51 
      0.0738098         6769.19         6864.33         6796.97 
      0.0800417          5832.8         5931.57         5927.44 
      0.0862327         5054.96         5022.67         5129.49 
      0.0921407         4472.21         4291.25         4429.56 
      0.0982031         3894.54          3740.6          3956.9 
       0.104506         3645.01         3378.62         3637.42 
       0.110769         3394.54         3176.09         3366.19 
       0.116806          3246.7         3054.69         3204.99 
       0.122832         3102.54         2936.09         3072.63 
       0.129052         2857.22         2767.98         2890.84 
       0.135211         2657.09         2544.32         2681.57 
       0.141259         2491.18         2291.17         2480.69 
       0.147318         2294.31         2041.01         2289.46 
       0.153489         2066.99         1823.31         2054.72 
       0.159709         1935.59         1659.69         1920.48 
       0.165845         1854.95         1552.55         1844.14 
       0.171974         1770.04         1485.28         1751.26 
       0.178125         1689.84          1437.1         1708.64 
       0.184229         1612.17          1388.7         1631.32 
        0.19034         1523.26         1326.67         1554.73 
       0.196428         1474.73         1248.28         1473.69 
       0.202534         1406.16         1158.73         1401.95 
       0.208729          1324.1         1067.34         1307.05 
       0.214876         1263.64         986.225         1261.34 
       0.220989         1210.01         920.985         1210.65 
       0.227147          1162.3         871.713         1166.59 
        0.23329         1113.92         835.667         1133.82 
       0.239377         1092.04         807.258         1090.43 
       0.245482         1022.11         780.226         1045.23 
       0.251667         1014.02         750.075         1018.76 
       0.257832         968.599         715.684         976.242 
       0.263955          932.65         678.251         938.944 
       0.270079         895.158         640.238         904.945 
        0.27624         880.796         604.382          869.23 
       0.282372         844.959          573.15         847.245 
        0.28843         833.124         547.415         826.306 
       0.294538         788.778         525.982         799.986 
       0.300721         781.842         507.491         777.142 
        0.30691         751.111         490.371         765.647 
       0.313033         734.205         473.433         738.706 
       0.319153         716.645         455.713          716.96 
       0.325316          694.87         437.158         699.671 
        0.33145         675.748         418.516         672.559 
       0.337538         660.374         400.686         656.489 
       0.343633         644.902         384.151         646.624 
       0.349808         619.677         369.142         633.916 
       0.355968         614.371         355.863         619.473 
       0.362074         607.225         344.047         607.084 
       0.368217         587.292         333.039         590.929 
       0.374374         563.087         322.393         577.466 
       0.380519         562.156         311.884         563.775 
       0.386598         544.269         301.474         557.351 
       0.392688         540.694         291.122         542.115 
        0.39888         524.202         280.888         530.286 
       0.405048         516.141          271.17         519.381 
       0.411186         508.371         262.119         508.294 
       0.417313         497.831         253.759         499.185 
       0.423458         485.397         245.961         490.362 
       0.429607         480.821         238.632         482.233 
       0.435692         467.678         231.721         469.127 
       0.441815         461.959         224.976         465.363 
       0.447964         452.281         218.346         458.824 
       0.454126         446.699         211.857         445.468 
       0.460267         435.455         205.568         442.508 
       0.466387         429.265         199.517         435.061 
        0.47254         425.629           193.7         427.174 
       0.478662         420.432          188.21         418.719 
       0.484765         405.757         183.019         412.547 
       0.490885         401.959         178.057         404.925 
       0.497035         393.782         173.283         400.138 
       0.503198         389.991          168.68         394.885 
       0.509342         387.503         164.239         388.224 
       0.515458         382.893         159.941         383.685 
       0.521598         371.317         155.747         378.201 
       0.527764         367.504         151.673         374.665 
       0.533884          363.24         147.776         369.461 
           0.54         358.555         144.032         363.194 
       0.546137         355.843         140.419         358.911 
       0.552299         350.135         136.929          353.69 
       0.558452         347.141         133.576         349.679 
       0.564573         342.904         130.359         346.635 
       0.570708         336.715         127.243         342.162 
       0.576825         329.987         124.233         336.057 
       0.582926         328.235         121.318         333.353 
       0.589034         324.081         118.486         328.913 
       0.595184         322.148         115.722         323.707 
       0.601379         314.994         113.028         320.114 
       0.607522         312.103         110.448         315.128 
       0.613639          309.26         107.964         314.406 
       0.619772         304.959         105.555         312.297 
       0.625918         302.807         103.217         306.777 
       0.632068         297.257         100.948         304.114 
       0.638161         295.365         98.7667         301.772 
         0.6443         291.508         96.6328         297.684 
       0.650464         288.935         94.5535         292.505 
       0.656582          284.54           92.55         290.644 
       0.662703         284.458         90.6044         288.129 
       0.668861         280.602         88.7046         286.435 
       0.675024         277.133         86.8589           283.5 
       0.681124          274.15         85.0851         279.281 
       0.687237         271.819         83.3579         276.373 
       0.693381         267.519          81.671         273.621 
       0.699536         264.321         80.0281         271.781 
       0.705665         262.377         78.4375         267.771 
       0.711789          261.39         76.8916         266.483 
       0.717957         258.873         75.3769         265.118 
        0.72409         257.128         73.9116         261.571 
       0.730186         253.292         72.4943         258.697 
       0.736317         251.257         71.1067         257.061 
       0.742472          248.48         69.7507         254.829 
       0.748622         246.875         68.4317         251.911 
        0.75476         243.626         67.1499         251.888 
       0.760888         241.136         65.9032         248.349 
       0.767043         240.379         64.6834         246.057 
       0.773185          238.37         63.4974         244.369 
       0.779291         234.786          62.348         241.749 
       0.785407         234.051         61.2255         239.877 
       0.791564         231.662         60.1238         237.873 
       0.797719         229.124         59.0498         236.042 
       0.803834         226.468         58.0089         234.733 
       0.809972         225.826         56.9895         232.578 
       0.816124         224.417         55.9925         230.396 
       0.822261         222.893         55.0222         229.452 
       0.828378          220.47         54.0778         227.148 
       0.834502         218.094         53.1549         225.425 
       0.840667         216.752         52.2477         223.363 
       0.846816         215.426         51.3643         222.028 
       0.852925         213.922          50.507         220.484 
       0.859047         212.067         49.6675         218.703 
       0.865192         209.357         48.8445         216.678 
       0.871341         207.486         48.0396         215.154 
       0.877463         207.649         47.2566         214.023 
       0.883569         205.446         46.4931         213.709 
       0.889708          203.04         45.7426         210.992 
       0.895864         202.779         45.0069         209.963 
       0.902008         200.522         44.2889         207.802 
       0.908149         198.741         43.5872         206.325 
       0.914301         196.944         42.8995          204.67 
       0.920448         195.661         42.2274         203.651 
       0.926574         193.581          41.572         202.217 
       0.932687           193.6         40.9321         200.541 
       0.938823         190.975         40.3033         200.031 
       0.944975         190.597         39.6864         198.253 
       0.951105         188.981         39.0847         197.155 
       0.957225         188.161         38.4965         195.495 
       0.963368         185.197         37.9185         194.269 
       0.969511         184.446         37.3524         193.051 
       0.975621         183.096         36.8009         192.015 
       0.981748          182.01         36.2592         191.163 
       0.987916         180.839         35.7251         189.502 
        0.99406         179.619         35.2038          188.33 
        1.00019         178.144         34.6939          187.11 
        1.00632         177.301         34.1946         185.727 
        1.01246         175.694         33.7045         184.174 
        1.01859         175.348         33.2247         183.477 
        1.02471         173.003          32.755         182.387 
        1.03085         172.101         32.2928         181.353 
        1.03698         170.818         31.8404         180.763 
        1.04314         169.582         31.3949         179.203 
        1.04929          169.05          30.959         177.916 
        1.05541         167.774         30.5331         177.148 
        1.06154         166.223         30.1142         176.409 
        1.06769         165.833         29.7025          175.32 
        1.07382         164.398            29.3         174.282 
        1.07993         163.202         28.9058         173.328 
        1.08607          162.94         28.5172          171.98 
        1.09222         161.244         28.1354         171.212 
        1.09836         159.977          27.761         170.204 
        1.10449         158.795         27.3939         169.666 
        1.11063         157.704         27.0331         168.427 
        1.11677         156.851         26.6788         167.239 
         1.1229         155.273         26.3316         166.293 
        1.12903         154.813         25.9902         165.391 
        1.13518         153.978         25.6547         164.521 
        1.14131         152.547         25.3252         163.576 
        1.14745         152.554         25.0018         162.411 
        1.15359          150.73         24.6839         161.861 
        1.15973         149.648         24.3715         160.947 
        1.16584         149.135         24.0659         160.241 
        1.17197         148.834         23.7651         159.515 
        1.17811         146.779         23.4685         158.397 
        1.18424         146.418         23.1779          157.37 
        1.19038         145.739         22.8913         157.113 
        1.19652         144.287         22.6098         155.743 
        1.20267         144.027         22.3329         155.366 
        1.20881         142.778         22.0608         154.381 
        1.21495         141.829         21.7937         153.559 
        1.22108         141.156          21.531         152.713 
         1.2272          139.95         21.2733         152.008 
        1.23334         139.915         21.0192         151.385 
        1.23949         138.212         20.7687          150.46 
        1.24562          137.62          20.523         149.318 
        1.25174         136.949         20.2816         148.647 
        1.25789         136.315         20.0434         147.748 
        1.26402         134.668         19.8094         147.387 
        1.27014         134.195         19.5798         146.708 
        1.27628         133.301         19.3531          146.33 
        1.28244         133.056         19.1296         145.271 
        1.28858         131.856         18.9099         144.591 
        1.29471         131.183         18.6941         143.797 
        1.30084         130.214         18.4819         142.856 
        1.30697         129.099         18.2727         142.166 
        1.31312         128.386         18.0664         141.324 
        1.31925         127.613          17.864         140.913 
        1.32537         127.435         17.6649         140.314 
        1.33151         126.429          17.468         139.522 
        1.33765         125.521         17.2743         138.882 
        1.34378         124.889          17.084         138.293 
        1.34992         124.293         16.8963         137.537 
        1.35606         123.864         16.7111         136.709 
         1.3622         122.421          16.529         136.325 
        1.36833         121.972           16.35         135.532 
        1.37445         121.415         16.1738          134.79 
        1.38059         120.554         15.9997         134.125 
        1.38675         120.089         15.8277         133.383 
        1.39288         119.065         15.6589          132.85 
        1.39901         118.673         15.4927         132.351 
        1.40515         117.818         15.3285         131.735 
         1.4113          117.38         15.1667          131.08 
        1.41742         116.185         15.0079         130.462 
        1.42355         115.977         14.8511         129.778 
         1.4297         114.955          14.696         129.253 
        1.43585         114.348         14.5433         128.663 
        1.44198         114.213         14.3932         128.301 
        1.44809         113.384         14.2456         127.471 
        1.45423         112.926         14.0995         126.769 
        1.46036         111.911         13.9558         126.238 
        1.46649         111.323         13.8139         125.816 
        1.47263         110.568          13.674         125.296 
        1.47877         109.801          13.536          124.42 
        1.48491         109.131         13.3998         123.859 
        1.49104         108.837         13.2657         123.615 
        1.49718         107.834         13.1333         122.855 
        1.50333          107.19         13.0025         122.111 
        1.50947         106.681         12.8738         121.666 
         1.5156         106.207          12.747         121.258 
        1.52172         105.674          12.622         120.719 
        1.52787         104.851         12.4983         120.144 
          1.534         104.482         12.3765         119.607 
        1.54013         104.001         12.2564         119.156 
        1.54627         103.365         12.1377         118.692 
        1.55241         102.743         12.0205         118.092 
        1.55855         102.088         11.9051         117.408 
        1.56467         101.313         11.7915         117.015 
         1.5708         100.745          11.679           116.5 
        1.57695         100.702         11.5678         115.946 
        1.58308         100.092         11.4584         115.572 
        1.58922         99.4167         11.3503         115.033 
        1.59535         98.7828         11.2436          114.49 
         1.6015         98.6238         11.1381         114.003 
        1.60764         97.9499         11.0341         113.519 
        1.61376         97.2547         10.9316         113.068 
        1.61989         96.5633         10.8304          112.63 
        1.62604         96.1673         10.7302         111.889 
        1.63218         95.8081         10.6314         111.344 
        1.63831         95.3149          10.534          111.12 
        1.64444         94.6502         10.4378          110.64 
        1.65059          93.845         10.3426         110.127 
        1.65673         93.6556         10.2487         109.583 
        1.66285         93.2911         10.1562         109.178 
        1.66898         92.5919         10.0648         108.891 
        1.67512         91.7457          9.9744         108.311 
        1.68127          91.559         9.88499         107.878 
         1.6874         91.2059         9.79689         107.509 
        1.69353         90.7077         9.70991         106.911 
        1.69967         90.1773         9.62377         106.536 
        1.70581          89.359         9.53872         106.114 
        1.71193          88.834         9.45502         105.583 
        1.71806          88.816         9.37215         105.188 
        1.72421          88.226          9.2901         104.815 
        1.73035         87.9196         9.20913         104.395 
        1.73649         87.3242         9.12914         103.896 
        1.74262         86.8247         9.05016         103.322 
        1.74876         86.3752         8.97207         102.919 
        1.75489         85.7691         8.89505         102.596 
        1.76101          85.271         8.81897         102.208 
        1.76715         85.0195         8.74367         101.795 
        1.77329         84.3306         8.66916         101.325 
        1.77943         84.1349         8.59548         100.893 
        1.78557         83.7416         8.52277         100.553 
        1.79171         82.9693         8.45089           100.1 
        1.79785         82.6467         8.37982         99.6339 
        1.80399         82.1961         8.30959         99.3111 
        1.81012         81.7269         8.24026         98.9027 
        1.81625         81.4115         8.17174         98.4559 
        1.82239         80.8477         8.10391         98.0628 
        1.82853         80.3679         8.03687         97.6629 
        1.83466         80.0636         7.97066         97.2334 
        1.84078         79.7358         7.90527         96.8513 
        1.84692         79.0599          7.8405         96.5879 
        1.85306         78.7709         7.77638         96.1412 
         1.8592         78.2667         7.71308         95.6421 
        1.86533         77.8653         7.65052         95.3593 
        1.87147         77.3999         7.58857         95.0228 
