# k  (h/Mpc)    P(k)  (Mpc/h)^3    P_linear(k)  (Mpc/h)^3     P_NL(k)  ShotnoiseSubtracted = false
     0.00783031         21001.1         21328.1         21122.5 
       0.013688         24034.4         23749.2         23560.4 
       0.019231         22038.7         21923.2         21753.2 
      0.0249154         18103.9         18455.5         18330.8 
      0.0312784         14397.6         14478.9         14409.5 
      0.0375637         11512.1         11399.3         11371.2 
      0.0433917            9427         9486.52         9454.27 
      0.0492413         8349.73         8316.02          8291.3 
      0.0555754         7423.06         7574.58         7554.78 
      0.0619321         7131.93         7039.03         7018.49 
       0.067871         6397.35         6500.56         6491.62 
      0.0738098         5764.15          5836.9         5787.63 
      0.0800417         4966.09         5043.75         5041.45 
      0.0862327          4294.7          4270.9         4351.43 
      0.0921407         3785.97         3648.95         3752.93 
      0.0982031         3292.93         3180.72         3343.11 
       0.104506         3075.91         2872.93         3067.05 
       0.110769         2865.83         2700.71         2841.83 
       0.116806         2738.21         2597.48         2708.54 
       0.122832         2621.42         2496.63         2598.05 
       0.129052         2417.03         2353.68         2444.32 
       0.135211            2246         2163.51          2265.8 
       0.141259         2098.23         1948.24         2089.43 
       0.147318         1925.67         1735.53         1922.76 
       0.153489         1731.77         1550.41         1723.12 
       0.159709         1618.98         1411.29         1606.09 
       0.165845         1547.87         1320.17          1539.6 
       0.171974         1474.96         1262.98         1461.12 
       0.178125         1410.54         1222.01         1425.35 
       0.184229          1349.2         1180.85         1362.37 
        0.19034         1269.08         1128.11         1298.14 
       0.196428         1229.42         1061.45         1227.55 
       0.202534         1172.38         985.305         1165.54 
       0.208729          1100.6          907.59         1085.79 
       0.214876         1044.84         838.617         1045.72 
       0.220989         999.539         783.141         1001.05 
       0.227147         957.929         741.242          961.98 
        0.23329         918.116          710.59         934.508 
       0.239377         898.875         686.436         898.465 
       0.245482         839.618         663.448         860.522 
       0.251667         832.465          637.81         838.668 
       0.257832         795.589         608.569         802.664 
       0.263955         765.722         576.738         770.666 
       0.270079         733.294         544.414         741.812 
        0.27624         721.183         513.922         711.269 
       0.282372         691.723         487.362           691.3 
        0.28843         678.554         465.484         672.464 
       0.294538         642.193         447.259         651.244 
       0.300721         636.895         431.534         632.659 
        0.30691         609.926         416.976         621.806 
       0.313033         596.389         402.576         599.627 
       0.319153         580.009         387.506         581.684 
       0.325316         562.619         371.729         566.659 
        0.33145         545.712         355.876         544.212 
       0.337538         534.108         340.715         530.163 
       0.343633         519.427         326.654         522.118 
       0.349808         499.032         313.892         510.925 
       0.355968         494.433           302.6         499.465 
       0.362074         487.712         292.553          488.37 
       0.368217         472.353         283.194         474.121 
       0.374374         451.384          274.14         463.071 
       0.380519          449.95         265.203          451.36 
       0.386598         436.297         256.352         446.256 
       0.392688          432.82          247.55         432.702 
        0.39888         419.921         238.847         423.556 
       0.405048         411.589         230.584         415.106 
       0.411186         405.151         222.887         404.804 
       0.417313         396.616         215.779         396.882 
       0.423458          386.81         209.148         389.964 
       0.429607         382.147         202.916         382.944 
       0.435692         371.613         197.039         372.463 
       0.441815         367.191         191.305         369.018 
       0.447964         358.761         185.666         363.037 
       0.454126         352.593         180.148         352.338 
       0.460267         344.481         174.801         349.854 
       0.466387         339.672         169.656          343.51 
        0.47254         334.654         164.708         337.055 
       0.478662         332.111         160.041         330.112 
       0.484765         319.769         155.626         324.436 
       0.490885         316.534         151.407         318.736 
       0.497035         310.116         147.348         314.565 
       0.503198         306.286         143.434         310.116 
       0.509342          304.21         139.658         305.072 
       0.515458         299.946         136.002         301.289 
       0.521598         291.248         132.437          296.34 
       0.527764         287.963         128.972         293.364 
       0.533884          284.55         125.658         289.054 
           0.54         280.481         122.475         283.739 
       0.546137         278.569         119.402         280.322 
       0.552299         273.219         116.435         275.871 
       0.558452         271.381         113.583         272.391 
       0.564573         267.639         110.848         269.997 
       0.570708         262.065         108.199         266.629 
       0.576825         257.125         105.639         261.334 
       0.582926         254.995         103.161         258.981 
       0.589034         251.912         100.752         255.737 
       0.595184         250.074         98.4016         251.135 
       0.601379          244.88         96.1114         248.323 
       0.607522          242.27         93.9168         244.492 
       0.613639         240.012         91.8049         243.796 
       0.619772         235.819         89.7563         241.726 
       0.625918         234.471         87.7681          237.17 
       0.632068         230.004         85.8392         234.554 
       0.638161         228.723         83.9842         233.167 
         0.6443         225.248         82.1697         229.961 
       0.650464         222.988         80.4016         225.514 
       0.656582         219.711          78.698         224.009 
       0.662703         219.628         77.0436         221.871 
       0.668861          216.34         75.4282          220.26 
       0.675024         213.133         73.8587         217.978 
       0.681124         211.059         72.3504          214.49 
       0.687237         209.005         70.8817          212.31 
       0.693381         205.603         69.4473         209.962 
       0.699536         203.473         68.0503          208.34 
       0.705665         201.508         66.6977         205.457 
       0.711789         200.331         65.3832         204.419 
       0.717957         198.917         64.0952         203.027 
        0.72409         196.906         62.8492         200.566 
       0.730186         194.058         61.6441         198.261 
       0.736317         192.152         60.4642         196.557 
       0.742472         190.214         59.3111         194.579 
       0.748622         188.876         58.1895         192.482 
        0.75476          186.58         57.0995         192.116 
       0.760888         184.644         56.0394         189.218 
       0.767043          183.99         55.0022          187.69 
       0.773185         182.414         53.9937         186.313 
       0.779291         179.157         53.0163         184.089 
       0.785407         178.561         52.0619         182.496 
       0.791564         176.805          51.125         180.904 
       0.797719         174.146         50.2118         179.592 
       0.803834         172.747         49.3267         178.407 
       0.809972         172.139         48.4599          176.78 
       0.816124         170.835         47.6121         175.216 
       0.822261         169.739          46.787         174.169 
       0.828378         167.778          45.984         172.304 
       0.834502          166.49         45.1992          170.84 
       0.840667         164.795         44.4278         169.281 
       0.846816         163.523         43.6766         168.269 
       0.852925         162.304         42.9476         167.013 
       0.859047         161.201         42.2338         165.719 
       0.865192         158.842         41.5339         163.996 
       0.871341         157.535         40.8495          162.83 
       0.877463         156.992         40.1837         161.981 
       0.883569         155.995         39.5345         161.474 
       0.889708         153.909         38.8963         159.405 
       0.895864         153.066         38.2707         158.493 
       0.902008         151.677         37.6602         156.945 
       0.908149         150.874         37.0635         155.803 
       0.914301         148.928         36.4787         154.515 
       0.920448         148.157         35.9072         153.659 
       0.926574         146.673         35.3499         152.381 
       0.932687         146.671         34.8057         151.408 
       0.938823         144.522         34.2711         150.597 
       0.944975          144.01         33.7465          149.38 
       0.951105         142.813         33.2349          148.35 
       0.957225         142.161         32.7347         147.167 
       0.963368         139.756         32.2432         146.155 
       0.969511         139.283         31.7618         145.072 
       0.975621         138.007         31.2929         144.486 
       0.981748         137.711         30.8323         143.646 
       0.987916         136.446         30.3781         142.453 
        0.99406         135.484         29.9348         141.423 
        1.00019         134.752         29.5012         140.459 
        1.00632         133.519         29.0767         139.416 
        1.01246         132.583         28.6599         138.165 
        1.01859         132.285          28.252         137.687 
        1.02471         130.435         27.8526         136.937 
        1.03085         129.538         27.4595          136.13 
        1.03698         128.749         27.0749          135.59 
        1.04314         127.466          26.696         134.413 
        1.04929         127.324         26.3253           133.5 
        1.05541         126.284         25.9632         132.872 
        1.06154         125.316          25.607         132.172 
        1.06769         124.955          25.257          131.39 
        1.07382         123.658         24.9146         130.627 
        1.07993         122.782         24.5794         129.777 
        1.08607         122.308          24.249         128.839 
        1.09222         121.424         23.9244         128.234 
        1.09836         120.464          23.606         127.378 
        1.10449         119.341         23.2939         126.993 
        1.11063         118.612          22.987         125.962 
        1.11677         117.785         22.6858         125.056 
         1.1229          116.91         22.3905         124.388 
        1.12903         116.602         22.1003         123.657 
        1.13518         115.818         21.8149         123.064 
        1.14131         114.602         21.5348         122.156 
        1.14745         114.569         21.2598         121.468 
        1.15359         113.284         20.9895         120.936 
        1.15973          112.67         20.7238         120.302 
        1.16584         111.949         20.4639         119.533 
        1.17197         111.484         20.2081         119.081 
        1.17811         110.258          19.956         118.237 
        1.18424         110.058         19.7088         117.371 
        1.19038         109.741         19.4652         117.227 
        1.19652         108.681         19.2257         116.245 
        1.20267         107.981         18.9904         115.826 
        1.20881          107.42          18.759         114.991 
        1.21495         106.335         18.5318         114.535 
        1.22108         106.011         18.3084         113.885 
         1.2272         105.031         18.0893         113.201 
        1.23334         104.706         17.8733         112.894 
        1.23949         103.917         17.6602         112.108 
        1.24562         103.326         17.4513         111.169 
        1.25174         102.939          17.246          110.65 
        1.25789         102.243         17.0435         110.007 
        1.26402         100.939         16.8446         109.729 
        1.27014         100.573         16.6493         109.238 
        1.27628         100.212         16.4565         108.939 
        1.28244         99.8966         16.2665          108.09 
        1.28858          99.114         16.0796         107.543 
        1.29471         98.2953         15.8962         107.029 
        1.30084         98.1189         15.7157         106.242 
        1.30697         96.9339         15.5378         105.734 
        1.31312         96.5114         15.3624         105.132 
        1.31925          95.888         15.1903          104.81 
        1.32537         95.5689          15.021          104.44 
        1.33151         94.9435         14.8536         103.816 
        1.33765         94.2191         14.6889         103.345 
        1.34378         93.7679          14.527         102.869 
        1.34992         93.4011         14.3675          102.24 
        1.35606         92.9887           14.21         101.673 
         1.3622         92.0462         14.0551         101.333 
        1.36833         91.5634         13.9029         100.637 
        1.37445          91.247         13.7531         100.228 
        1.38059         90.4427          13.605         99.5382 
        1.38675         89.8967         13.4588         99.0872 
        1.39288         89.6284         13.3152         98.5955 
        1.39901         89.1505         13.1739         98.2715 
        1.40515         88.3431         13.0342         97.9192 
         1.4113         88.1687         12.8967         97.5033 
        1.41742         87.3902         12.7617         97.0037 
        1.42355         87.0809         12.6283         96.3889 
         1.4297          86.468         12.4965         96.0665 
        1.43585          85.908         12.3666         95.4512 
        1.44198         85.6128          12.239         95.2975 
        1.44809         85.2668         12.1135          94.693 
        1.45423         84.8095         11.9893         94.1008 
        1.46036         84.0731          11.867         93.7293 
        1.46649         83.6427         11.7464         93.4471 
        1.47263         82.9681         11.6274         93.0528 
        1.47877         82.4769         11.5101          92.419 
        1.48491         82.0929         11.3942         91.9923 
        1.49104         81.8056         11.2802         91.8068 
        1.49718         81.3108         11.1676         91.1591 
        1.50333          80.815         11.0564         90.6617 
        1.50947         80.2775          10.947         90.3612 
         1.5156         80.0265         10.8392              90 
        1.52172         79.6556         10.7328         89.5526 
        1.52787         78.9712         10.6277         89.1262 
          1.534         78.6256         10.5241         88.7898 
        1.54013         78.2442          10.422         88.4558 
        1.54627         77.8095          10.321         88.0596 
        1.55241         77.4727         10.2214         87.6053 
        1.55855         76.9353         10.1232          87.142 
        1.56467         76.5132         10.0266         86.8496 
         1.5708          75.901         9.93101         86.4606 
        1.57695         75.8635         9.83648         86.0394 
        1.58308         75.4844         9.74341         85.7419 
        1.58922         74.9948         9.65147         85.3766 
        1.59535         74.4984         9.56075         85.0193 
         1.6015         74.3388         9.47108         84.6037 
        1.60764         73.7343         9.38259         84.2342 
        1.61376         73.3859         9.29548         83.9988 
        1.61989         72.9859          9.2094         83.6325 
        1.62604         72.5507         9.12423         83.0034 
        1.63218          72.374         9.04018         82.6012 
        1.63831         71.7891         8.95739         82.4851 
        1.64444          71.345          8.8756         82.1024 
        1.65059         70.8563         8.79464         81.7206 
        1.65673         70.5829         8.71477         81.3265 
        1.66285         70.3522         8.63613         81.0052 
        1.66898         69.9498         8.55842          80.756 
        1.67512         69.2815         8.48153         80.3609 
        1.68127          69.148         8.40551         80.0636 
         1.6874         68.6937         8.33059         79.7749 
        1.69353         68.3613         8.25662         79.3118 
        1.69967         68.1876         8.18338         79.0269 
        1.70581         67.6047         8.11106         78.7294 
        1.71193         67.1851         8.03989         78.3579 
        1.71806         67.0039         7.96942         78.0628 
        1.72421         66.6104         7.89965         77.7607 
        1.73035         66.2774          7.8308         77.4338 
        1.73649         66.0022         7.76278         77.0774 
        1.74262         65.5336         7.69562         76.6835 
        1.74876         65.2296         7.62922         76.3844 
        1.75489          64.846         7.56373         76.1234 
        1.76101         64.5029         7.49903         75.8225 
        1.76715         64.1248           7.435         75.5183 
        1.77329         63.8393         7.37164          75.173 
        1.77943         63.4607           7.309         74.8519 
        1.78557         63.3051         7.24717         74.6034 
        1.79171         62.7429         7.18604         74.2926 
        1.79785         62.3785         7.12561         73.9411 
        1.80399         62.1465         7.06589         73.6359 
        1.81012           61.85         7.00694         73.3484 
        1.81625         61.5431         6.94868         73.0495 
        1.82239          61.129           6.891         72.7559 
        1.82853         60.9246           6.834         72.4852 
        1.83466         60.6573          6.7777         72.1674 
        1.84078         60.2462         6.72209          71.867 
        1.84692         59.9502         6.66702         71.6939 
        1.85306         59.6458         6.61249         71.3458 
         1.8592         59.4479         6.55866         70.9411 
        1.86533         59.0155         6.50546          70.739 
        1.87147         58.6404         6.45279         70.4747 
        1.87761          58.312         6.40068         70.1749 
