# k  (h/Mpc)    Pcb(k)  (Mpc/h)^3    Pcb_linear(k) (Mpc/h)^3    Pcb_NL(k) (Mpc/h)^3   ShotnoiseSubtracted = false
     0.00783031         19025.9         19315.3         19130.9 
       0.013688         21748.9         21509.1         21342.6 
       0.019231           19957         19855.8         19707.5 
      0.0249154         16418.2         16715.4         16609.7 
      0.0312784         13050.9         13113.8         13059.6 
      0.0375637         10424.6         10324.6         10304.2 
      0.0433917         8544.34         8592.19          8568.4 
      0.0492413         7562.53         7532.06         7514.33 
      0.0555754         6733.64         6860.53         6845.46 
      0.0619321         6458.78         6375.48         6359.17 
       0.067871         5802.62         5887.77         5880.62 
      0.0738098         5225.99         5286.67         5246.88 
      0.0800417          4502.2          4568.3         4567.03 
      0.0862327         3887.94          3868.3         3935.13 
      0.0921407         3419.02         3304.99         3391.08 
      0.0982031         2971.65          2880.9         3015.06 
       0.104506         2771.75         2602.11         2762.31 
       0.110769         2583.37         2446.13         2561.87 
       0.116806         2466.79         2352.64         2443.46 
       0.122832         2364.49         2261.29         2344.54 
       0.129052         2182.19         2131.82         2205.89 
       0.135211          2026.5         1959.57         2043.76 
       0.141259         1888.48          1764.6         1880.63 
       0.147318         1729.12         1571.93         1726.98 
       0.153489         1553.26         1404.26         1546.36 
       0.159709         1450.12         1278.25         1438.54 
       0.165845         1384.32         1195.73         1377.18 
       0.171974         1317.83         1143.93         1306.66 
       0.178125         1261.95         1106.82         1274.36 
       0.184229         1209.02         1069.54         1219.12 
        0.19034          1134.4         1021.77         1161.57 
       0.196428         1099.07         961.391         1096.77 
       0.202534         1047.94         892.429         1039.91 
       0.208729         981.702         822.038         968.294 
       0.214876         928.702         759.567         930.948 
       0.220989         887.744          709.32         889.525 
       0.227147         849.349         671.372         853.217 
        0.23329         814.114         643.611         828.464 
       0.239377         796.393         621.731         796.527 
       0.245482         743.203         600.911         762.517 
       0.251667         736.382         577.689         743.026 
       0.257832         704.274         551.202         710.603 
       0.263955          677.36         522.373          681.48 
       0.270079         647.776         493.096         655.349 
        0.27624         636.581         465.481         627.521 
       0.282372           610.6         441.427         608.751 
        0.28843         596.727         421.606         591.089 
       0.294538         564.895         405.099         572.534 
       0.300721         560.192         390.857         556.286 
        0.30691         535.523         377.672         545.755 
       0.313033         523.639         364.627         526.128 
       0.319153         507.946         350.979         510.187 
       0.325316         492.896         336.689         496.497 
        0.33145         477.183         322.331         476.609 
       0.337538         467.436         308.599         463.579 
       0.343633         453.411         295.864         456.341 
       0.349808         435.781         284.305         446.051 
       0.355968         431.328         274.077         436.045 
       0.362074         424.723         264.977         425.675 
       0.368217         411.696         256.499         412.675 
       0.374374         392.993           248.3         402.849 
       0.380519         391.072         240.205         392.315 
       0.386598         379.614         232.188         387.662 
       0.392688         376.038         224.215         375.342 
        0.39888         365.108         216.333         367.367 
       0.405048         356.843         208.849         360.203 
       0.411186         350.908         201.878         350.571 
       0.417313         343.505         195.439         343.226 
       0.423458         335.098         189.434         337.176 
       0.429607         330.373         183.789         330.836 
       0.435692         321.184         178.466         321.832 
       0.441815         317.427         173.271         318.559 
       0.447964         309.899         168.165         312.973 
       0.454126         303.178         163.167         303.637 
       0.460267         296.776         158.324         301.339 
       0.466387         292.702         153.664          295.59 
        0.47254         287.241         149.184         289.911 
       0.478662         285.766         144.955         283.879 
       0.484765          274.95         140.957         278.428 
       0.490885         271.902         137.135         273.741 
       0.497035         266.503         133.458         269.926 
       0.503198         262.521         129.913         265.907 
       0.509342          260.52         126.493         261.667 
       0.515458         256.567         123.183         258.287 
       0.521598          249.51         119.953         253.622 
       0.527764          246.58         116.815         250.894 
       0.533884         243.497         113.814         247.116 
           0.54         239.818          110.93         242.401 
       0.546137         238.111         108.147         239.466 
       0.552299         233.195         105.459         235.343 
       0.558452         231.685         102.877         232.151 
       0.564573         228.282           100.4         230.077 
       0.570708         223.183         97.9997           227.2 
       0.576825         219.306         95.6813         222.474 
       0.582926         216.899         93.4367         220.287 
       0.589034         214.398          91.255         217.662 
       0.595184         212.481         89.1262         213.433 
       0.601379         208.472         87.0519         211.107 
       0.607522         205.868         85.0641         207.792 
       0.613639         203.833         83.1513         207.007 
       0.619772         199.971         81.2958         204.955 
       0.625918         198.798          79.495         201.069 
       0.632068         195.074         77.7479         198.552 
       0.638161         193.942         76.0678         197.495 
         0.6443         190.864         74.4244         194.754 
       0.650464          188.83         72.8229         190.812 
       0.656582         186.082         71.2799          189.48 
       0.662703          185.84         69.7815         187.496 
       0.668861         182.809         68.3183         185.944 
       0.675024         179.888         66.8967         183.936 
       0.681124         178.357         65.5306         181.035 
       0.687237           176.4         64.2003         179.141 
       0.693381         173.454         62.9011         176.982 
       0.699536         171.853         61.6358         175.471 
       0.705665         170.116         60.4108         173.309 
       0.711789         168.617         59.2202          172.18 
       0.717957          167.79         58.0536         170.754 
        0.72409          165.69          56.925         168.886 
       0.730186         163.335         55.8335         166.966 
       0.736317         161.552         54.7648         165.225 
       0.742472         160.065         53.7204         163.492 
       0.748622         158.792         52.7045         161.756 
        0.75476         156.993         51.7173         161.133 
       0.760888          155.32         50.7571         158.608 
       0.767043         154.684         49.8177         157.434 
       0.773185         153.307         48.9042         156.285 
       0.779291         150.356          48.019         154.303 
       0.785407          149.81         47.1545         152.809 
       0.791564         148.453          46.306         151.551 
       0.797719           145.8         45.4788         150.522 
       0.803834         144.941         44.6771         149.285 
       0.809972         144.259          43.892         147.932 
       0.816124         143.095         43.1242         146.672 
       0.822261         142.054         42.3768         145.576 
       0.828378          140.52         41.6495         143.941 
       0.834502         139.723         40.9387         142.653 
       0.840667         137.807           40.24         141.454 
       0.846816         136.584         39.5596         140.529 
       0.852925         135.639         38.8993         139.447 
       0.859047         134.649         38.2528         138.333 
       0.865192          132.74         37.6189         136.821 
       0.871341         131.704          36.999          135.77 
       0.877463         130.731         36.3959         135.055 
       0.883569         130.308         35.8079         134.459 
       0.889708         128.649         35.2299         132.806 
       0.895864         127.476         34.6633         132.015 
       0.902008         126.495         34.1103         130.731 
       0.908149         126.001         33.5698         129.753 
       0.914301         124.264         33.0402         128.634 
       0.920448         123.556         32.5226         127.889 
       0.926574         122.407         32.0178         126.742 
       0.932687         122.335         31.5249         126.069 
       0.938823         120.469         31.0407         125.111 
       0.944975         119.842         30.5656         124.157 
       0.951105         118.861         30.1021         123.195 
       0.957225         118.221         29.6491         122.284 
       0.963368         116.212          29.204         121.371 
       0.969511         115.945          28.768         120.389 
       0.975621         114.878         28.3432         120.014 
       0.981748         114.715          27.926         119.207 
       0.987916         113.497         27.5147         118.252 
        0.99406          112.56         27.1131         117.299 
        1.00019         112.193         26.7204         116.444 
        1.00632         110.883         26.3359         115.575 
        1.01246         110.296         25.9584         114.502 
        1.01859         109.824         25.5889         114.147 
        1.02471         108.339         25.2272         113.574 
        1.03085         107.507         24.8711         112.837 
        1.03698         107.017         24.5228          112.29 
        1.04314         105.814         24.1796         111.324 
        1.04929         105.681         23.8439         110.647 
        1.05541         104.693         23.5159         110.097 
        1.06154         104.088         23.1933         109.393 
        1.06769         103.699         22.8762         108.748 
        1.07382         102.574         22.5662         108.131 
        1.07993         101.944         22.2626         107.362 
        1.08607         101.223         21.9633         106.617 
        1.09222         100.845         21.6692         106.102 
        1.09836           99.98         21.3809          105.32 
        1.10449         98.9575         21.0982          104.97 
        1.11063         98.3831         20.8202         104.052 
        1.11677         97.6343         20.5474         103.368 
         1.1229         97.0558           20.28         102.808 
        1.12903         96.6895         20.0171         102.167 
        1.13518         96.0923         19.7587         101.654 
        1.14131         95.1022         19.5049         100.808 
        1.14745          94.914         19.2558         100.346 
        1.15359         94.0175          19.011         99.8724 
        1.15973         93.5771         18.7704         99.3632 
        1.16584          92.765          18.535         98.5884 
        1.17197         92.1903         18.3033         98.2752 
        1.17811         91.5325         18.0749          97.552 
        1.18424         91.2543         17.8511          96.847 
        1.19038         90.9832         17.6304         96.6462 
        1.19652         90.1467         17.4135         95.9304 
        1.20267         89.3731         17.2003         95.5011 
        1.20881         89.0363         16.9907         94.7686 
        1.21495         88.0706          16.785         94.4195 
        1.22108         87.8598         16.5827         93.9339 
         1.2272         87.0287         16.3842         93.3213 
        1.23334         86.5839         16.1885         93.0801 
        1.23949         86.1655         15.9956         92.3744 
        1.24562         85.5433         15.8063          91.608 
        1.25174         85.2413         15.6204         91.1738 
        1.25789         84.6639          15.437         90.6665 
        1.26402           83.58         15.2568         90.4195 
        1.27014          83.396         15.0799         90.0016 
        1.27628         83.0513         14.9053         89.7083 
        1.28244         82.6572         14.7332         88.9938 
        1.28858         82.1664          14.564          88.504 
        1.29471         81.4529         14.3978         88.1252 
        1.30084         81.3307         14.2344         87.4367 
        1.30697         80.3913         14.0732         87.0679 
        1.31312         80.0129         13.9144         86.6578 
        1.31925         79.5182         13.7585          86.307 
        1.32537          79.082         13.6051         85.9722 
        1.33151         78.5375         13.4535         85.4416 
        1.33765         78.0894         13.3043         85.0635 
        1.34378         77.7252         13.1577         84.6486 
        1.34992          77.426         13.0132         84.1011 
        1.35606         76.9125         12.8705         83.7027 
         1.3622         76.2474         12.7303         83.3778 
        1.36833          75.926         12.5924          82.775 
        1.37445         75.5839         12.4567         82.5323 
        1.38059         74.8662         12.3226         81.8978 
        1.38675         74.3868         12.1901         81.5454 
        1.39288         74.3433         12.0601         81.0829 
        1.39901         73.7615         11.9321         80.8175 
        1.40515         73.1744         11.8056         80.5789 
         1.4113         72.9642         11.6811         80.2647 
        1.41742         72.4749         11.5588         79.8219 
        1.42355         72.1287          11.438         79.3001 
         1.4297         71.7616         11.3186         79.0163 
        1.43585         71.2522         11.2009         78.5069 
        1.44198          70.821         11.0853         78.3568 
        1.44809         70.6254         10.9717         77.9092 
        1.45423         70.2656         10.8591         77.4161 
        1.46036         69.6888         10.7484         77.0929 
        1.46649         69.2891         10.6392          76.843 
        1.47263         68.7383         10.5314         76.5004 
        1.47877         68.4509         10.4251         75.9815 
        1.48491         68.0905         10.3202         75.6533 
        1.49104         67.8512         10.2169         75.4885 
        1.49718         67.4562          10.115         74.9569 
        1.50333         67.1642         10.0143         74.5542 
        1.50947         66.6003         9.91512         74.2947 
         1.5156         66.4718         9.81748         73.9822 
        1.52172         66.0017         9.72115         73.6117 
        1.52787         65.5538         9.62592         73.2685 
          1.534         65.1864         9.53209         73.0339 
        1.54013         64.8279          9.4396         72.7376 
        1.54627         64.5648         9.34817          72.368 
        1.55241         64.1904         9.25794         72.0136 
        1.55855         63.8197         9.16902         71.6799 
        1.56467         63.5573         9.08152         71.4102 
         1.5708         63.0749         8.99491         71.0664 
        1.57695         63.0387         8.90929         70.7451 
        1.58308         62.6083         8.82499         70.4845 
        1.58922         62.2248         8.74172         70.1615 
        1.59535         61.9457         8.65955         69.8992 
         1.6015         61.5543         8.57833         69.5466 
        1.60764         61.2178         8.49818         69.2202 
        1.61376         60.9576         8.41928         69.0616 
        1.61989         60.6036         8.34132         68.7599 
        1.62604         60.2872         8.26417         68.2268 
        1.63218          60.123         8.18805         67.8978 
        1.63831         59.4749         8.11306         67.8177 
        1.64444         59.1595         8.03898         67.4878 
        1.65059         58.9488         7.96565         67.1468 
        1.65673         58.5466         7.89332         66.8419 
        1.66285         58.3538         7.82208         66.6045 
        1.66898         58.1589          7.7517         66.3898 
        1.67512         57.6065         7.68206         66.0624 
        1.68127         57.4626          7.6132         65.7804 
         1.6874         57.0554         7.54534         65.5189 
        1.69353         56.7702         7.47835         65.1816 
        1.69967         56.5951         7.41201         64.9366 
        1.70581         56.2348         7.34651            64.7 
        1.71193         55.9457         7.28204         64.4375 
        1.71806         55.6561         7.21822         64.1972 
        1.72421         55.3899         7.15503         63.9111 
        1.73035         55.1109         7.09266         63.6217 
        1.73649         54.8584         7.03106         63.3533 
        1.74262         54.4684         6.97023         63.0688 
        1.74876         54.2853         6.91008         62.8072 
        1.75489         53.9725         6.85077         62.5583 
        1.76101         53.7703         6.79217         62.3044 
        1.76715          53.336         6.73418         62.0635 
        1.77329         53.0893         6.67679         61.8096 
        1.77943         52.8517         6.62005         61.5542 
        1.78557         52.6456         6.56405          61.317 
        1.79171         52.2874         6.50869          61.067 
        1.79785         51.9301         6.45395         60.8041 
        1.80399         51.8007         6.39986          60.547 
        1.81012         51.5259         6.34646         60.3021 
        1.81625         51.2958         6.29369         60.0521 
        1.82239         50.9418         6.24145           59.81 
        1.82853         50.7651         6.18982          59.599 
        1.83466          50.531         6.13883         59.3501 
        1.84078         50.1265         6.08846         59.1052 
        1.84692         49.9904         6.03858         58.9554 
        1.85306         49.6994          5.9892         58.6867 
         1.8592         49.5435         5.94044          58.368 
        1.86533         49.1981         5.89226         58.1745 
        1.87147         48.8426         5.84455         57.9359 
