# k  (h/Mpc)    P(k)  (Mpc/h)^3    P_linear(k)  (Mpc/h)^3     P_NL(k)  ShotnoiseSubtracted = false
     0.00783031         9703.64         9834.84         9743.84 
       0.013688         11028.9         10955.1         10879.4 
       0.019231         10154.3         10114.4         10050.5 
      0.0249154         8413.92         8515.25         8476.68 
      0.0312784         6671.64         6680.85         6671.36 
      0.0375637         5304.23         5260.02         5260.27 
      0.0433917         4367.13          4377.5         4376.97 
      0.0492413          3852.1         3837.45          3838.2 
      0.0555754         3454.77         3495.35         3493.57 
      0.0619321          3284.8         3248.25         3244.68 
       0.067871         2974.34         2999.79         2997.67 
      0.0738098         2673.95         2693.54         2683.06 
      0.0800417         2303.98         2327.54         2328.32 
      0.0862327         1976.51          1970.9         1991.19 
      0.0921407         1718.65          1683.9         1709.92 
      0.0982031         1490.83         1467.82         1507.38 
       0.104506         1378.89         1325.79         1372.37 
       0.110769         1287.92         1246.31         1279.22 
       0.116806         1227.72         1198.68         1224.13 
       0.122832         1182.56         1152.14         1175.74 
       0.129052         1097.46         1086.18         1106.78 
       0.135211         1015.18         998.413         1022.64 
       0.141259         934.738         899.076         932.099 
       0.147318         847.148         800.911         846.457 
       0.153489         757.763         715.484         756.153 
       0.159709         701.328         651.282         696.994 
       0.165845         665.457         609.236         662.013 
       0.171974          630.66         582.841         628.775 
       0.178125         608.026         563.935         611.735 
       0.184229         586.006         544.941         587.929 
        0.19034         547.405         520.602         560.325 
       0.196428         528.188         489.839         526.626 
       0.202534         501.898         454.701         495.454 
       0.208729         465.423         418.837         460.339 
       0.214876         433.927         387.007         437.174 
       0.220989         412.866         361.406         413.859 
       0.227147         391.353         342.071         393.898 
        0.23329         375.257         327.925         381.045 
       0.239377         365.775         316.779         367.072 
       0.245482         342.486          306.17         351.272 
       0.251667         337.161         294.339         341.304 
       0.257832         323.705         280.845         325.756 
       0.263955         309.262         266.155         310.721 
       0.270079         294.323         251.238         296.985 
        0.27624         286.612         237.167         282.448 
       0.282372         274.714          224.91         271.928 
        0.28843         264.005         214.813         262.058 
       0.294538         251.313         206.403         253.434 
       0.300721         247.814         199.146         246.274 
        0.30691         236.252         192.428         239.641 
       0.313033          230.03         185.782         230.773 
       0.319153         220.345         178.828         223.276 
       0.325316         214.696         171.547         216.464 
        0.33145          206.04         164.231         207.536 
       0.337538         201.685         157.235         200.233 
       0.343633         194.071         150.746          195.57 
       0.349808         187.114         144.856         190.314 
       0.355968          183.68         139.645         185.615 
       0.362074         178.778         135.009         180.022 
       0.368217         173.245         130.689         173.897 
       0.374374         166.732         126.512          169.28 
       0.380519         163.869         122.387         164.298 
       0.386598         159.167         118.303         160.883 
       0.392688         156.156          114.24         155.935 
        0.39888         151.924         110.224         151.629 
       0.405048          147.44         106.411         148.351 
       0.411186         143.947         102.859         144.198 
       0.417313         140.557         99.5785         140.054 
       0.423458         137.071         96.5184         137.069 
       0.429607         133.796         93.6425         134.039 
       0.435692         129.444         90.9304         130.596 
       0.441815          128.02         88.2841         128.541 
       0.447964         125.125         85.6821         125.385 
       0.454126          119.68         83.1356          121.53 
       0.460267         118.068         80.6678         120.039 
       0.466387         116.289         78.2935         117.055 
        0.47254         113.236         76.0104          114.59 
       0.478662         112.345         73.8565         112.222 
       0.484765         108.516         71.8191           109.1 
       0.490885         106.577         69.8721          107.44 
       0.497035         104.895         67.9986         105.659 
       0.503198         101.864         66.1924          103.47 
       0.509342         100.089         64.4498         101.696 
       0.515458         98.3626          62.763         100.199 
       0.521598         96.4629         61.1175         97.5107 
       0.527764         95.0514         59.5186         95.6032 
       0.533884         93.5058         57.9894         94.1024 
           0.54         91.4284         56.5203          92.254 
       0.546137         90.3228         55.1023         90.9721 
       0.552299         88.6448         53.7328         88.7769 
       0.558452         86.8943          52.417         87.0955 
       0.564573          85.333         51.1548         86.1049 
       0.570708         83.6757          49.932         84.7406 
       0.576825         82.5192         48.7508         82.9584 
       0.582926         80.7015          47.607         81.5903 
       0.589034         79.3578         46.4955         80.7072 
       0.595184         78.1236         45.4109          79.011 
       0.601379         76.8866          44.354          78.043 
       0.607522         75.2183         43.3412         76.3339 
       0.613639         74.6443         42.3666         75.5159 
       0.619772          73.095         41.4212         74.2892 
       0.625918         71.9645         40.5036         73.1982 
       0.632068         71.0978         39.6135         71.9665 
       0.638161         70.1835         38.7575         71.1526 
         0.6443         69.2232         37.9201         69.9502 
       0.650464         68.2955         37.1041         68.4782 
       0.656582         67.0252          36.318         67.9006 
       0.662703         65.9119         35.5545         66.7133 
       0.668861         64.9455          34.809         65.9435 
       0.675024         64.0472         34.0847          64.868 
       0.681124         63.3149         33.3886         63.9443 
       0.687237         62.0113         32.7108          63.085 
       0.693381         61.2066         32.0489         62.0867 
       0.699536         60.5467         31.4042         61.5217 
       0.705665         60.4006           30.78         60.9124 
       0.711789          58.847         30.1734         59.7253 
       0.717957         58.3629          29.579         59.0718 
        0.72409         57.3749          29.004         58.5466 
       0.730186         56.4137         28.4478         57.8249 
       0.736317         56.2083         27.9033         56.8744 
       0.742472         55.4855         27.3712         56.2277 
       0.748622         54.7081         26.8536         55.4711 
        0.75476         54.0866         26.3506         54.7343 
       0.760888         53.2586         25.8614          53.965 
       0.767043         52.7562         25.3827         53.6415 
       0.773185         52.0311         24.9173         53.0997 
       0.779291         51.4423         24.4662         52.3968 
       0.785407           51.02         24.0258         51.6256 
       0.791564         50.4543         23.5934         51.0983 
       0.797719         49.4297          23.172          50.741 
       0.803834         49.1739         22.7635         49.9518 
       0.809972          48.244         22.3635         49.3895 
       0.816124         47.9093         21.9723         48.9462 
       0.822261         47.4785         21.5915         48.3089 
       0.828378          47.138         21.2209         47.6507 
       0.834502         46.5419         20.8588         47.2625 
       0.840667           45.95         20.5028         46.9233 
       0.846816         45.2901         20.1561         46.4011 
       0.852925         44.9213         19.8197         45.8949 
       0.859047         44.2603         19.4903         45.3528 
       0.865192         43.9237         19.1673         44.9353 
       0.871341         43.5981         18.8514         44.4381 
       0.877463         42.8271         18.5442         44.0015 
       0.883569         42.5396         18.2446         43.7407 
       0.889708         42.1894         17.9501          43.213 
       0.895864         41.7614         17.6614         42.8267 
       0.902008         41.3352         17.3796          42.299 
       0.908149         40.9643         17.1042         42.0024 
       0.914301          40.549         16.8344         41.6657 
       0.920448         40.2198         16.5706         41.2097 
       0.926574         39.6678         16.3135         40.7869 
       0.932687         39.5035         16.0623         40.4419 
       0.938823         38.8648         15.8156         39.9532 
       0.944975         38.5511         15.5735         39.6292 
       0.951105          38.154         15.3374         39.3307 
       0.957225         37.7248         15.1066          38.944 
       0.963368         37.6217         14.8798         38.5513 
       0.969511         37.2453         14.6576         38.2036 
       0.975621         37.0041         14.4412         38.0261 
       0.981748         36.5087         14.2287         37.6886 
       0.987916         36.1105         14.0191         37.4022 
        0.99406         35.9259         13.8145         36.9667 
        1.00019         35.5318         13.6144         36.6013 
        1.00632         35.2715         13.4185         36.3023 
        1.01246         35.0432         13.2261         35.9828 
        1.01859         34.5184         13.0379          35.836 
        1.02471         34.3573         12.8535         35.5716 
        1.03085         34.0735         12.6722         35.1704 
        1.03698         33.7114         12.4947         34.8643 
        1.04314         33.4629         12.3198         34.5289 
        1.04929         33.1559         12.1488         34.3294 
        1.05541         32.7891         11.9816         34.1827 
        1.06154         32.7388         11.8173         33.8431 
        1.06769         32.3349         11.6557         33.5554 
        1.07382         32.1843         11.4977         33.3168 
        1.07993         31.9421          11.343          33.051 
        1.08607         31.6503         11.1906         32.8315 
        1.09222         31.4165         11.0407         32.5544 
        1.09836         31.1201         10.8938         32.2906 
        1.10449         30.9127         10.7498         32.0639 
        1.11063         30.5457         10.6082          31.743 
        1.11677           30.35         10.4692         31.4906 
         1.1229         30.1195         10.3329         31.3553 
        1.12903          29.719          10.199          31.125 
        1.13518         29.8041         10.0673         30.8664 
        1.14131         29.5576           9.938         30.6457 
        1.14745         29.1365         9.81107         30.4797 
        1.15359         29.0638         9.68634         30.1961 
        1.15973         28.6939         9.56373         30.0403 
        1.16584          28.551          9.4438         29.7306 
        1.17197         28.3548         9.32576         29.6251 
        1.17811         28.1907         9.20939         29.3801 
        1.18424         27.9319         9.09534         29.1814 
        1.19038         27.7228          8.9829         28.9919 
        1.19652         27.6536          8.8724         28.7415 
        1.20267         27.3663         8.76377         28.6078 
        1.20881         27.1788         8.65699         28.4285 
        1.21495         26.9319         8.55215         28.2308 
        1.22108         26.8052         8.44908         28.0438 
         1.2272         26.4694         8.34795         27.8831 
        1.23334         26.3719         8.24825         27.6854 
        1.23949         26.3352         8.14994         27.4413 
        1.24562         25.9712         8.05352         27.2814 
        1.25174         25.8891          7.9588         27.1544 
        1.25789         25.7275         7.86532         26.9535 
        1.26402         25.4936         7.77351         26.7589 
        1.27014          25.267          7.6834         26.6567 
        1.27628         25.1065         7.59445         26.4588 
        1.28244         24.9799         7.50673         26.3022 
        1.28858         24.8389         7.42052         26.1225 
        1.29471         24.7335         7.33586         26.0089 
        1.30084         24.5702         7.25259         25.8166 
        1.30697         24.3528         7.17049         25.6208 
        1.31312         24.1701         7.08954         25.4906 
        1.31925         24.0282          7.0101         25.3289 
        1.32537          23.881         6.93195         25.2186 
        1.33151         23.6946         6.85472          25.042 
        1.33765         23.5946         6.77871         24.8847 
        1.34378         23.4308           6.704         24.7661 
        1.34992         23.2612         6.63037         24.6199 
        1.35606         23.1259         6.55769          24.479 
         1.3622         22.9955         6.48623         24.3475 
        1.36833         22.7874           6.416         24.2506 
        1.37445         22.7231         6.34685         24.0811 
        1.38059         22.5534         6.27851         23.9595 
        1.38675         22.3276         6.21102         23.8289 
        1.39288         22.3203         6.14479         23.6912 
        1.39901          22.126         6.07955         23.5449 
        1.40515         21.9715         6.01512         23.4194 
         1.4113         21.8549         5.95164         23.2784 
        1.41742         21.7162         5.88933         23.1269 
        1.42355         21.5985         5.82779         23.0504 
         1.4297         21.4835         5.76694         22.8788 
        1.43585         21.4098         5.70699         22.7841 
        1.44198         21.1509         5.64812         22.6639 
        1.44809         21.0962         5.59019         22.5322 
        1.45423         20.9695         5.53287         22.3814 
        1.46036         20.8887         5.47645         22.2716 
        1.46649         20.7339         5.42079         22.1862 
        1.47263         20.5938         5.36587         22.0872 
        1.47877         20.5237         5.31174         21.9594 
        1.48491         20.4892         5.25827         21.8449 
        1.49104         20.2575         5.20564         21.7381 
        1.49718         20.0829          5.1537         21.6311 
        1.50333         20.0691         5.10239         21.5049 
        1.50947         19.9541         5.05188         21.3937 
         1.5156         19.8353         5.00213         21.2982 
        1.52172         19.7198         4.95305          21.194 
        1.52787         19.6219         4.90453         21.0756 
          1.534         19.5199         4.85672         20.9635 
        1.54013         19.3577         4.80959         20.8468 
        1.54627         19.3024         4.76301         20.7416 
        1.55241         19.1104         4.71704         20.6499 
        1.55855         19.0684         4.67173         20.5507 
        1.56467         18.8872         4.62715          20.477 
         1.5708         18.9121         4.58302         20.3681 
        1.57695         18.7239          4.5394          20.251 
        1.58308          18.629         4.49644         20.1658 
        1.58922         18.5671         4.45402         20.0635 
        1.59535         18.4571         4.41215         19.9645 
         1.6015         18.3173         4.37077         19.8618 
        1.60764         18.2181         4.32993         19.7594 
        1.61376         18.1065         4.28973         19.6787 
        1.61989         18.0069         4.25001         19.6088 
        1.62604         17.9643          4.2107         19.5161 
        1.63218         17.8982         4.17191         19.4304 
        1.63831         17.7457          4.1337         19.3612 
        1.64444         17.6757         4.09596         19.2628 
        1.65059         17.5761          4.0586         19.1524 
        1.65673         17.4464         4.02174         19.0749 
        1.66285         17.4225         3.98545         19.0113 
        1.66898         17.3127         3.94959         18.9193 
        1.67512         17.2297          3.9141         18.8085 
        1.68127         17.1109         3.87902         18.7275 
         1.6874         17.0105         3.84445         18.6433 
        1.69353         16.9647         3.81031         18.5182 
        1.69967         16.8579         3.77651         18.4578 
        1.70581         16.7712         3.74314         18.4047 
        1.71193         16.7135         3.71029         18.3258 
        1.71806         16.5876         3.67777         18.2469 
        1.72421          16.495         3.64558         18.1626 
        1.73035          16.404          3.6138          18.096 
        1.73649         16.3689         3.58241         18.0317 
        1.74262         16.2685         3.55142         17.9154 
        1.74876         16.2228         3.52077         17.8151 
        1.75489         16.1253         3.49055         17.7608 
        1.76101         16.0279          3.4607         17.7198 
        1.76715         15.9619         3.43115         17.6301 
        1.77329         15.9081         3.40191         17.5342 
        1.77943         15.8143           3.373         17.4555 
        1.78557         15.7096         3.34447          17.384 
        1.79171          15.628         3.31626         17.3189 
        1.79785         15.5465         3.28837         17.2582 
        1.80399         15.5229         3.26081          17.195 
        1.81012         15.4297          3.2336         17.1175 
        1.81625         15.3804         3.20672         17.0389 
        1.82239          15.293          3.1801         16.9712 
        1.82853          15.202         3.15379         16.9084 
        1.83466         15.1449         3.12781         16.8421 
        1.84078         15.0177         3.10215         16.7658 
        1.84692         14.9835         3.07673          16.683 
        1.85306         14.9167         3.05157         16.6303 
         1.8592         14.8287         3.02673         16.5816 
        1.86533         14.7563         3.00218         16.4974 
        1.87147         14.7107         2.97787          16.419 
        1.87761         14.6515         2.95382         16.3592 
