# k  (h/Mpc)    Pcb(k)  (Mpc/h)^3    Pcb_linear(k) (Mpc/h)^3    Pcb_NL(k) (Mpc/h)^3   ShotnoiseSubtracted = false
     0.00783031         4306.94         4359.37         4319.49 
       0.013688         4870.53         4857.53         4826.28 
       0.019231         4496.57         4485.32         4460.04 
      0.0249154          3748.3         3776.44         3763.23 
      0.0312784         2965.03         2963.04         2963.46 
      0.0375637         2348.96         2332.95         2335.77 
      0.0433917          1941.3         1941.56         1944.28 
      0.0492413         1707.65         1702.05         1704.75 
      0.0555754         1540.06         1550.33         1550.82 
      0.0619321          1452.4         1440.75         1440.06 
       0.067871         1324.04         1330.55         1329.52 
      0.0738098         1189.04         1194.72         1192.18 
      0.0800417         1025.24         1032.38         1032.63 
      0.0862327         875.138         874.198         878.853 
      0.0921407         754.792         746.898         753.002 
      0.0982031          654.94          651.06         659.964 
       0.104506          600.71          588.06         598.223 
       0.110769         562.157          552.81         559.871 
       0.116806         536.324         531.683         536.897 
       0.122832         517.435          511.04         515.774 
       0.129052         482.837         481.781         485.796 
       0.135211         445.018         442.854         447.767 
       0.141259         405.931         398.792         405.579 
       0.147318           365.3         355.251           364.9 
       0.153489         326.121         317.359          325.91 
       0.159709         299.277         288.881          298.45 
       0.165845         282.816         270.232         281.346 
       0.171974         267.607         258.524         267.977 
       0.178125         259.007         250.138         259.971 
       0.184229           250.3         241.713         250.609 
        0.19034         235.026         230.918         239.056 
       0.196428         224.743         217.272          224.56 
       0.202534         212.209         201.687         209.856 
       0.208729         195.428         185.779         194.396 
       0.214876         180.722         171.661         182.232 
       0.220989         171.141         160.305         171.306 
       0.227147         161.177         151.729           162.4 
        0.23329         154.527         145.455         156.433 
       0.239377         150.051          140.51         150.974 
       0.245482         142.231         135.805         144.934 
       0.251667         138.837         130.557         140.179 
       0.257832         133.033         124.571         133.758 
       0.263955         126.431         118.056         127.099 
       0.270079         120.015         111.439         120.704 
        0.27624         115.444         105.198         114.316 
       0.282372         110.229         99.7619         109.432 
        0.28843         105.091         95.2826         104.991 
       0.294538          100.57         91.5519         101.143 
       0.300721         98.3292         88.3333         98.0063 
        0.30691         94.0553         85.3535         94.9615 
       0.313033         90.9948         82.4052         91.4872 
       0.319153         86.5913          79.321         88.3375 
       0.325316         84.7878         76.0914         85.2895 
        0.33145         80.9267         72.8465         81.7116 
       0.337538         78.5273         69.7431         78.4669 
       0.343633         75.2713          66.865         75.8082 
       0.349808         72.7048         64.2526         73.4391 
       0.355968         70.7215         61.9412         71.4334 
       0.362074         68.3726         59.8845          69.023 
       0.368217         66.0892         57.9685         66.5811 
       0.374374          64.022         56.1156         64.7484 
       0.380519         62.3689         54.2863         62.6593 
       0.386598         60.4579         52.4744         60.8912 
       0.392688         58.9958         50.6725         59.0828 
        0.39888         57.0804         48.8912         57.1901 
       0.405048         55.4113         47.1998          55.414 
       0.411186         53.8746         45.6244         54.0452 
       0.417313         52.1657         44.1691         52.3053 
       0.423458           50.69         42.8119         50.9938 
       0.429607         49.2865         41.5361         49.5786 
       0.435692         47.6337         40.3332         48.3216 
       0.441815         46.8329         39.1592         47.2848 
       0.447964         45.8371         38.0053         45.8778 
       0.454126         43.7612         36.8757         44.5324 
       0.460267         43.0429         35.7811         43.6713 
       0.466387         41.8265         34.7279         42.3759 
        0.47254          40.955         33.7154         41.4191 
       0.478662         40.2302         32.7598         40.3978 
       0.484765         38.9215         31.8562         39.2481 
       0.490885         38.0251         30.9925         38.5716 
       0.497035         37.4213         30.1615         37.7998 
       0.503198         36.3104         29.3604         36.7482 
       0.509342         35.3683         28.5874          36.005 
       0.515458         34.5481         27.8392         35.3858 
       0.521598         33.9165         27.1093         34.2974 
       0.527764         33.1665         26.4002         33.3904 
       0.533884         32.5776         25.7219         32.7225 
           0.54         31.7128         25.0702         32.0579 
       0.546137         31.2172         24.4413         31.4806 
       0.552299         30.6432         23.8338         30.6162 
       0.558452         29.6969         23.2501         29.9664 
       0.564573         29.1582         22.6903         29.5267 
       0.570708         28.6367         22.1479         28.9323 
       0.576825         27.9841         21.6239         28.3182 
       0.582926         27.3315         21.1167         27.7579 
       0.589034         26.6066         20.6236         27.3458 
       0.595184         26.2386         20.1425         26.6563 
       0.601379         25.6754         19.6737         26.2847 
       0.607522         25.1208         19.2245         25.6203 
       0.613639         24.8603         18.7922         25.1869 
       0.619772         24.2215         18.3728         24.7611 
       0.625918         23.9752         17.9658         24.3389 
       0.632068         23.5925          17.571         23.8282 
       0.638161         23.0655         17.1913         23.4109 
         0.6443         22.6054         16.8199         22.9375 
       0.650464         22.1532          16.458          22.582 
       0.656582         21.9506         16.1092         22.2134 
       0.662703         21.4883         15.7706         21.7609 
       0.668861          21.074         15.4399          21.492 
       0.675024         20.6709         15.1186         21.0042 
       0.681124         20.2993         14.8099         20.6619 
       0.687237         19.8907         14.5093         20.3009 
       0.693381         19.6891         14.2156         19.9273 
       0.699536         19.2013         13.9297         19.6968 
       0.705665         19.1235         13.6528         19.4201 
       0.711789         18.6125         13.3837         18.9751 
       0.717957         18.3319         13.1201         18.7359 
        0.72409         18.0649          12.865         18.4737 
       0.730186         17.7654         12.6183         18.1521 
       0.736317         17.5614         12.3768         17.8473 
       0.742472          17.228         12.1408         17.6164 
       0.748622         17.0239         11.9112         17.3141 
        0.75476         16.7084         11.6881         17.0694 
       0.760888         16.4131         11.4711         16.8378 
       0.767043         16.1808         11.2588         16.6068 
       0.773185         15.8947         11.0523         16.3434 
       0.779291          15.778         10.8523         16.1361 
       0.785407         15.6141         10.6569         15.8654 
       0.791564         15.2979         10.4651         15.6492 
       0.797719         14.9003         10.2782         15.4541 
       0.803834         14.8695          10.097         15.1957 
       0.809972         14.6787          9.9196         15.0072 
       0.816124          14.354         9.74606         14.7861 
       0.822261          14.175         9.57716         14.5734 
       0.828378         14.0504         9.41278          14.353 
       0.834502         13.8769         9.25215         14.2055 
       0.840667         13.6529         9.09424         13.9976 
       0.846816         13.3848         8.94047         13.8148 
       0.852925         13.2502         8.79125         13.6926 
       0.859047         13.0808         8.64513         13.4836 
       0.865192         12.9213         8.50187         13.2943 
       0.871341          12.794         8.36177         13.1507 
       0.877463         12.5574         8.22548         12.9768 
       0.883569         12.3823         8.09259         12.8049 
       0.889708         12.1806         7.96196         12.6474 
       0.895864         12.0448          7.8339         12.4672 
       0.902008         11.9399         7.70893         12.3354 
       0.908149          11.799         7.58678         12.1963 
       0.914301         11.7166         7.46709         12.0984 
       0.920448         11.4886         7.35009         11.8902 
       0.926574           11.36         7.23603         11.7427 
       0.932687         11.2001         7.12463         11.5766 
       0.938823         11.0498          7.0152          11.447 
       0.944975          10.922         6.90782         11.3365 
       0.951105         10.7931         6.80308         11.1647 
       0.957225         10.6642          6.7007         11.0711 
       0.963368         10.5848         6.60009         10.9301 
       0.969511         10.4558         6.50156         10.8037 
       0.975621         10.3608         6.40557         10.6905 
       0.981748         10.1834         6.31129         10.5738 
       0.987916         10.0976         6.21831         10.4391 
        0.99406         9.96863         6.12757         10.3333 
        1.00019         9.81505         6.03882         10.2299 
        1.00632         9.75202         5.95192         10.1205 
        1.01246         9.66915          5.8666         10.0364 
        1.01859         9.48559          5.7831          9.9187 
        1.02471         9.43167         5.70134         9.78087 
        1.03085         9.33563         5.62088         9.68199 
        1.03698           9.157         5.54215         9.58939 
        1.04314         9.10533          5.4646         9.47929 
        1.04929         8.98132         5.38872         9.40279 
        1.05541         8.86174         5.31459         9.32681 
        1.06154         8.80853         5.24168         9.19658 
        1.06769         8.73964         5.17003         9.08775 
        1.07382         8.62872         5.09995         9.01514 
        1.07993         8.53438         5.03134         8.92174 
        1.08607         8.43072         4.96371         8.84056 
        1.09222         8.36502         4.89725         8.76327 
        1.09836         8.25494         4.83209         8.65344 
        1.10449         8.18938         4.76819         8.56591 
        1.11063         8.06607         4.70538         8.49014 
        1.11677         8.02676         4.64372         8.39618 
         1.1229         7.97164         4.58328         8.33448 
        1.12903         7.85692         4.52387         8.26207 
        1.13518          7.7474         4.46546         8.17165 
        1.14131         7.71273         4.40811         8.09142 
        1.14745         7.62773         4.35181         8.01918 
        1.15359         7.57275         4.29649         7.93129 
        1.15973         7.47135          4.2421         7.86366 
        1.16584         7.36676         4.18891         7.80026 
        1.17197         7.33616         4.13655         7.75105 
        1.17811         7.26079         4.08493          7.6393 
        1.18424         7.18972         4.03434          7.5813 
        1.19038         7.14266         3.98447         7.52261 
        1.19652         7.06539         3.93546         7.44061 
        1.20267         6.99234         3.88727         7.38526 
        1.20881         6.94546         3.83991          7.3226 
        1.21495          6.8849         3.79341          7.2565 
        1.22108         6.79593         3.74769         7.19729 
         1.2272         6.72989         3.70283         7.12604 
        1.23334         6.67972         3.65861         7.07373 
        1.23949         6.60207           3.615         7.00822 
        1.24562         6.56436         3.57223         6.94565 
        1.25174         6.51302         3.53022         6.89083 
        1.25789         6.44284         3.48875         6.82503 
        1.26402         6.41451         3.44803          6.7667 
        1.27014         6.33668         3.40806         6.71413 
        1.27628         6.26557         3.36861         6.64627 
        1.28244         6.20784          3.3297         6.60894 
        1.28858          6.1949         3.29146         6.55059 
        1.29471          6.1196          3.2539         6.50226 
        1.30084         6.05065         3.21697         6.46434 
        1.30697         6.01762         3.18056         6.39356 
        1.31312         5.93305         3.14465         6.34325 
        1.31925         5.88161         3.10941         6.30686 
        1.32537         5.85104         3.07475         6.25917 
        1.33151         5.81164         3.04049         6.20486 
        1.33765         5.75542         3.00678          6.1455 
        1.34378          5.7036         2.97364         6.09737 
        1.34992         5.64571         2.94098         6.05961 
        1.35606         5.62144         2.90874         6.00566 
         1.3622         5.57981         2.87704         5.95364 
        1.36833         5.50403         2.84589         5.93157 
        1.37445         5.47893         2.81522         5.87486 
        1.38059         5.43224         2.78491         5.82046 
        1.38675         5.37281         2.75497         5.79177 
        1.39288         5.35614         2.72559         5.74533 
        1.39901         5.29583         2.69666         5.70033 
        1.40515         5.26651         2.66808         5.65628 
         1.4113         5.21536         2.63992         5.61608 
        1.41742          5.1699         2.61228         5.58184 
        1.42355         5.12684         2.58498         5.54016 
         1.4297         5.10862           2.558           5.491 
        1.43585         5.06731          2.5314         5.46036 
        1.44198         5.03022         2.50529         5.41858 
        1.44809         4.98443          2.4796          5.3801 
        1.45423         4.94143         2.45417         5.34032 
        1.46036          4.9001         2.42914         5.30102 
        1.46649         4.87726         2.40446         5.27028 
        1.47263         4.82442          2.3801         5.23978 
        1.47877         4.79071         2.35608         5.19073 
        1.48491         4.76502         2.33237         5.15463 
        1.49104         4.72905         2.30902         5.12495 
        1.49718         4.69113         2.28599         5.09018 
        1.50333         4.65443         2.26322         5.05486 
        1.50947         4.61157         2.24082          5.0235 
         1.5156          4.5899         2.21875         4.99206 
        1.52172         4.56297         2.19698         4.95545 
        1.52787         4.52258         2.17546         4.91458 
          1.534         4.48711         2.15425         4.88384 
        1.54013           4.453         2.13335         4.84942 
        1.54627         4.41576         2.11269         4.81629 
        1.55241         4.38502          2.0923         4.78797 
        1.55855         4.36163          2.0722          4.7531 
        1.56467         4.32486         2.05243         4.72839 
         1.5708         4.30967         2.03285         4.70373 
        1.57695         4.26949          2.0135         4.66693 
        1.58308         4.23264         1.99445         4.63652 
        1.58922         4.21628         1.97563         4.61597 
        1.59535         4.18697         1.95706         4.58882 
         1.6015         4.14534         1.93871         4.55302 
        1.60764          4.1159         1.92059         4.52045 
        1.61376         4.09807         1.90276         4.49751 
        1.61989         4.06124         1.88514          4.4728 
        1.62604         4.04555         1.86771          4.4437 
        1.63218         4.01965          1.8505         4.41882 
        1.63831         3.98419         1.83355         4.39451 
        1.64444         3.95654         1.81681         4.36051 
        1.65059         3.92094         1.80024         4.33426 
        1.65673         3.91562         1.78389         4.31138 
        1.66285         3.87174         1.76779         4.28487 
        1.66898         3.84983         1.75189         4.25437 
        1.67512         3.83235         1.73615         4.22954 
        1.68127         3.80496         1.72059         4.20748 
         1.6874         3.77835         1.70525         4.18597 
        1.69353         3.74335         1.69011         4.16241 
        1.69967         3.73344         1.67512         4.13158 
        1.70581         3.71369         1.66031         4.10717 
        1.71193         3.67698         1.64575         4.08984 
        1.71806         3.65591         1.63132         4.06694 
        1.72421         3.63651         1.61704         4.04205 
        1.73035         3.61314         1.60294         4.01954 
        1.73649         3.59148         1.58902         3.99754 
        1.74262         3.56412         1.57527         3.97098 
        1.74876         3.54872         1.56168         3.94806 
        1.75489         3.52424         1.54828         3.92461 
        1.76101         3.49849         1.53503         3.89944 
        1.76715         3.47924         1.52193         3.88414 
        1.77329         3.45105         1.50896         3.86334 
        1.77943         3.43174         1.49613         3.83722 
        1.78557         3.41742         1.48348           3.815 
        1.79171         3.39754         1.47097         3.79233 
        1.79785         3.36794          1.4586         3.77073 
        1.80399         3.35416         1.44637         3.75372 
        1.81012         3.33576          1.4343         3.73784 
        1.81625         3.31052         1.42238         3.71834 
        1.82239         3.29227         1.41057         3.69765 
        1.82853         3.26663          1.3989         3.68107 
        1.83466         3.24992         1.38738         3.66309 
        1.84078         3.23646           1.376         3.64178 
        1.84692          3.2191         1.36472         3.61985 
        1.85306         3.19374         1.35356         3.59678 
         1.8592         3.17662         1.34254         3.57692 
        1.86533         3.15637         1.33165         3.56132 
        1.87147           3.138         1.32087         3.54138 
