# k  (h/Mpc)    Pcb(k)  (Mpc/h)^3    Pcb_linear(k) (Mpc/h)^3    Pcb_NL(k) (Mpc/h)^3   ShotnoiseSubtracted = false
     0.00783031         448.263         452.993         448.759 
       0.013688         503.566          505.11         501.978 
       0.019231         466.512         466.524         464.095 
      0.0249154           391.9         392.844         391.703 
      0.0312784         308.929         308.255         308.571 
      0.0375637         243.765         242.716         243.191 
      0.0433917         202.445         202.003         202.467 
      0.0492413         177.513         177.088         177.486 
      0.0555754         161.112         161.305         161.395 
      0.0619321         150.268         149.904         149.826 
       0.067871         138.169          138.44         138.264 
      0.0738098         124.031         124.308         124.136 
      0.0800417         107.137         107.418         107.376 
      0.0862327         90.9771         90.9595         91.0607 
      0.0921407         77.8959         77.7143         77.8824 
      0.0982031         67.7919         67.7427         67.9594 
       0.104506         61.4929         61.1876         61.3887 
       0.110769         57.6869         57.5199         57.6454 
       0.116806         55.2678         55.3217          55.364 
       0.122832         53.2087         53.1739          53.179 
       0.129052         50.0049         50.1296         50.1132 
       0.135211         45.9638         46.0793         46.0847 
       0.141259         41.5355         41.4946         41.5469 
       0.147318         37.1155         36.9642         37.0765 
       0.153489         33.1351         33.0215          33.136 
       0.159709         30.1788         30.0584         30.1884 
       0.165845         28.3361          28.118         28.2574 
       0.171974         26.9468         26.8998         27.0061 
       0.178125         26.0898         26.0272         26.1263 
       0.184229         25.2294         25.1505         25.2294 
        0.19034         23.9746         24.0273          24.094 
       0.196428         22.6396         22.6075         22.6651 
       0.202534         21.1403         20.9858         21.0598 
       0.208729         19.4221         19.3306         19.4201 
       0.214876         17.9121         17.8616         17.9782 
       0.220989         16.8174           16.68         16.8035 
       0.227147         15.8452         15.7876         15.9035 
        0.23329         15.1857         15.1348         15.2518 
       0.239377         14.6741         14.6203         14.7288 
       0.245482         14.1375         14.1307         14.2189 
       0.251667         13.6483         13.5847         13.6783 
       0.257832         13.0043         12.9618         13.0507 
       0.263955         12.3409         12.2839         12.3715 
       0.270079         11.6662         11.5954         11.6867 
        0.27624         11.0598          10.946          11.037 
       0.282372         10.4983         10.3804         10.4818 
        0.28843         9.99618         9.91432         10.0166 
       0.294538          9.5989         9.52614         9.62418 
       0.300721         9.29572         9.19124         9.28952 
        0.30691         8.94747         8.88118         8.97787 
       0.313033         8.63502         8.57441         8.66396 
       0.319153         8.25958         8.25349         8.34313 
       0.325316         8.00656         7.91745         8.00988 
        0.33145         7.65444         7.57981         7.66877 
       0.337538         7.33381          7.2569         7.34436 
       0.343633         7.01453         6.95743         7.04404 
       0.349808         6.75999          6.6856         6.77712 
       0.355968         6.52623          6.4451         6.54493 
       0.362074         6.29796          6.2311         6.32305 
       0.368217         6.09521         6.03174          6.1145 
       0.374374         5.88368         5.83893         5.92518 
       0.380519         5.71056         5.64859         5.72978 
       0.386598         5.52871         5.46006          5.5427 
       0.392688         5.35675         5.27258         5.35487 
        0.39888         5.15808         5.08722         5.17092 
       0.405048         4.98714         4.91123         4.98814 
       0.411186         4.82417          4.7473         4.83113 
       0.417313         4.66189         4.59588         4.67762 
       0.423458         4.52822         4.45466         4.53639 
       0.429607         4.38183         4.32191         4.39967 
       0.435692         4.25633         4.19675         4.27573 
       0.441815          4.1335         4.07459         4.15627 
       0.447964         4.02875         3.95452         4.03158 
       0.454126         3.89157         3.83698         3.91311 
       0.460267          3.7815          3.7231         3.80212 
       0.466387         3.66094         3.61351          3.6875 
        0.47254         3.56229         3.50816         3.58271 
       0.478662         3.47025         3.40872         3.48097 
       0.484765         3.36345          3.3147         3.38602 
       0.490885         3.27898         3.22484         3.30177 
       0.497035           3.208         3.13837         3.21643 
       0.503198         3.11412         3.05501         3.12564 
       0.509342         3.03816         2.97458         3.04597 
       0.515458         2.95092         2.89673         2.97105 
       0.521598         2.87641         2.82078         2.88852 
       0.527764         2.79418         2.74699          2.8143 
       0.533884         2.73839         2.67641         2.74254 
           0.54         2.66529         2.60861         2.67359 
       0.546137         2.60142         2.54316         2.61047 
       0.552299         2.53775         2.47995         2.54079 
       0.558452          2.4676         2.41922         2.48156 
       0.564573         2.41654         2.36097         2.42812 
       0.570708         2.35806         2.30453         2.36924 
       0.576825         2.29851         2.25001          2.3125 
       0.582926         2.25181         2.19723         2.26067 
       0.589034          2.1855         2.14593          2.2121 
       0.595184         2.13969         2.09587         2.15326 
       0.601379         2.08973         2.04709         2.11128 
       0.607522         2.04982         2.00035         2.06222 
       0.613639         2.00938         1.95536         2.01549 
       0.619772         1.95463         1.91173         1.97419 
       0.625918         1.91797         1.86938         1.92834 
       0.632068         1.88126          1.8283         1.88536 
       0.638161          1.8342         1.78879         1.84645 
         0.6443         1.79537         1.75014         1.80565 
       0.650464         1.75134         1.71248         1.77119 
       0.656582         1.72223          1.6762         1.73322 
       0.662703         1.68555         1.64096         1.69617 
       0.668861         1.65616         1.60656         1.66362 
       0.675024         1.61762         1.57313         1.62883 
       0.681124         1.58203           1.541         1.59482 
       0.687237          1.5543         1.50972         1.56077 
       0.693381         1.52358         1.47917         1.52875 
       0.699536         1.48481         1.44941         1.49978 
       0.705665         1.45774          1.4206         1.47498 
       0.711789          1.4331         1.39261         1.44489 
       0.717957         1.40118         1.36517         1.41509 
        0.72409          1.3748         1.33863         1.38939 
       0.730186          1.3487         1.31297         1.36183 
       0.736317         1.33069         1.28784         1.33513 
       0.742472         1.30424         1.26328         1.31315 
       0.748622         1.27691         1.23939         1.29001 
        0.75476         1.24984         1.21617         1.26389 
       0.760888         1.22694         1.19359         1.24107 
       0.767043         1.21166          1.1715         1.21953 
       0.773185         1.18422         1.15002         1.19856 
       0.779291         1.16509          1.1292         1.17705 
       0.785407          1.1435         1.10887         1.15533 
       0.791564         1.12532         1.08892         1.13526 
       0.797719         1.10685         1.06947         1.11375 
       0.803834         1.08898         1.05062          1.0953 
       0.809972         1.06851         1.03215          1.0786 
       0.816124         1.04758          1.0141         1.05807 
       0.822261          1.0275        0.996523         1.03938 
       0.828378         1.01291         0.97942         1.02267 
       0.834502        0.998998        0.962705         1.00454 
       0.840667        0.976943        0.946274        0.988745 
       0.846816        0.961145        0.930275        0.974663 
       0.852925        0.949727        0.914748        0.957029 
       0.859047        0.933215        0.899544        0.943571 
       0.865192        0.915909        0.884637        0.926854 
       0.871341         0.90207         0.87006         0.91162 
       0.877463        0.889722        0.855879         0.89622 
       0.883569          0.8728        0.842051        0.883547 
       0.889708        0.859609        0.828459        0.869607 
       0.895864        0.844854        0.815134        0.855115 
       0.902008          0.8313        0.802131        0.842122 
       0.908149        0.819007        0.789421        0.828938 
       0.914301        0.802744        0.776966        0.815917 
       0.920448        0.791533        0.764793        0.803229 
       0.926574        0.779178        0.752924        0.791954 
       0.932687        0.766777        0.741333        0.778088 
       0.938823        0.758191        0.729946        0.768939 
       0.944975        0.746699        0.718773        0.755413 
       0.951105        0.735527        0.707875        0.744447 
       0.957225        0.727143        0.697222        0.734362 
       0.963368         0.71502        0.686754        0.722933 
       0.969511        0.702867        0.676501        0.712833 
       0.975621        0.691775        0.666513        0.700966 
       0.981748        0.684698        0.656703        0.690771 
       0.987916        0.673117        0.647029        0.682883 
        0.99406        0.662384        0.637586        0.673784 
        1.00019        0.655195        0.628352        0.663887 
        1.00632        0.643269         0.61931        0.653412 
        1.01246        0.634535        0.610432        0.644217 
        1.01859        0.626788        0.601744         0.63625 
        1.02471        0.617406        0.593236        0.627159 
        1.03085        0.610445        0.584864        0.617374 
        1.03698        0.600563        0.576672        0.608793 
        1.04314         0.59293        0.568603        0.600736 
        1.04929        0.584074        0.560708        0.592907 
        1.05541        0.577392        0.552995        0.585598 
        1.06154        0.568222        0.545408         0.57765 
        1.06769        0.560586        0.537952        0.570105 
        1.07382        0.553161        0.530661         0.56221 
        1.07993        0.544684        0.523522        0.554669 
        1.08607         0.54012        0.516484        0.548247 
        1.09222        0.531401        0.509569        0.539983 
        1.09836        0.526378        0.502789         0.53348 
        1.10449        0.519612         0.49614        0.526834 
        1.11063        0.510425        0.489605        0.519135 
        1.11677        0.503541        0.483189        0.513408 
         1.1229         0.49777          0.4769        0.506786 
        1.12903        0.491138        0.470718        0.500226 
        1.13518        0.485809         0.46464        0.493781 
        1.14131        0.478669        0.458674        0.487793 
        1.14745        0.470256        0.452816        0.480729 
        1.15359        0.466228        0.447059         0.47589 
        1.15973        0.458868          0.4414        0.470152 
        1.16584        0.456057        0.435865        0.463525 
        1.17197        0.449363        0.430417        0.458626 
        1.17811        0.444835        0.425046        0.453254 
        1.18424        0.439925        0.419782         0.44702 
        1.19038        0.432889        0.414592        0.441691 
        1.19652        0.427113        0.409493        0.436966 
        1.20267        0.423711        0.404479        0.430778 
        1.20881        0.417375        0.399551        0.426131 
        1.21495        0.413659        0.394712        0.422155 
        1.22108        0.408132        0.389955        0.416142 
         1.2272        0.404168        0.385288        0.411004 
        1.23334         0.39829        0.380686        0.406584 
        1.23949        0.393966        0.376149        0.402218 
        1.24562        0.389513        0.371698        0.397535 
        1.25174        0.385399        0.367327        0.392651 
        1.25789        0.381146        0.363013        0.388278 
        1.26402        0.375331        0.358775        0.383889 
        1.27014         0.37127        0.354616        0.379226 
        1.27628        0.368411        0.350511        0.374678 
        1.28244        0.362343        0.346462        0.370704 
        1.28858        0.358987        0.342483        0.366259 
        1.29471        0.355711        0.338576        0.362403 
        1.30084        0.350793        0.334733        0.359146 
        1.30697        0.346795        0.330944        0.354886 
        1.31312        0.341859        0.327208        0.350725 
        1.31925        0.338918        0.323541         0.34731 
        1.32537        0.335661        0.319934        0.343589 
        1.33151        0.332679         0.31637        0.339837 
        1.33765         0.32861        0.312862        0.336143 
        1.34378        0.324048        0.309414        0.332456 
        1.34992        0.321198        0.306015         0.32894 
        1.35606        0.317466        0.302661        0.325054 
         1.3622        0.314291        0.299363        0.321772 
        1.36833        0.310608        0.296121        0.318741 
        1.37445        0.306412         0.29293        0.315468 
        1.38059         0.30359        0.289776        0.311975 
        1.38675        0.301997        0.286661        0.308382 
        1.39288         0.29789        0.283604        0.305214 
        1.39901        0.294721        0.280593        0.302189 
        1.40515        0.291863        0.277619        0.298948 
         1.4113        0.288108         0.27469        0.296257 
        1.41742        0.285347        0.271814        0.293761 
        1.42355        0.283476        0.268973        0.289553 
         1.4297          0.2794        0.266165        0.287665 
        1.43585        0.276716        0.263398         0.28428 
        1.44198        0.275049        0.260681         0.28074 
        1.44809         0.27129        0.258008        0.278977 
        1.45423         0.26872        0.255362        0.275324 
        1.46036        0.265917        0.252758        0.272877 
        1.46649        0.263566        0.250189        0.270681 
        1.47263        0.260526        0.247654        0.267744 
        1.47877        0.257645        0.245156        0.265204 
        1.48491        0.255364        0.242688        0.262908 
        1.49104        0.252244        0.240259        0.259532 
        1.49718        0.250065        0.237862        0.257878 
        1.50333        0.247753        0.235494        0.254711 
        1.50947        0.245304        0.233162        0.252077 
         1.5156        0.242688        0.230866        0.250202 
        1.52172        0.240423        0.228601        0.247506 
        1.52787        0.237974        0.226362        0.245064 
          1.534        0.235695        0.224155        0.243095 
        1.54013        0.233102         0.22198        0.240717 
        1.54627        0.231262         0.21983        0.238245 
        1.55241        0.228715        0.217708        0.236017 
        1.55855        0.226503        0.215617         0.23377 
        1.56467        0.225266         0.21356        0.231765 
         1.5708        0.222397        0.211523        0.229383 
        1.57695        0.220638         0.20951        0.227062 
        1.58308        0.218238        0.207527        0.225308 
        1.58922        0.216375        0.205569        0.223384 
        1.59535         0.21418        0.203637         0.22118 
         1.6015        0.212174        0.201727        0.218907 
        1.60764        0.210404        0.199842        0.217173 
        1.61376        0.207906        0.197987        0.215694 
        1.61989        0.206429        0.196153        0.213577 
        1.62604        0.204502        0.194339        0.211517 
        1.63218        0.202805        0.192549        0.209714 
        1.63831        0.201126        0.190785        0.207832 
        1.64444        0.198967        0.189043        0.205726 
        1.65059        0.197144        0.187319        0.203974 
        1.65673        0.195452        0.185618        0.202329 
        1.66285         0.19389        0.183943        0.200545 
        1.66898        0.192372        0.182288        0.198635 
        1.67512        0.189958         0.18065        0.196902 
        1.68127        0.188266        0.179031        0.195241 
         1.6874        0.187238        0.177435        0.193714 
        1.69353        0.185102         0.17586        0.192245 
        1.69967        0.183654          0.1743         0.19021 
        1.70581        0.181775        0.172759        0.188437 
        1.71193        0.180395        0.171244        0.187013 
        1.71806        0.178646        0.169743        0.185301 
        1.72421        0.177314        0.168257        0.183933 
        1.73035        0.175466         0.16679        0.182365 
        1.73649        0.174383        0.165341        0.180467 
        1.74262        0.172692        0.163911        0.179052 
        1.74876        0.171029        0.162497        0.177858 
        1.75489        0.169755        0.161102        0.176398 
        1.76101        0.168081        0.159724        0.174719 
        1.76715        0.166706         0.15836        0.173452 
        1.77329         0.16528        0.157011        0.172129 
        1.77943        0.163622        0.155676        0.170572 
        1.78557        0.162641        0.154359           0.169 
        1.79171        0.161315        0.153057        0.167483 
        1.79785        0.159824         0.15177        0.166184 
        1.80399        0.158529        0.150498        0.165046 
        1.81012        0.157216        0.149243        0.163402 
        1.81625        0.155913        0.148002        0.161985 
        1.82239        0.154787        0.146773        0.161078 
        1.82853         0.15307        0.145559        0.159915 
        1.83466        0.151942         0.14436        0.158465 
        1.84078        0.150633        0.143176        0.157057 
        1.84692        0.149393        0.142003        0.155974 
        1.85306        0.148634        0.140841        0.154562 
         1.8592         0.14705        0.139695        0.153083 
        1.86533        0.146113        0.138562        0.152093 
        1.87147        0.144745         0.13744        0.150982 
