# k  (h/Mpc)    Pcb(k)  (Mpc/h)^3    Pcb_linear(k) (Mpc/h)^3    Pcb_NL(k) (Mpc/h)^3   ShotnoiseSubtracted = false
     0.00783031         793.369         801.933         794.504 
       0.013688         892.147         894.052         888.527 
       0.019231         826.051         825.709         821.401 
      0.0249154         693.099         695.283         693.256 
      0.0312784         546.667         545.562          546.11 
      0.0375637         431.599         429.564         430.384 
      0.0433917         358.167         357.508         358.313 
      0.0492413           314.2         313.411         314.117 
      0.0555754         284.906         285.477         285.646 
      0.0619321         266.189           265.3         265.184 
       0.067871         244.435          245.01         244.723 
      0.0738098         219.417         219.999         219.692 
      0.0800417         189.463         190.107         190.053 
      0.0862327         160.995         160.979         161.227 
      0.0921407         137.959         137.538         137.918 
      0.0982031         119.986          119.89         120.393 
       0.104506         109.019         108.289          108.79 
       0.110769         102.232         101.798         102.122 
       0.116806          97.861         97.9075         98.0656 
       0.122832         94.2724         94.1064         94.1975 
       0.129052         88.5028         88.7185         88.7623 
       0.135211          81.362         81.5503         81.6451 
       0.141259         73.6098         73.4365         73.6371 
       0.147318          65.838         65.4186         65.7664 
       0.153489         58.7635         58.4409          58.771 
       0.159709         53.5561         53.1968         53.5683 
       0.165845         50.3458         49.7626         50.1779 
       0.171974         47.8099         47.6067         47.9378 
       0.178125         46.3013         46.0624         46.3891 
       0.184229         44.7799          44.511         44.7905 
        0.19034         42.4724         42.5231         42.7697 
       0.196428         40.1718         40.0102         40.2246 
       0.202534         37.5801         37.1403          37.396 
       0.208729         34.5132         34.2109         34.5022 
       0.214876         31.8219          31.611         31.9806 
       0.220989         29.9241         29.5199         29.9074 
       0.227147         28.1685         27.9406         28.3075 
        0.23329         26.9969         26.7853         27.1598 
       0.239377         26.1006         25.8747         26.2282 
       0.245482         25.1003         25.0083         25.3033 
       0.251667         24.2698         24.0419         24.3554 
       0.257832         23.1324         22.9396         23.2381 
       0.263955         21.9545         21.7398         22.0324 
       0.270079         20.7668         20.5214         20.8225 
        0.27624         19.7231         19.3721           19.67 
       0.282372         18.7342          18.371         18.6987 
        0.28843         17.8302         17.5462         17.8766 
       0.294538         17.1154         16.8592         17.1782 
       0.300721          16.596         16.2665          16.587 
        0.30691         15.9571         15.7177         16.0346 
       0.313033         15.3981         15.1748         15.4705 
       0.319153         14.7028         14.6069         14.9026 
       0.325316         14.2959         14.0121         14.3159 
        0.33145         13.6582         13.4146         13.7071 
       0.337538         13.1008         12.8431         13.1305 
       0.343633         12.5269         12.3131         12.5986 
       0.349808         12.0823          11.832         12.1316 
       0.355968         11.6718         11.4064           11.73 
       0.362074         11.2627         11.0277         11.3284 
       0.368217         10.8969         10.6748         10.9482 
       0.374374         10.5183         10.3336         10.6167 
       0.380519         10.2157         9.99676          10.265 
       0.386598         9.89322         9.66309         9.93517 
       0.392688          9.5975         9.33129         9.60271 
        0.39888         9.24064         9.00326         9.27734 
       0.405048         8.94274         8.69179         8.94676 
       0.411186         8.65413         8.40168         8.67695 
       0.417313          8.3586         8.13369         8.40132 
       0.423458         8.11896         7.88376         8.15195 
       0.429607         7.85797         7.64883         7.90532 
       0.435692         7.63155         7.42732         7.68684 
       0.441815         7.41651         7.21113         7.47835 
       0.447964         7.23672         6.99863         7.25197 
       0.454126         6.97871         6.79061         7.04055 
       0.460267         6.79148         6.58906         6.84785 
       0.466387         6.56732         6.39511         6.63896 
        0.47254         6.40109         6.20866         6.45467 
       0.478662         6.24306         6.03269         6.27217 
       0.484765         6.04434         5.86629         6.10177 
       0.490885         5.89395         5.70725         5.95853 
       0.497035         5.77568         5.55422         5.80879 
       0.503198         5.60601         5.40669         5.64011 
       0.509342         5.46755         5.26435             5.5 
       0.515458         5.30969         5.12657         5.37086 
       0.521598         5.18044         4.99216         5.21686 
       0.527764         5.03309         4.86157         5.08348 
       0.533884         4.93647         4.73665         4.95538 
           0.54         4.80471         4.61665         4.83239 
       0.546137         4.69277         4.50083         4.72293 
       0.552299         4.58127         4.38897          4.5928 
       0.558452         4.44767         4.28149         4.48881 
       0.564573          4.3625          4.1784         4.39869 
       0.570708         4.25818         4.07852         4.29219 
       0.576825         4.14716         3.98203         4.18957 
       0.582926         4.06439         3.88861         4.09828 
       0.589034         3.94085         3.79782         4.01484 
       0.595184         3.86366         3.70922         3.90194 
       0.601379         3.77101         3.62289         3.83426 
       0.607522         3.70299         3.54017         3.74394 
       0.613639          3.6334         3.46056         3.65955 
       0.619772         3.53124         3.38334         3.58878 
       0.625918         3.47331         3.30839         3.50425 
       0.632068         3.40933         3.23568         3.42607 
       0.638161         3.31859         3.16576         3.35702 
         0.6443         3.24822         3.09737         3.28261 
       0.650464         3.16834         3.03072          3.2247 
       0.656582         3.12318          2.9665         3.15569 
       0.662703         3.05558         2.90414         3.08815 
       0.668861         3.00127         2.84325         3.03249 
       0.675024         2.93118         2.78409         2.96795 
       0.681124         2.86953         2.72723         2.90637 
       0.687237         2.81916         2.67187         2.84339 
       0.693381         2.76388          2.6178         2.78541 
       0.699536         2.69063         2.56514         2.73452 
       0.705665         2.64465         2.51415         2.69398 
       0.711789         2.59904          2.4646         2.63774 
       0.717957         2.54169         2.41605         2.58273 
        0.72409         2.49305         2.36909         2.53837 
       0.730186         2.45004         2.32366         2.48752 
       0.736317         2.41821         2.27918         2.43871 
       0.742472         2.37172         2.23572         2.40208 
       0.748622         2.32176         2.19344         2.36046 
        0.75476         2.27007         2.15235         2.31208 
       0.760888         2.23102         2.11239         2.27184 
       0.767043         2.20257          2.0733         2.23398 
       0.773185         2.15189         2.03528         2.19658 
       0.779291         2.12095         1.99844         2.15799 
       0.785407         2.08102         1.96246          2.1177 
       0.791564         2.04859         1.92715         2.08194 
       0.797719         2.01357         1.89272         2.04221 
       0.803834         1.98487         1.85936         2.00929 
       0.809972         1.94931         1.82669         1.98144 
       0.816124          1.9082         1.79473          1.9427 
       0.822261         1.87088         1.76363         1.90878 
       0.828378         1.84586         1.73336         1.87917 
       0.834502         1.82288         1.70377         1.84607 
       0.840667         1.78095          1.6747         1.81761 
       0.846816         1.75103         1.64638         1.79294 
       0.852925         1.73239          1.6189         1.76121 
       0.859047         1.70176         1.59199          1.7379 
       0.865192         1.67335         1.56561          1.7072 
       0.871341         1.64915         1.53981         1.68036 
       0.877463         1.62468         1.51472         1.65158 
       0.883569         1.59295         1.49024         1.62895 
       0.889708         1.56839         1.46619         1.60404 
       0.895864         1.54224         1.44261         1.57746 
       0.902008         1.51847         1.41959         1.55448 
       0.908149         1.49795          1.3971         1.52974 
       0.914301         1.46762         1.37506         1.50747 
       0.920448         1.44658         1.35351         1.48319 
       0.926574         1.42373         1.33251         1.46446 
       0.932687         1.40275           1.312         1.43661 
       0.938823         1.38594         1.29184         1.42204 
       0.944975         1.36586         1.27207         1.39704 
       0.951105         1.34571         1.25278         1.37714 
       0.957225          1.3327         1.23393         1.35937 
       0.963368         1.31017          1.2154         1.33818 
       0.969511         1.28773         1.19726         1.32034 
       0.975621         1.26731         1.17958         1.29795 
       0.981748         1.25424         1.16222         1.27943 
       0.987916         1.23342          1.1451         1.26594 
        0.99406         1.21231         1.12839         1.24956 
        1.00019         1.19951         1.11204         1.23235 
        1.00632         1.17935         1.09604         1.21272 
        1.01246         1.16389         1.08033         1.19644 
        1.01859         1.14946         1.06495         1.18115 
        1.02471         1.13258          1.0499         1.16358 
        1.03085         1.11801         1.03508         1.14641 
        1.03698         1.10089         1.02058          1.1316 
        1.04314         1.08766          1.0063         1.11664 
        1.04929         1.07221        0.992329          1.1025 
        1.05541           1.059        0.978678         1.08953 
        1.06154         1.04319        0.965251         1.07522 
        1.06769         1.03097        0.952056         1.06208 
        1.07382         1.01605        0.939153         1.04697 
        1.07993        0.999925        0.926517         1.03279 
        1.08607        0.992546        0.914063         1.02208 
        1.09222        0.976572        0.901825         1.00651 
        1.09836        0.967177        0.889825        0.994154 
        1.10449        0.955239        0.878058        0.983059 
        1.11063        0.938339        0.866492        0.968158 
        1.11677        0.926437        0.855138        0.957842 
         1.1229        0.915142        0.844008        0.946627 
        1.12903        0.903145        0.833066        0.934516 
        1.13518        0.893846         0.82231         0.92264 
        1.14131        0.879873        0.811751        0.911034 
        1.14745         0.86428        0.801383        0.898292 
        1.15359        0.857998        0.791195        0.890395 
        1.15973        0.843724         0.78118        0.879348 
        1.16584        0.839333        0.771384        0.867442 
        1.17197        0.826977        0.761743        0.858519 
        1.17811        0.818869        0.752237        0.848691 
        1.18424        0.809628        0.742921        0.836995 
        1.19038        0.797136        0.733737        0.827297 
        1.19652        0.787647        0.724712        0.819206 
        1.20267        0.780664        0.715838        0.807404 
        1.20881         0.76873        0.707116        0.798564 
        1.21495        0.761966        0.698553        0.792088 
        1.22108        0.752452        0.690134        0.781129 
         1.2272        0.745211        0.681874        0.771196 
        1.23334        0.734105         0.67373        0.763834 
        1.23949        0.725789          0.6657        0.756242 
        1.24562        0.718639        0.657824         0.74739 
        1.25174        0.710377        0.650087         0.73775 
        1.25789        0.702487        0.642452        0.729576 
        1.26402        0.692015        0.634953        0.721401 
        1.27014        0.684566        0.627592        0.713753 
        1.27628        0.680081        0.620326        0.705257 
        1.28244        0.668841        0.613162        0.697429 
        1.28858        0.662643         0.60612        0.689437 
        1.29471        0.655469        0.599204        0.682103 
        1.30084        0.646832        0.592403        0.676812 
        1.30697        0.640432        0.585697         0.66876 
        1.31312        0.630732        0.579085        0.661122 
        1.31925        0.626045        0.572596        0.655599 
        1.32537        0.619451        0.566213        0.648318 
        1.33151        0.614311        0.559904        0.641333 
        1.33765        0.606267        0.553696        0.634807 
        1.34378        0.598644        0.547594        0.628195 
        1.34992        0.593877        0.541579        0.621509 
        1.35606        0.585678        0.535643         0.61387 
         1.3622         0.58082        0.529805        0.607972 
        1.36833        0.574004        0.524069        0.603165 
        1.37445        0.566367        0.518421        0.596836 
        1.38059        0.561598        0.512839        0.590549 
        1.38675        0.558684        0.507326        0.583409 
        1.39288        0.550658        0.501916        0.578324 
        1.39901        0.544427        0.496588        0.572528 
        1.40515        0.539081        0.491324        0.566187 
         1.4113        0.533045         0.48614        0.561417 
        1.41742        0.527887         0.48105         0.55702 
        1.42355         0.52472        0.476023        0.548694 
         1.4297        0.516904        0.471053        0.546258 
        1.43585        0.512113        0.466156         0.53998 
        1.44198        0.509108        0.461348          0.5331 
        1.44809        0.501914        0.456616        0.529763 
        1.45423        0.497248        0.451934        0.522959 
        1.46036        0.492127        0.447325        0.518405 
        1.46649        0.487427        0.442779        0.514554 
        1.47263        0.481817        0.438293        0.509223 
        1.47877        0.476807        0.433871        0.503954 
        1.48491        0.472483        0.429504        0.500125 
        1.49104        0.467387        0.425205        0.493944 
        1.49718        0.463687        0.420963        0.490807 
        1.50333        0.458093        0.416771        0.485184 
        1.50947        0.454604        0.412646        0.480074 
         1.5156        0.449663        0.408582        0.476511 
        1.52172        0.445139        0.404573        0.471999 
        1.52787        0.440614         0.40061        0.467059 
          1.534        0.436992        0.396705         0.46346 
        1.54013        0.431818        0.392856        0.459172 
        1.54627        0.427703        0.389051         0.45443 
        1.55241        0.423704        0.385295        0.450385 
        1.55855        0.420003        0.381595        0.446378 
        1.56467        0.416918        0.377953        0.442615 
         1.5708        0.411526        0.374348        0.438071 
        1.57695        0.409105        0.370785        0.434093 
        1.58308        0.404693        0.367277        0.430954 
        1.58922        0.400881        0.363811        0.426978 
        1.59535        0.397082        0.360392        0.423078 
         1.6015        0.393346        0.357011        0.419049 
        1.60764         0.39025        0.353676        0.415589 
        1.61376        0.385854        0.350392        0.412734 
        1.61989        0.382828        0.347148        0.409065 
        1.62604        0.378919        0.343937        0.405394 
        1.63218        0.376304        0.340769         0.40205 
        1.63831        0.372871        0.337648         0.39853 
        1.64444        0.368937        0.334565        0.394566 
        1.65059        0.365699        0.331513        0.391232 
        1.65673        0.362086        0.328503        0.388132 
        1.66285        0.359083        0.325538        0.384748 
        1.66898        0.357038        0.322609        0.381137 
        1.67512        0.352141        0.319711        0.378109 
        1.68127        0.349337        0.316845        0.375223 
         1.6874        0.347465        0.314021        0.372306 
        1.69353          0.3435        0.311233         0.36928 
        1.69967        0.340186        0.308472        0.365705 
        1.70581        0.337742        0.305746        0.362809 
        1.71193        0.334708        0.303063        0.360254 
        1.71806        0.331907        0.300407        0.356673 
        1.72421         0.32895        0.297777        0.353892 
        1.73035        0.325437        0.295181         0.35106 
        1.73649        0.323773        0.292617        0.347715 
        1.74262        0.320688        0.290086        0.345068 
        1.74876        0.317317        0.287583        0.342904 
        1.75489        0.314511        0.285114        0.340274 
        1.76101        0.312025        0.282676        0.337092 
        1.76715        0.309444        0.280262        0.334551 
        1.77329          0.3071        0.277874         0.33209 
        1.77943        0.303693        0.275512        0.329217 
        1.78557        0.301531        0.273182        0.326142 
        1.79171        0.299432        0.270878        0.323383 
        1.79785         0.29656          0.2686         0.32107 
        1.80399        0.294255        0.266349        0.318817 
        1.81012        0.291826        0.264126        0.315777 
        1.81625         0.28923         0.26193        0.313184 
        1.82239        0.287412        0.259756        0.311513 
        1.82853         0.28391        0.257607         0.30956 
        1.83466         0.28198        0.255485        0.306953 
        1.84078        0.279354        0.253389        0.304165 
        1.84692        0.277794        0.251313        0.301907 
        1.85306        0.275822        0.249258        0.299326 
         1.8592        0.273243        0.247229        0.296832 
        1.86533        0.271148        0.245223        0.295004 
        1.87147        0.268758        0.243238        0.292607 
