# k  (h/Mpc)    P(k)  (Mpc/h)^3    P_linear(k)  (Mpc/h)^3     P_NL(k)  ShotnoiseSubtracted = false
     0.00783031         11529.1         11689.3         11580.5 
       0.013688         13121.1         13019.9         12927.8 
       0.019231         12071.5         12020.3         11941.7 
      0.0249154         9986.23         10119.6         10070.2 
      0.0312784         7923.11         7939.52         7923.95 
      0.0375637         6305.63         6250.96         6248.75 
      0.0433917         5186.29         5202.17          5198.8 
      0.0492413         4578.17         4560.35         4558.97 
      0.0555754         4099.41          4153.8         4150.36 
      0.0619321         3905.89         3860.15         3854.87 
       0.067871         3530.33         3564.87         3562.15 
      0.0738098         3174.95         3200.94         3186.29 
      0.0800417         2735.38         2765.99         2766.71 
      0.0862327            2350         2342.17         2369.79 
      0.0921407         2048.42         2001.09         2036.49 
      0.0982031         1777.29         1744.32         1798.55 
       0.104506         1647.29         1575.53         1639.69 
       0.110769         1537.82         1481.08         1526.59 
       0.116806         1466.15         1424.48         1459.83 
       0.122832         1410.98         1369.17         1401.93 
       0.129052         1307.63         1290.78          1319.5 
       0.135211         1210.78         1186.48            1220 
       0.141259         1117.86         1068.43          1114.2 
       0.147318         1015.29         951.778         1014.48 
       0.153489         908.875         850.259         906.521 
       0.159709         843.058         773.963         837.278 
       0.165845         800.906         723.996         796.832 
       0.171974         759.711          692.63         756.429 
       0.178125         731.374         670.162         736.447 
       0.184229         704.128          647.59         707.072 
        0.19034         657.669         618.667         673.763 
       0.196428         635.629         582.109         633.657 
       0.202534         604.715         540.352         597.273 
       0.208729         562.015         497.732         555.242 
       0.214876         525.509         459.907         529.038 
       0.220989         500.567         429.484         501.876 
       0.227147         475.515         406.506         478.387 
        0.23329          455.95         389.696         463.258 
       0.239377         444.791         376.449          446.01 
       0.245482         415.643         363.843         426.681 
       0.251667         409.966         349.782         414.968 
       0.257832         393.398         333.746         396.157 
       0.263955         376.513          316.29         378.323 
       0.270079         358.625         298.563         362.191 
        0.27624           350.2         281.841         344.961 
       0.282372         335.828         267.275         332.619 
        0.28843         323.799         255.277         321.024 
       0.294538         307.734         245.282         310.694 
       0.300721         304.024         236.658         301.994 
        0.30691         289.802         228.675          294.34 
       0.313033         282.604         220.778         283.487 
       0.319153         271.443         212.513         274.429 
       0.325316         264.106         203.861         266.274 
        0.33145         253.957         195.167         255.344 
       0.337538         248.856         186.853         246.794 
       0.343633         239.759         179.141         241.664 
       0.349808         231.007         172.143         235.397 
       0.355968         227.267          165.95         229.745 
       0.362074         221.809          160.44         223.101 
       0.368217           215.1         155.307         215.633 
       0.374374         206.368         150.342         210.011 
       0.380519         203.465         145.441         203.993 
       0.386598         197.712         140.587         200.275 
       0.392688         194.384         135.759          193.92 
        0.39888          189.17         130.987         188.921 
       0.405048           183.7         126.455         185.126 
       0.411186         179.598         122.234         179.776 
       0.417313         175.626         118.336         174.915 
       0.423458         171.355         114.699          171.37 
       0.429607         167.579         111.282         167.758 
       0.435692         162.356         108.059         163.399 
       0.441815         160.569         104.914         161.061 
       0.447964         156.843         101.822         157.388 
       0.454126         150.592         98.7956         152.543 
       0.460267         148.404         95.8629         150.883 
       0.466387         146.397         93.0414         147.353 
        0.47254         142.525         90.3283         144.278 
       0.478662         141.774         87.7686         141.337 
       0.484765         136.745         85.3475         137.599 
       0.490885         134.525         83.0337         135.508 
       0.497035         132.301         80.8073         133.334 
       0.503198          128.79         78.6609         130.805 
       0.509342         126.903           76.59         128.641 
       0.515458         124.794         74.5854         126.792 
       0.521598         122.175           72.63          123.63 
       0.527764         120.556         70.7299         121.551 
       0.533884         118.654         68.9127         119.668 
           0.54         116.277         67.1668         117.281 
       0.546137         114.976         65.4818         115.755 
       0.552299         112.712         63.8542         113.116 
       0.558452         110.977         62.2906         111.107 
       0.564573         109.073         60.7907         109.929 
       0.570708         106.755         59.3375         108.304 
       0.576825         105.325         57.9338          105.99 
       0.582926         103.175         56.5746         104.408 
       0.589034         101.739         55.2537         103.309 
       0.595184         100.222         53.9648         101.113 
       0.601379         98.6736         52.7088         99.9834 
       0.607522         96.7169         51.5052         97.9705 
       0.613639         95.8457          50.347         97.0508 
       0.619772          93.902         49.2235         95.6017 
       0.625918         92.5929         48.1332          94.088 
       0.632068         91.4113         47.0753         92.5787 
       0.638161         90.4165         46.0581         91.7271 
         0.6443         89.1911          45.063         90.2917 
       0.650464         88.1176         44.0933         88.3439 
       0.656582         86.4462          43.159         87.6558 
       0.662703         85.3667         42.2517         86.2382 
       0.668861         83.9639         41.3658         85.2984 
       0.675024         82.7779         40.5051         84.0222 
       0.681124         82.0525         39.6779         82.8614 
       0.687237         80.4594         38.8725          81.795 
       0.693381         79.2826         38.0858         80.5613 
       0.699536         78.6321         37.3197         79.7663 
       0.705665         78.2773         36.5779         79.0888 
       0.711789         76.4782          35.857         77.7669 
       0.717957         76.0756         35.1507         76.8526 
        0.72409         74.7079         34.4674         76.2315 
       0.730186         73.4976         33.8064         75.3611 
       0.736317         73.1244         33.1594         74.1667 
       0.742472         72.3432          32.527         73.3806 
       0.748622         71.4217         31.9119         72.4255 
        0.75476         70.6184         31.3141         71.5347 
       0.760888          69.623         30.7328         70.5188 
       0.767043          69.119          30.164         70.0986 
       0.773185         68.2296         29.6109         69.4869 
       0.779291         67.2204         29.0749         68.5712 
       0.785407         66.7822         28.5514          67.634 
       0.791564         66.1805         28.0376         67.0375 
       0.797719         64.7859         27.5368         66.5707 
       0.803834         64.4603         27.0514         65.5835 
       0.809972         63.4563         26.5761         64.9013 
       0.816124         63.0668         26.1111         64.3561 
       0.822261         62.4863         25.6586         63.5896 
       0.828378         62.0067         25.2182          62.752 
       0.834502         61.3954         24.7879         62.1956 
       0.840667         60.5135         24.3648         61.8305 
       0.846816         59.7237         23.9528         61.1882 
       0.852925         59.2615          23.553         60.5574 
       0.859047         58.4385         23.1616         59.8977 
       0.865192         58.0257         22.7778         59.3461 
       0.871341         57.5194         22.4024         58.6997 
       0.877463         56.6369         22.0373         58.1759 
       0.883569         56.3977         21.6812         57.8654 
       0.889708         55.8419         21.3313         57.2015 
       0.895864         55.3341         20.9882         56.7744 
       0.902008         54.8069         20.6534         56.0836 
       0.908149         54.3525         20.3261         55.6539 
       0.914301          53.763         20.0054         55.1994 
       0.920448         53.3704          19.692          54.725 
       0.926574         52.7265         19.3864         54.1674 
       0.932687         52.6223         19.0879         53.7417 
       0.938823         51.7563         18.7947         53.1527 
       0.944975         51.2239         18.5071          52.703 
       0.951105         50.8071         18.2264         52.2936 
       0.957225         50.2893         17.9522         51.8645 
       0.963368          49.969         17.6826         51.3603 
       0.969511         49.6743         17.4186         50.9363 
       0.975621         49.3588         17.1615         50.7794 
       0.981748         48.7686         16.9089         50.3406 
       0.987916         48.2387         16.6598         49.9433 
        0.99406         47.9567         16.4166         49.3863 
        1.00019         47.5352         16.1789         48.9131 
        1.00632         47.1273         15.9461         48.5492 
        1.01246         46.8439         15.7175         48.1176 
        1.01859         46.1852         15.4938         47.9522 
        1.02471         45.9464         15.2747         47.6608 
        1.03085         45.5639         15.0592         47.1489 
        1.03698         45.2273         14.8482         46.7626 
        1.04314         44.8458         14.6405         46.3561 
        1.04929         44.4672         14.4372         46.1084 
        1.05541         43.9785         14.2386         45.8919 
        1.06154         43.9358         14.0432         45.4827 
        1.06769         43.4725         13.8513         45.1378 
        1.07382         43.2472         13.6635         44.8315 
        1.07993         42.9244         13.4797         44.5108 
        1.08607          42.572         13.2985         44.1969 
        1.09222         42.3149         13.1204         43.8204 
        1.09836          41.878         12.9459         43.4824 
        1.10449          41.682         12.7747         43.2257 
        1.11063         41.2244         12.6064         42.7771 
        1.11677         40.9676         12.4412         42.4762 
         1.1229         40.5894         12.2793         42.3542 
        1.12903         40.1036         12.1201         42.0081 
        1.13518         40.2145         11.9636         41.6884 
        1.14131         39.9132           11.81         41.4031 
        1.14745         39.4318         11.6591         41.1979 
        1.15359         39.2583         11.5109         40.8586 
        1.15973         38.8121         11.3652         40.6793 
        1.16584         38.6125         11.2227         40.2279 
        1.17197         38.3513         11.0824           40.13 
        1.17811         38.1785         10.9441         39.8122 
        1.18424         37.8172         10.8086         39.5899 
        1.19038         37.5362          10.675         39.2831 
        1.19652         37.4066         10.5437         39.0045 
        1.20267         36.9815         10.4146         38.8316 
        1.20881         36.8337         10.2877         38.5667 
        1.21495         36.4806         10.1631         38.2941 
        1.22108         36.3977         10.0406         38.1102 
         1.2272         35.8972         9.92042         37.8702 
        1.23334         35.7515         9.80194         37.6598 
        1.23949         35.7023         9.68512         37.3332 
        1.24562         35.2461         9.57053         37.0828 
        1.25174         35.1293         9.45797         36.9521 
        1.25789         34.9712         9.34688         36.6853 
        1.26402         34.6616         9.23778         36.4799 
        1.27014         34.3505         9.13069         36.3437 
        1.27628         34.1286         9.02498         36.0621 
        1.28244         33.9559         8.92075         35.8071 
        1.28858         33.7966          8.8183         35.5993 
        1.29471         33.6524         8.71768         35.4667 
        1.30084          33.434         8.61873         35.1796 
        1.30697         33.1472         8.52117         34.9949 
        1.31312         32.9228         8.42497         34.8366 
        1.31925         32.7413         8.33057         34.5891 
        1.32537         32.5628          8.2377          34.454 
        1.33151          32.284         8.14592          34.213 
        1.33765         32.1418         8.05559         34.0156 
        1.34378         31.9423         7.96681         33.8554 
        1.34992         31.7421         7.87931         33.6495 
        1.35606         31.5586         7.79294          33.473 
         1.3622         31.3355         7.70801         33.3031 
        1.36833         31.1267         7.62456         33.1573 
        1.37445         30.9793         7.54239         32.9678 
        1.38059         30.7683         7.46117         32.8109 
        1.38675         30.5458         7.38097         32.6041 
        1.39288         30.4503         7.30226         32.4324 
        1.39901         30.2618         7.22473         32.2625 
        1.40515         30.0361         7.14816         32.1439 
         1.4113         29.8858         7.07273         31.9669 
        1.41742          29.781         6.99868         31.7069 
        1.42355         29.5168         6.92555         31.6109 
         1.4297         29.4061         6.85324         31.4152 
        1.43585          29.288           6.782         31.2666 
        1.44198          28.973         6.71204         31.1196 
        1.44809         28.9118          6.6432         30.9224 
        1.45423         28.7335         6.57507         30.7618 
        1.46036         28.6046         6.50802         30.6225 
        1.46649         28.4368         6.44189         30.5016 
        1.47263         28.2262         6.37662          30.369 
        1.47877         28.0795         6.31229         30.1744 
        1.48491         28.0891         6.24874         30.0212 
        1.49104          27.774         6.18621         29.9072 
        1.49718         27.5108         6.12448         29.7676 
        1.50333         27.5439          6.0635         29.5883 
        1.50947          27.374         6.00348         29.4363 
         1.5156         27.1753         5.94436         29.3107 
        1.52172          27.074         5.88603         29.1798 
        1.52787         26.9654         5.82838         29.0456 
          1.534         26.7881         5.77156         28.8931 
        1.54013         26.5938         5.71556         28.7342 
        1.54627         26.5301          5.6602         28.5952 
        1.55241         26.2504         5.60556         28.4681 
        1.55855          26.202         5.55173         28.3394 
        1.56467         25.9285         5.49874          28.237 
         1.5708         25.9937          5.4463         28.1087 
        1.57695         25.7759         5.39446          27.974 
        1.58308         25.6134         5.34342         27.8446 
        1.58922         25.5332           5.293         27.6919 
        1.59535          25.428         5.24325         27.5774 
         1.6015         25.2186         5.19407         27.4301 
        1.60764         25.0358         5.14554         27.2966 
        1.61376         24.9544         5.09777         27.2204 
        1.61989         24.8011         5.05057         27.0899 
        1.62604         24.6917         5.00385         26.9566 
        1.63218         24.6744         4.95776         26.8396 
        1.63831         24.4364         4.91235         26.7312 
        1.64444         24.3334          4.8675          26.612 
        1.65059         24.2397          4.8231         26.4786 
        1.65673         24.0577          4.7793         26.3642 
        1.66285         23.9572         4.73617         26.2776 
        1.66898         23.8383         4.69356          26.183 
        1.67512         23.7155         4.65139         26.0299 
        1.68127         23.5675          4.6097         25.9001 
         1.6874         23.4195         4.56861         25.7983 
        1.69353         23.3598         4.52805         25.6788 
        1.69967         23.2294         4.48788         25.5721 
        1.70581         23.1692         4.44822         25.4893 
        1.71193         23.0451         4.40919         25.3927 
        1.71806          22.839         4.37054          25.244 
        1.72421         22.7413         4.33228         25.1423 
        1.73035         22.6344         4.29452         25.0715 
        1.73649         22.4926         4.25722         24.9738 
        1.74262         22.4091         4.22039         24.8218 
        1.74876         22.3364         4.18397         24.6953 
        1.75489         22.2271         4.14806         24.6146 
        1.76101         22.0968         4.11257         24.5432 
        1.76715         22.0154         4.07746         24.4326 
        1.77329         21.9287         4.04271         24.3245 
        1.77943         21.8219         4.00836         24.2311 
        1.78557          21.649         3.97445         24.1335 
        1.79171         21.5527         3.94093         24.0321 
        1.79785         21.4543         3.90779         23.9414 
        1.80399         21.4254         3.87503         23.8628 
        1.81012         21.2487          3.8427         23.7522 
        1.81625         21.2034         3.81075         23.6352 
        1.82239         21.0654         3.77912          23.548 
        1.82853         20.9817         3.74786         23.4783 
        1.83466         20.8642         3.71698         23.3791 
        1.84078          20.687         3.68649         23.2603 
        1.84692         20.6537         3.65628         23.1742 
        1.85306         20.5386         3.62638         23.0999 
         1.8592         20.4386         3.59686          23.013 
        1.86533         20.3436         3.56769         22.9162 
        1.87147          20.309          3.5388         22.8205 
        1.87761         20.1812         3.51022         22.7278 
