# k  (h/Mpc)    Pcb(k)  (Mpc/h)^3    Pcb_linear(k) (Mpc/h)^3    Pcb_NL(k) (Mpc/h)^3   ShotnoiseSubtracted = false
     0.00783031         23784.1         24163.7         23927.4 
       0.013688         27252.8         26905.3         26684.8 
       0.019231         24970.8           24836         24635.3 
      0.0249154         20479.8         20907.3         20755.8 
      0.0312784         16295.1         16402.3         16311.7 
      0.0375637         13043.9         12913.4         12874.7 
      0.0433917         10670.9         10746.6         10702.6 
      0.0492413         9458.81         9420.57         9386.15 
      0.0555754         8394.97         8580.63         8554.28 
      0.0619321         8079.72         7973.94         7947.59 
       0.067871         7235.55         7363.94         7352.52 
      0.0738098         6522.58         6612.12         6549.64 
      0.0800417         5620.04         5713.63         5709.98 
      0.0862327         4867.84         4838.13         4937.88 
      0.0921407         4302.63         4133.58         4262.65 
      0.0982031         3745.59         3603.17         3804.98 
       0.104506         3503.87         3254.49         3495.93 
       0.110769         3263.43         3059.39         3236.24 
       0.116806         3120.42         2942.46         3082.09 
       0.122832         2983.27         2828.21         2955.23 
       0.129052         2748.16         2666.28         2780.36 
       0.135211         2555.19         2450.84         2578.62 
       0.141259         2393.42         2206.99         2383.46 
       0.147318         2202.25         1966.02         2198.08 
       0.153489         1983.08         1756.32         1971.91 
       0.159709         1856.28         1598.72         1841.74 
       0.165845          1777.8         1495.51         1767.78 
       0.171974         1695.82         1430.71          1678.4 
       0.178125         1619.65          1384.3         1637.52 
       0.184229         1546.28         1337.67         1563.85 
        0.19034         1459.15         1277.93         1490.33 
       0.196428         1412.95         1202.41         1411.73 
       0.202534         1347.33         1116.16         1342.34 
       0.208729         1267.69         1028.12          1251.2 
       0.214876         1208.15         949.991         1206.88 
       0.220989          1156.6         887.148         1157.57 
       0.227147         1110.35         839.686         1114.65 
        0.23329         1064.15         804.965         1083.22 
       0.239377         1042.85         777.599         1041.64 
       0.245482         975.493         751.561         998.239 
       0.251667         967.652         722.517         972.951 
       0.257832         924.362         689.389         932.019 
       0.263955         890.001         653.332         896.004 
       0.270079         853.704         616.716         863.277 
        0.27624         839.956         582.177         828.838 
       0.282372         805.715         552.093         807.265 
        0.28843         793.411         527.303          786.78 
       0.294538         751.039         506.658         761.776 
       0.300721         744.592         488.845         739.999 
        0.30691         714.692         472.355         728.621 
       0.313033          698.68         456.039         702.883 
       0.319153         681.326          438.97         682.109 
       0.325316         660.679         421.097         665.335 
        0.33145         642.082         403.139         639.386 
       0.337538         627.733         385.965         623.806 
       0.343633         612.346         370.037         614.433 
       0.349808         588.302          355.58         602.059 
       0.355968         583.219         342.788         588.415 
       0.362074         576.175         331.406         576.318 
       0.368217         557.453         320.803         560.559 
       0.374374         533.925         310.549         547.723 
       0.380519          532.89         300.425         534.487 
       0.386598         516.116         290.398         528.456 
       0.392688         512.578         280.426         513.537 
        0.39888         497.009         270.568         502.466 
       0.405048         488.777         261.208         492.201 
       0.411186         481.389         252.489         481.219 
       0.417313         471.349         244.435         472.404 
       0.423458         459.599         236.925         464.119 
       0.429607         454.971         229.864         456.238 
       0.435692         442.494         223.208         443.794 
       0.441815         437.118          216.71         440.091 
       0.447964         427.691         210.324         433.646 
       0.454126         421.967         204.073         420.988 
       0.460267         411.539         198.016         418.161 
       0.466387         405.718         192.187         410.986 
        0.47254         401.596         186.584         403.458 
       0.478662           397.2         181.295         395.365 
       0.484765         383.042         176.295         389.311 
       0.490885         379.413         171.515         382.195 
       0.497035         371.672         166.916         377.551 
       0.503198         367.886         162.483         372.495 
       0.509342         365.527         158.205         366.269 
       0.515458         360.975         154.065         361.927 
       0.521598         350.119         150.025          356.56 
       0.527764         346.421         146.101          353.17 
       0.533884         342.406         142.347         348.182 
           0.54         337.848          138.74         342.129 
       0.546137         335.404          135.26         338.062 
       0.552299         329.721         131.898          333.05 
       0.558452         327.088         128.668         329.164 
       0.564573         322.954          125.57         326.296 
       0.570708         316.891         122.568         322.141 
       0.576825         310.598         119.669           316.2 
       0.582926         308.745         116.861          313.58 
       0.589034         304.869         114.133         309.459 
       0.595184         302.992          111.47         304.391 
       0.601379         296.294         108.876         300.986 
       0.607522         293.511          106.39          296.32 
       0.613639         290.853         103.997         295.627 
       0.619772         286.495         101.677         293.516 
       0.625918           284.6         99.4244         288.214 
       0.632068         279.305         97.2392         285.529 
       0.638161         277.617          95.138         283.486 
         0.6443         273.803         93.0825         279.631 
       0.650464         271.302         91.0796         274.603 
       0.656582         267.205         89.1497         272.838 
       0.662703         267.149         87.2756         270.419 
       0.668861         263.448         85.4456          268.74 
       0.675024          260.02         83.6677         265.989 
       0.681124         257.255         81.9591         261.912 
       0.687237         254.979         80.2953         259.213 
       0.693381         250.932         78.6704          256.57 
       0.699536         248.029         77.0879         254.786 
       0.705665         246.027         75.5557         251.052 
       0.711789         245.026         74.0666         249.869 
       0.717957         242.797         72.6076         248.495 
        0.72409         240.958         71.1961         245.237 
       0.730186         237.371         69.8309         242.492 
       0.736317         235.373         68.4943         240.825 
       0.742472         232.814         67.1881         238.631 
       0.748622         231.296         65.9175         235.943 
        0.75476         228.291         64.6828         235.842 
       0.760888         225.955         63.4819         232.461 
       0.767043         225.229          62.307         230.392 
       0.773185         223.334         61.1645         228.769 
       0.779291          219.79         60.0573         226.245 
       0.785407         219.117         58.9761         224.457 
       0.791564         216.872         57.9148         222.523 
       0.797719         214.278         56.8803         220.826 
       0.803834         211.982         55.8777         219.576 
       0.809972         211.365         54.8958         217.561 
       0.816124         209.966         53.9354         215.545 
       0.822261         208.589         53.0007         214.573 
       0.828378         206.237          52.091          212.38 
       0.834502         204.176          51.202         210.707 
       0.840667         202.762         50.3282         208.757 
       0.846816         201.443         49.4772         207.526 
       0.852925         199.976         48.6514         206.053 
       0.859047         198.364         47.8428         204.423 
       0.865192         195.702         47.0499         202.459 
       0.871341         193.983         46.2746          201.05 
       0.877463         193.977         45.5204         199.988 
       0.883569         192.089         44.7849         199.625 
       0.889708         189.698         44.0621         197.069 
       0.895864         189.305         43.3533         196.058 
       0.902008         187.288         42.6618          194.06 
       0.908149         185.793         41.9858         192.676 
       0.914301         183.903         41.3234         191.135 
       0.920448         182.811         40.6759         190.142 
       0.926574         180.866         40.0447         188.731 
       0.932687         180.915         39.4282         187.257 
       0.938823           178.4         38.8226         186.665 
       0.944975         177.967         38.2283          185.03 
       0.951105         176.486         37.6487         183.945 
       0.957225         175.732         37.0821         182.409 
       0.963368         172.892         36.5254         181.246 
       0.969511         172.205         35.9801         180.057 
       0.975621         170.838         35.4489         179.155 
       0.981748         169.992         34.9271         178.287 
       0.987916         168.785         34.4126         176.749 
        0.99406         167.671         33.9104         175.615 
        1.00019          166.39         33.4192         174.471 
        1.00632         165.416         32.9383         173.177 
        1.01246         163.986         32.4662         171.691 
        1.01859           163.7         32.0041         171.056 
        1.02471         161.453         31.5516          170.06 
        1.03085         160.536         31.1063         169.089 
        1.03698         159.384         30.6706         168.518 
        1.04314         158.129         30.2415         167.053 
        1.04929         157.737         29.8215         165.857 
        1.05541         156.533         29.4113         165.126 
        1.06154         155.123         29.0078         164.409 
        1.06769         154.742         28.6113         163.413 
        1.07382         153.336         28.2235         162.448 
        1.07993           152.2         27.8438         161.517 
        1.08607         151.944         27.4695         160.271 
        1.09222         150.422         27.1017         159.549 
        1.09836         149.233         26.7411          158.58 
        1.10449         148.074         26.3875         158.097 
        1.11063         147.096         26.0399         156.917 
        1.11677         146.224         25.6987         155.778 
         1.1229         144.844         25.3642         154.924 
        1.12903         144.446         25.0354         154.046 
        1.13518         143.604         24.7121          153.28 
        1.14131         142.208         24.3948          152.34 
        1.14745         142.227         24.0832         151.294 
        1.15359         140.525          23.777         150.739 
        1.15973         139.568         23.4761         149.921 
        1.16584         139.018         23.1817         149.183 
        1.17197         138.692         22.8919         148.528 
        1.17811         136.817         22.6063         147.499 
        1.18424         136.527         22.3263         146.502 
        1.19038         135.979         22.0503         146.296 
        1.19652         134.617         21.7791         145.006 
        1.20267         134.205         21.5124         144.627 
        1.20881         133.178         21.2503         143.675 
        1.21495         132.162          20.993         142.978 
        1.22108         131.603         20.7399         142.152 
         1.2272         130.442         20.4917         141.446 
        1.23334         130.346          20.247         140.926 
        1.23949          128.87         20.0057         140.028 
        1.24562         128.291          19.769         138.932 
        1.25174         127.708         19.5365         138.298 
        1.25789         127.034          19.307         137.475 
        1.26402         125.468         19.0816         137.134 
        1.27014         124.979         18.8604         136.513 
        1.27628         124.292         18.6421         136.161 
        1.28244         124.035         18.4268         135.155 
        1.28858         122.941         18.2151         134.508 
        1.29471         122.196         18.0073         133.787 
        1.30084         121.471         17.8029         132.892 
        1.30697          120.29         17.6014         132.232 
        1.31312         119.703         17.4027         131.432 
        1.31925         118.959         17.2077         131.067 
        1.32537         118.766         17.0159         130.552 
        1.33151         117.886         16.8263         129.803 
        1.33765         116.968         16.6397         129.204 
        1.34378         116.404         16.4563         128.655 
        1.34992         115.842         16.2756         127.937 
        1.35606         115.472         16.0971         127.165 
         1.3622         114.153         15.9217          126.79 
        1.36833         113.668         15.7493         126.028 
        1.37445          113.21         15.5796         125.369 
        1.38059         112.336         15.4119         124.685 
        1.38675         111.856         15.2462          124.02 
        1.39288         111.028         15.0836         123.506 
        1.39901         110.675         14.9235         123.066 
        1.40515         109.758         14.7653          122.52 
         1.4113         109.442         14.6095         121.932 
        1.41742         108.331         14.4565         121.353 
        1.42355         108.107         14.3055         120.664 
         1.4297         107.191         14.1561         120.215 
        1.43585         106.585         14.0089         119.586 
        1.44198         106.435         13.8644         119.308 
        1.44809         105.738         13.7222         118.532 
        1.45423         105.264         13.5815         117.836 
        1.46036         104.311          13.443         117.359 
        1.46649         103.768         13.3064         116.987 
        1.47263         103.042         13.1716           116.5 
        1.47877         102.328         13.0387         115.695 
        1.48491         101.731         12.9075         115.157 
        1.49104         101.454         12.7783         114.938 
        1.49718         100.614         12.6508         114.195 
        1.50333          99.966         12.5248         113.526 
        1.50947         99.4783         12.4008         113.129 
         1.5156         99.0393         12.2787         112.727 
        1.52172         98.5932         12.1582         112.207 
        1.52787         97.8074         12.0391         111.671 
          1.534         97.4492         11.9218          111.19 
        1.54013         97.0032         11.8061         110.765 
        1.54627         96.4165         11.6917          110.32 
        1.55241         95.8841         11.5789         109.765 
        1.55855         95.2507         11.4677         109.135 
        1.56467         94.5743         11.3582         108.778 
         1.5708          93.975         11.2499         108.296 
        1.57695         93.9279         11.1428         107.774 
        1.58308          93.396         11.0374         107.427 
        1.58922         92.7529         10.9333         106.933 
        1.59535         92.1544         10.8305          106.44 
         1.6015         92.0655         10.7289         105.972 
        1.60764         91.3421         10.6287         105.518 
        1.61376         90.7395           10.53         105.127 
        1.61989         90.1535         10.4325         104.709 
        1.62604         89.7351          10.336         103.994 
        1.63218         89.4244         10.2408          103.49 
        1.63831         88.9238          10.147         103.302 
        1.64444         88.3314         10.0543         102.845 
        1.65059         87.5885         9.96263         102.366 
        1.65673         87.3943         9.87216         101.858 
        1.66285         87.0698         9.78307          101.47 
        1.66898         86.4116         9.69505         101.191 
        1.67512          85.617         9.60794         100.661 
        1.68127         85.4535         9.52182          100.28 
         1.6874         85.0802         9.43695         99.9443 
        1.69353         84.6525         9.35316         99.3655 
        1.69967         84.2205          9.2702         99.0179 
        1.70581         83.4428         9.18827          98.631 
        1.71193         82.9305         9.10765         98.1343 
        1.71806         82.8921         9.02781          97.767 
        1.72421         82.3435         8.94878         97.4186 
        1.73035         82.0315         8.87079         97.0229 
        1.73649         81.5303         8.79373          96.555 
        1.74262         81.0297         8.71766         96.0309 
        1.74876         80.6281         8.64243         95.6657 
        1.75489          80.064         8.56825         95.3607 
        1.76101         79.6086         8.49496         94.9863 
        1.76715         79.3291         8.42243         94.6036 
        1.77329         78.7573         8.35065         94.1638 
        1.77943         78.4671         8.27969         93.7603 
        1.78557         78.1612         8.20965         93.4551 
        1.79171         77.4555         8.14041         93.0401 
        1.79785         77.0914         8.07195         92.5983 
        1.80399         76.7206          8.0043         92.2797 
        1.81012         76.2707         7.93751         91.9105 
        1.81625         75.9801         7.87152         91.5059 
        1.82239         75.4309         7.80617         91.1371 
        1.82853         75.0338          7.7416         90.7732 
        1.83466         74.7406         7.67782         90.3743 
        1.84078         74.4112         7.61483         90.0164 
        1.84692         73.8221         7.55245         89.7861 
        1.85306         73.5121         7.49068         89.3569 
         1.8592         73.1149          7.4297         88.8695 
        1.86533         72.7144         7.36944          88.618 
        1.87147         72.2526         7.30977         88.3151 
