# k  (h/Mpc)    P(k)  (Mpc/h)^3    P_linear(k)  (Mpc/h)^3     P_NL(k)  ShotnoiseSubtracted = false
     0.00783031         19920.3           20227         20032.9 
       0.013688         22784.8         22523.7           22347 
       0.019231           20900         20792.2         20633.8 
      0.0249154         17180.9         17503.5           17389 
      0.0312784         13660.4         13732.1         13670.7 
      0.0375637         10917.2         10811.3         10787.3 
      0.0433917         8943.86         8997.23         8969.41 
      0.0492413         7919.06         7887.11         7866.05 
      0.0555754         7045.47         7183.92         7166.61 
      0.0619321         6763.75            6676         6657.69 
       0.067871         6071.66          6165.3         6157.31 
      0.0738098         5469.53         5535.87         5491.61 
      0.0800417         4712.12         4783.63         4781.86 
      0.0862327         4072.23         4050.64         4123.89 
      0.0921407          3585.6         3460.77         3555.25 
      0.0982031         3117.54         3016.69          3164.1 
       0.104506         2910.05         2724.76          2900.9 
       0.110769         2711.76         2561.43         2689.08 
       0.116806          2590.2         2463.53         2563.84 
       0.122832         2481.21         2367.88         2459.65 
       0.129052         2288.78          2232.3         2314.15 
       0.135211         2126.19         2051.93         2144.61 
       0.141259         1983.92         1847.77         1975.62 
       0.147318          1818.7         1646.02          1816.2 
       0.153489         1634.66         1470.45         1626.93 
       0.159709         1527.22         1338.51         1515.02 
       0.165845         1459.05         1252.09         1451.39 
       0.171974         1389.67         1197.84         1377.22 
       0.178125         1329.82         1158.99         1343.36 
       0.184229            1273         1119.95         1284.54 
        0.19034         1195.89         1069.93         1223.93 
       0.196428         1158.62         1006.71         1156.53 
       0.202534         1104.82         934.492         1097.37 
       0.208729         1036.13         860.785         1022.04 
       0.214876         981.946         795.369         983.537 
       0.220989         939.029         742.754         940.679 
       0.227147         899.215         703.016         903.147 
        0.23329          861.87         673.944         877.169 
       0.239377         843.464         651.036         843.328 
       0.245482         787.464         629.234         807.514 
       0.251667         780.526         604.917         786.955 
       0.257832         746.191         577.185         752.894 
       0.263955         717.964         546.995         722.469 
       0.270079         687.087         516.338         695.108 
        0.27624         675.516         487.419         666.062 
       0.282372         647.929         462.229         646.762 
        0.28843         634.448         441.479         628.587 
       0.294538         600.494         424.193         608.809 
       0.300721         595.548         409.279         591.477 
        0.30691         569.815         395.472         580.826 
       0.313033         557.184         381.815         560.026 
       0.319153          541.21         367.522         543.168 
       0.325316         525.074         352.559         528.864 
        0.33145          508.83         337.523         507.793 
       0.337538         498.229         323.145         494.319 
       0.343633         483.911         309.808         486.734 
       0.349808         464.982         297.705         476.032 
       0.355968         460.494         286.995         465.367 
       0.362074         453.869         277.466         454.675 
       0.368217         439.766         268.589          441.09 
       0.374374         419.967         260.003         430.708 
       0.380519          418.31         251.527         419.627 
       0.386598         405.837         243.132         414.799 
       0.392688         402.336         234.783         401.886 
        0.39888          390.48          226.53         393.397 
       0.405048         382.188         218.693         385.637 
       0.411186         376.049         211.393         375.685 
       0.417313         368.116         204.651         368.091 
       0.423458         359.056         198.362         361.651 
       0.429607         354.381         192.451         354.994 
       0.435692          344.58         186.877         345.295 
       0.441815         340.514         181.439         341.952 
       0.447964          332.55         176.091         336.185 
       0.454126          326.14         170.858         326.222 
       0.460267         318.929         165.786         323.849 
       0.466387         314.507         160.906          317.83 
        0.47254         309.252         156.214         311.793 
       0.478662         307.299         151.788         305.328 
       0.484765         295.752         147.601         299.788 
       0.490885         292.632         143.599         294.628 
       0.497035         286.747         139.749         290.649 
       0.503198         282.864         136.037         286.436 
       0.509342          280.85         132.455         281.826 
       0.515458          276.74         128.989         278.259 
       0.521598         268.904         125.607         273.474 
       0.527764         265.805         122.321         270.642 
       0.533884         262.581         119.178         266.612 
           0.54         258.725         116.159         261.613 
       0.546137         256.941         113.245         258.453 
       0.552299         251.805          110.43          254.19 
       0.558452         250.175         107.726          250.87 
       0.564573          246.61         105.132         248.651 
       0.570708         241.275         102.619         245.553 
       0.576825         236.891         100.191         240.553 
       0.582926         234.631         97.8405         238.298 
       0.589034         231.859         95.5561         235.384 
       0.595184         229.993          93.327         230.978 
       0.601379         225.423         91.1549         228.419 
       0.607522         222.834         89.0735         224.875 
       0.613639         220.698         87.0705         224.147 
       0.619772         216.664         85.1275         222.092 
       0.625918         215.441         83.2418         217.876 
       0.632068         211.346         81.4124         215.313 
       0.638161         210.164         79.6532         214.118 
         0.6443         206.882         77.9322          211.16 
       0.650464         204.736         76.2553         206.976 
       0.656582         201.753         74.6395         205.565 
       0.662703         201.609         73.0705         203.522 
       0.668861         198.465         71.5383         201.942 
       0.675024         195.393         70.0498         199.816 
       0.681124         193.603         68.6192         196.621 
       0.687237         191.619         67.2263         194.606 
       0.693381         188.457         65.8658         192.362 
       0.699536         186.609         64.5409         190.803 
       0.705665          184.74         63.2581         188.287 
       0.711789         183.421         62.0114         187.229 
       0.717957          182.32         60.7898         185.825 
        0.72409         180.266         59.6081         183.674 
       0.730186          177.69         58.4651         181.566 
       0.736317         175.834          57.346         179.848 
       0.742472         174.136         56.2524          177.99 
       0.748622          172.84         55.1886         176.096 
        0.75476         170.815         54.1549         175.607 
       0.760888         169.022         53.1494         172.902 
       0.767043         168.383         52.1658         171.563 
       0.773185         166.917         51.2092         170.303 
       0.779291         163.813         50.2822         168.203 
       0.785407          163.24          49.377          166.67 
       0.791564         161.695         48.4885         165.249 
       0.797719         159.033         47.6223         164.087 
       0.803834         157.934         46.7829         162.888 
       0.809972         157.302         45.9608         161.408 
       0.816124          156.06         45.1567         160.009 
       0.822261          155.01         44.3742         158.936 
       0.828378         153.264         43.6126         157.196 
       0.834502         152.243         42.8683         155.826 
       0.840667         150.428         42.1366         154.447 
       0.846816         149.181         41.4242         153.491 
       0.852925         148.099         40.7328         152.325 
       0.859047         147.092         40.0558         151.135 
       0.865192         144.941          39.392          149.52 
       0.871341         143.782         38.7429         148.423 
       0.877463         143.014         38.1114         147.651 
       0.883569         142.335         37.4957         147.093 
       0.889708         140.458         36.8904         145.237 
       0.895864         139.432         36.2971         144.382 
       0.902008         138.266         35.7181         142.985 
       0.908149         137.656         35.1521         141.933 
       0.914301          135.79         34.5975         140.733 
       0.920448         135.069         34.0554         139.938 
       0.926574         133.764         33.5269         138.727 
       0.932687         133.724         33.0108         137.925 
       0.938823         131.727         32.5037         137.032 
       0.944975         131.171         32.0062         135.962 
       0.951105          130.08         31.5209         134.964 
       0.957225         129.442         31.0466         133.924 
       0.963368         127.232         30.5804         132.967 
       0.969511         126.862         30.1239         131.933 
       0.975621          125.68         29.6791         131.458 
       0.981748         125.496         29.2423         130.637 
       0.987916         124.245         28.8115         129.572 
        0.99406         123.295         28.3911         128.583 
        1.00019         122.765         27.9799         127.681 
        1.00632         121.479         27.5772          126.73 
        1.01246         120.729         27.1819         125.575 
        1.01859         120.363          26.795          125.16 
        1.02471         118.696         26.4162         124.504 
        1.03085         117.826         26.0434          123.74 
        1.03698         117.193         25.6786         123.203 
        1.04314         115.932         25.3193         122.138 
        1.04929         115.821         24.9677         121.346 
        1.05541         114.816         24.6243          120.76 
        1.06154         114.037         24.2864         120.056 
        1.06769         113.666         23.9544         119.348 
        1.07382         112.444         23.6298         118.663 
        1.07993         111.696         23.3119         117.852 
        1.08607         111.093         22.9985         117.024 
        1.09222         110.481         22.6906         116.465 
        1.09836         109.584         22.3887          115.65 
        1.10449         108.493         22.0926         115.288 
        1.11063         107.852         21.8016         114.316 
        1.11677         107.056         21.5159         113.526 
         1.1229         106.356         21.2359          112.91 
        1.12903         106.031         20.9606         112.237 
        1.13518         105.326         20.6899         111.687 
        1.14131         104.216         20.4242         110.803 
        1.14745         104.118         20.1634         110.244 
        1.15359         103.031          19.907         109.741 
        1.15973          102.52         19.6551         109.167 
        1.16584         101.741         19.4086         108.396 
        1.17197         101.207          19.166          108.02 
        1.17811         100.279         18.9268         107.237 
        1.18424         100.067         18.6924         106.449 
        1.19038         99.7814         18.4614         106.288 
        1.19652         98.8383         18.2343         105.446 
        1.20267         98.0914          18.011         105.017 
        1.20881         97.6544         17.7916         104.233 
        1.21495         96.6136         17.5761         103.839 
        1.22108         96.3556         17.3643          103.28 
         1.2272         95.4595         17.1564         102.626 
        1.23334          95.059         16.9515         102.362 
        1.23949         94.4889         16.7495         101.623 
        1.24562         93.8818         16.5513         100.767 
        1.25174         93.5464         16.3567         100.293 
        1.25789         92.8968         16.1646         99.7196 
        1.26402         91.7067         15.9759         99.4616 
        1.27014         91.4354         15.7907          99.009 
        1.27628         91.1014         15.6079         98.7179 
        1.28244         90.7491         15.4276         97.9371 
        1.28858         90.1113         15.2504         97.4226 
        1.29471          89.331         15.0764         96.9859 
        1.30084         89.2302         14.9053         96.2453 
        1.30697         88.1441         14.7366         95.8081 
        1.31312         87.7522         14.5702         95.3061 
        1.31925         87.1905         14.4069         94.9755 
        1.32537          86.806         14.2463         94.6295 
        1.33151         86.2324         14.0876         94.0539 
        1.33765          85.645         13.9314         93.6324 
        1.34378         85.2393         13.7778         93.1845 
        1.34992         84.9319         13.6265         92.5957 
        1.35606         84.4581         13.4771         92.1203 
         1.3622         83.6639         13.3303         91.7892 
        1.36833         83.2482          13.186         91.1318 
        1.37445         82.9371         13.0438         90.8186 
        1.38059         82.1751         12.9034         90.1508 
        1.38675         81.6423         12.7647         89.7606 
        1.39288         81.5314         12.6286         89.2803 
        1.39901         80.9812         12.4945         88.9887 
        1.40515         80.2854         12.3621         88.7019 
         1.4113         80.1035         12.2316         88.3439 
        1.41742         79.4759         12.1035         87.8742 
        1.42355         79.1425         11.9771         87.3081 
         1.4297         78.6558          11.852         87.0066 
        1.43585          78.126         11.7288         86.4433 
        1.44198         77.7553         11.6078          86.298 
        1.44809         77.5054         11.4888          85.772 
        1.45423         77.0919          11.371         85.2351 
        1.46036         76.4425          11.255         84.8911 
        1.46649         76.0397         11.1406         84.6265 
        1.47263         75.4042         11.0278         84.2619 
        1.47877         75.0287         10.9165         83.6915 
        1.48491         74.6761         10.8066         83.3135 
        1.49104         74.4012         10.6985         83.1392 
        1.49718         73.9818         10.5917         82.5472 
        1.50333         73.5904         10.4863          82.102 
        1.50947         73.0251         10.3825         81.8257 
         1.5156         72.8523         10.2802         81.4882 
        1.52172         72.4319         10.1793         81.0793 
        1.52787         71.8474         10.0796         80.6961 
          1.534         71.4956         9.98136         80.4167 
        1.54013         71.1301         9.88452         80.1089 
        1.54627         70.7803         9.78878         79.7262 
        1.55241         70.4475         9.69429         79.3189 
        1.55855         69.9823         9.60119         78.9236 
        1.56467         69.6505         9.50956         78.6456 
         1.5708         69.0885         9.41886         78.2855 
        1.57695         69.0569         9.32921         77.9129 
        1.58308         68.6683         9.24094         77.6315 
        1.58922         68.2488         9.15374          77.297 
        1.59535         67.8463          9.0677         76.9896 
         1.6015           67.57         8.98265         76.6051 
        1.60764         67.0903         8.89873         76.2634 
        1.61376         66.8119         8.81611         76.0733 
        1.61989         66.4347         8.73447         75.7369 
        1.62604         66.0543         8.65369         75.1512 
        1.63218          65.897         8.57398         74.7865 
        1.63831         65.2666         8.49545         74.6929 
        1.64444         64.8825         8.41788         74.3384 
        1.65059         64.5362          8.3411         73.9809 
        1.65673         64.1936         8.26535         73.6343 
        1.66285         63.9953         8.19076         73.3547 
        1.66898         63.7078         8.11706         73.1225 
        1.67512         63.0989         8.04413          72.768 
        1.68127          62.956         7.97203         72.4813 
         1.6874         62.5076         7.90097         72.2035 
        1.69353         62.2032         7.83083         71.8017 
        1.69967         62.0564         7.76136         71.5399 
        1.70581         61.5811         7.69277         71.2776 
        1.71193         61.2238         7.62527         70.9643 
        1.71806         60.9842         7.55843         70.6981 
        1.72421         60.6598         7.49226         70.4014 
        1.73035         60.3455         7.42696         70.0966 
        1.73649         60.0958         7.36245         69.7922 
        1.74262         59.6618         7.29876         69.4502 
        1.74876         59.4253         7.23578         69.1668 
        1.75489         59.0809         7.17367         68.9144 
        1.76101         58.8127         7.11231         68.6424 
        1.76715         58.3924         7.05158         68.3725 
        1.77329         58.1463         6.99149         68.0729 
        1.77943         57.8312         6.93207         67.7846 
        1.78557           57.66         6.87343         67.5436 
        1.79171         57.1879         6.81546         67.2673 
        1.79785         56.8339         6.75815          66.962 
        1.80399         56.6478          6.7015         66.6776 
        1.81012         56.3813         6.64559          66.412 
        1.81625         56.1098         6.59033         66.1424 
        1.82239         55.7271         6.53563         65.8777 
        1.82853         55.5524         6.48156         65.6354 
        1.83466         55.2999         6.42817         65.3526 
        1.84078         54.8728         6.37543         65.0829 
        1.84692         54.6788          6.3232         64.9219 
        1.85306         54.3794         6.27148          64.616 
         1.8592         54.2076         6.22043         64.2591 
        1.86533         53.8047         6.16997         64.0621 
        1.87147         53.4519         6.12002         63.8062 
        1.87761         53.2065         6.07059         63.5408 
