# k  (h/Mpc)    Pcb(k)  (Mpc/h)^3    Pcb_linear(k) (Mpc/h)^3    Pcb_NL(k) (Mpc/h)^3   ShotnoiseSubtracted = false
     0.00783031         14141.4         14344.6           14210 
       0.013688         16120.1           15976         15859.5 
       0.019231         14816.8         14748.9           14648 
      0.0249154         12232.8         12416.6           12350 
      0.0312784         9712.39         9741.51         9715.31 
      0.0375637          7739.6         7669.64         7662.77 
      0.0433917         6357.69         6382.78         6374.11 
      0.0492413         5617.58         5595.29         5589.78 
      0.0555754         5020.07         5096.46         5089.96 
      0.0619321         4795.04         4736.15         4727.84 
       0.067871         4324.42         4373.87         4369.98 
      0.0738098         3890.98         3927.33         3905.58 
      0.0800417         3352.05         3393.68         3394.05 
      0.0862327         2885.06         2873.67         2913.05 
      0.0921407         2522.65          2455.2         2505.72 
      0.0982031         2189.75         2140.16         2218.16 
       0.104506         2034.53         1933.06         2025.74 
       0.110769         1898.15         1817.18          1883.3 
       0.116806         1810.39         1747.73          1799.3 
       0.122832         1740.02         1679.87         1727.53 
       0.129052         1609.97         1583.69         1625.69 
       0.135211         1492.44         1455.73         1504.28 
       0.141259         1382.54         1310.89         1377.38 
       0.147318         1259.19         1167.76         1258.11 
       0.153489         1128.46          1043.2         1124.84 
       0.159709         1049.42         949.593         1041.58 
       0.165845         998.564          888.29         993.545 
       0.171974         948.376         849.804         942.766 
       0.178125         911.259         822.237         918.564 
       0.184229         875.953         794.542         880.773 
        0.19034         818.775         759.057         839.171 
       0.196428         792.484         714.201          790.11 
       0.202534         754.798         662.971         746.423 
       0.208729         703.484         610.679         694.305 
       0.214876         660.373          564.27         663.984 
       0.220989         629.872         526.943         631.543 
       0.227147         599.963         498.751         603.236 
        0.23329         575.223         478.128         584.824 
       0.239377         561.685         461.874          562.68 
       0.245482         524.116         446.408          538.28 
       0.251667         518.001         429.156         523.996 
       0.257832         496.532          409.48         500.469 
       0.263955          476.21         388.063         478.661 
       0.270079         454.145         366.314         459.087 
        0.27624         444.757         345.798         438.078 
       0.282372         426.625         327.929         423.253 
        0.28843         413.229         313.205         409.327 
       0.294538         392.013         300.942         396.394 
       0.300721         388.021         290.362         385.293 
        0.30691         370.025         280.567         376.375 
       0.313033         361.375         270.875         362.602 
       0.319153          348.33         260.737         351.245 
       0.325316         338.463         250.121         341.146 
        0.33145         326.249         239.455         327.234 
       0.337538         319.871         229.254         317.006 
       0.343633          308.76         219.793         311.214 
       0.349808         297.226         211.205         303.495 
       0.355968         293.134         203.608         296.444 
       0.362074         287.098         196.847         288.367 
       0.368217          278.53         190.549         278.943 
       0.374374         266.359         184.458         271.891 
       0.380519         263.596         178.445         264.343 
       0.386598         256.186         172.489         260.295 
       0.392688         252.599         166.566         251.814 
        0.39888         245.717         160.711         245.869 
       0.405048          238.97         155.151         241.152 
       0.411186         234.125         149.972         234.129 
       0.417313         229.156         145.189         228.322 
       0.423458         223.631         140.727         223.979 
       0.429607         219.317         136.534         219.453 
       0.435692          212.83          132.58         213.652 
       0.441815         210.439         128.721         210.946 
       0.447964         205.433         124.928         206.566 
       0.454126         198.479         121.214         200.249 
       0.460267         195.189         117.617         198.346 
       0.466387         192.648         114.154          194.05 
        0.47254         187.811         110.826         190.094 
       0.478662         187.172         107.685          186.21 
       0.484765         180.247         104.715         181.712 
       0.490885         177.681         101.876         178.893 
       0.497035          174.52         99.1443         176.138 
       0.503198         170.583         96.5108          173.11 
       0.509342         168.612           93.97         170.337 
       0.515458         165.873         91.5106         167.964 
       0.521598             162         89.1113         164.201 
       0.527764         159.996         86.7802         161.918 
       0.533884         157.635         84.5505         159.421 
           0.54         154.837         82.4085         156.229 
       0.546137         153.355         80.3411           154.3 
       0.552299          150.14         78.3443         151.083 
       0.558452         148.553         76.4257         148.635 
       0.564573         146.129         74.5855         147.174 
       0.570708           142.8         72.8026         145.171 
       0.576825         140.782         71.0802          142.04 
       0.582926         138.305         69.4127          140.21 
       0.589034         136.672          67.792         138.705 
       0.595184         134.872         66.2106         135.754 
       0.601379         132.757         64.6696         134.344 
       0.607522         130.455         63.1929         131.916 
       0.613639         129.121         61.7719         130.941 
       0.619772         126.522         60.3935         129.213 
       0.625918         125.189         59.0557         126.974 
       0.632068         123.321         57.7578          125.05 
       0.638161         122.256         56.5097         124.188 
         0.6443         120.475         55.2888         122.392 
       0.650464         119.122         54.0991         119.761 
       0.656582         117.069         52.9528         118.852 
       0.662703         116.214         51.8396         117.176 
       0.668861         114.128         50.7526         115.997 
       0.675024         112.373         49.6966         114.453 
       0.681124         111.582         48.6817         112.862 
       0.687237         109.732         47.6935         111.494 
       0.693381         107.971         46.7283         109.917 
       0.699536         107.178         45.7883           108.8 
       0.705665         106.403         44.8783         107.875 
       0.711789         104.449         43.9938         106.498 
       0.717957         104.145         43.1271         105.275 
        0.72409          102.33         42.2888         104.394 
       0.730186         100.771         41.4779         103.253 
       0.736317         99.9155          40.684         101.765 
       0.742472          99.033         39.9081         100.725 
       0.748622         97.9673         39.1534         99.4985 
        0.75476         96.8856           38.42         98.5291 
       0.760888         95.6678         37.7067         97.0635 
       0.767043         95.1397         37.0088         96.4336 
       0.773185         94.0826         36.3302         95.7041 
       0.779291         92.3492         35.6726         94.4578 
       0.785407         91.9229         35.0304         93.2769 
       0.791564         91.1716            34.4         92.5512 
       0.797719         89.2219         33.7855         91.9403 
       0.803834         88.8174           33.19         90.7415 
       0.809972         87.8768         32.6068         89.8687 
       0.816124         87.2842         32.0363         89.1309 
       0.822261          86.449         31.4811         88.2032 
       0.828378         85.7209         30.9408         87.0841 
       0.834502         85.1862         30.4128         86.2576 
       0.840667         83.7834         29.8937          85.761 
       0.846816         82.8278         29.3883         84.9825 
       0.852925         82.2664         28.8978         84.2264 
       0.859047         81.2637         28.4174         83.3995 
       0.865192         80.5433         27.9465         82.5535 
       0.871341         79.8457          27.486         81.7251 
       0.877463         78.7846          27.038         81.1238 
       0.883569         78.6497         26.6012         80.6901 
       0.889708         77.7692         26.1718         79.7953 
       0.895864         76.9603         25.7508         79.2848 
       0.902008         76.3688         25.3401          78.398 
       0.908149         75.8649         24.9385         77.7581 
       0.914301         74.9824         24.5451         77.0892 
       0.920448         74.4288         24.1605         76.5709 
       0.926574         73.7085         23.7856         75.8115 
       0.932687         73.6316         23.4194         75.3125 
       0.938823         72.4137         23.0597         74.5499 
       0.944975         71.6524         22.7067          73.933 
       0.951105         71.1741         22.3624         73.3161 
       0.957225         70.5579         22.0259          72.811 
       0.963368         69.7529         21.6952         72.1434 
       0.969511          69.626         21.3713         71.5534 
       0.975621         69.1122         21.0558         71.4264 
       0.981748          68.552         20.7459         70.8333 
       0.987916         67.7919         20.4402         70.2514 
        0.99406         67.2852         20.1419         69.5417 
        1.00019         66.9458         19.8502         68.9305 
        1.00632         66.2049         19.5646         68.4491 
        1.01246         65.9015         19.2841         67.8106 
        1.01859         65.1019         19.0097         67.6035 
        1.02471         64.5816         18.7409         67.2715 
        1.03085         64.0463         18.4764         66.6543 
        1.03698         63.7808         18.2176         66.1482 
        1.04314         63.1616         17.9627          65.603 
        1.04929          62.752         17.7133         65.3042 
        1.05541         62.0577         17.4696          64.958 
        1.06154         61.9303         17.2299         64.4332 
        1.06769         61.4896         16.9944         64.0033 
        1.07382         61.0275         16.7641         63.5994 
        1.07993         60.6318         16.5385         63.1561 
        1.08607         60.0752         16.3162         62.6901 
        1.09222           59.92         16.0978         62.2649 
        1.09836         59.2709         15.8836         61.7761 
        1.10449         58.9508         15.6735         61.4686 
        1.11063            58.4         15.4671         60.8358 
        1.11677         58.0559         15.2644         60.4651 
         1.1229         57.5269         15.0657         60.2778 
        1.12903         57.0167         14.8704         59.7638 
        1.13518         56.9843         14.6784         59.3832 
        1.14131         56.5904         14.4899         58.9435 
        1.14745         56.0969         14.3049           58.68 
        1.15359          55.739          14.123         58.2834 
        1.15973         55.3094         13.9442         58.0777 
        1.16584         54.8749         13.7694         57.4347 
        1.17197          54.535         13.5973         57.3271 
        1.17811         54.2767         13.4276          56.875 
        1.18424         53.7949         13.2613         56.5651 
        1.19038         53.5566         13.0974         56.2074 
        1.19652          53.223         12.9362         55.8302 
        1.20267          52.582         12.7779         55.5533 
        1.20881         52.4414         12.6222         55.1458 
        1.21495         51.9778         12.4693         54.8398 
        1.22108         51.8932          12.319         54.5755 
         1.2272         51.1895         12.1716         54.2225 
        1.23334         50.9622         12.0262         54.0239 
        1.23949         50.7995         11.8829          53.543 
        1.24562         50.3066         11.7423         53.1627 
        1.25174         50.1019         11.6042         52.9531 
        1.25789         49.8842         11.4679         52.6351 
        1.26402          49.416          11.334         52.4274 
        1.27014         49.1247         11.2026         52.2092 
        1.27628         48.8062         11.0729         51.8589 
        1.28244         48.4908         10.9451         51.4496 
        1.28858         48.3292         10.8194          51.161 
        1.29471         48.0824         10.6959         50.9474 
        1.30084         47.7591         10.5745         50.5354 
        1.30697         47.3828         10.4548         50.3741 
        1.31312         47.0798         10.3368         50.1716 
        1.31925         46.8073          10.221         49.8122 
        1.32537           46.56          10.107         49.6231 
        1.33151          46.161         9.99441         49.3026 
        1.33765         46.0045         9.88358         49.0397 
        1.34378         45.7149         9.77465         48.8161 
        1.34992         45.4274          9.6673          48.493 
        1.35606         45.1689         9.56132         48.2579 
         1.3622         44.8046         9.45713         48.0482 
        1.36833         44.6568         9.35474         47.7785 
        1.37445         44.3366         9.25392         47.5774 
        1.38059         44.0139         9.15428         47.2907 
        1.38675         43.7921         9.05587         47.0161 
        1.39288         43.5501          8.9593         46.7523 
        1.39901          43.351         8.86418         46.5666 
        1.40515         43.0173         8.77024         46.4466 
         1.4113          42.821         8.67769         46.2254 
        1.41742         42.7278         8.58683         45.8481 
        1.42355         42.3575          8.4971         45.6302 
         1.4297          42.215         8.40839         45.4386 
        1.43585         41.9596         8.32098         45.1617 
        1.44198         41.5934         8.23515         44.9948 
        1.44809         41.4677         8.15068         44.7372 
        1.45423         41.2385          8.0671         44.5058 
        1.46036         41.0063         7.98484         44.3143 
        1.46649         40.7913         7.90369           44.16 
        1.47263         40.5141         7.82362         43.9642 
        1.47877         40.2401         7.74469          43.628 
        1.48491         40.1931         7.66672         43.4654 
        1.49104         39.8964            7.59         43.3229 
        1.49718         39.5501         7.51426         43.0889 
        1.50333         39.5318         7.43945          42.858 
        1.50947         39.2496          7.3658          42.663 
         1.5156         39.0268         7.29326          42.462 
        1.52172         38.8496          7.2217         42.2489 
        1.52787         38.7365         7.15096         42.0975 
          1.534         38.3793         7.08125         41.9085 
        1.54013         38.1761         7.01254         41.6795 
        1.54627         38.0976         6.94462         41.4735 
        1.55241         37.6899         6.87759         41.2898 
        1.55855         37.5748         6.81154         41.1208 
        1.56467         37.3053         6.74653         40.9654 
         1.5708         37.2887         6.68219         40.7679 
        1.57695         37.1009         6.61859         40.6007 
        1.58308         36.8363         6.55596         40.4359 
        1.58922         36.6069          6.4941         40.2082 
        1.59535         36.5286         6.43306         40.0509 
         1.6015         36.2081         6.37272         39.8332 
        1.60764         36.0323         6.31318         39.6481 
        1.61376          35.868         6.25456         39.5706 
        1.61989         35.6682         6.19665         39.3685 
        1.62604         35.4709         6.13934         39.1391 
        1.63218         35.4702         6.08278         38.9636 
        1.63831         35.1063         6.02707         38.8375 
        1.64444         34.9824         5.97204         38.6757 
        1.65059         34.9085         5.91757         38.4758 
        1.65673         34.6149         5.86383         38.2998 
        1.66285         34.3771         5.81091         38.1706 
        1.66898         34.3159         5.75863         38.0433 
        1.67512          34.029         5.70689         37.8402 
        1.68127         33.8999         5.65574         37.6443 
         1.6874         33.7251         5.60533         37.5033 
        1.69353         33.5472         5.55556         37.3876 
        1.69967         33.4307         5.50628         37.2224 
        1.70581          33.328         5.45762         37.0724 
        1.71193         33.1327         5.40973         36.9366 
        1.71806         32.8262         5.36231         36.7536 
        1.72421         32.7742         5.31537         36.6013 
        1.73035         32.6018         5.26904         36.4612 
        1.73649         32.3475         5.22327         36.3058 
        1.74262         32.2193         5.17808         36.1486 
        1.74876         32.0586          5.1334         35.9949 
        1.75489         31.9591         5.08934         35.8516 
        1.76101         31.8103         5.04581         35.7092 
        1.76715         31.6155         5.00272         35.5414 
        1.77329         31.4445         4.96009         35.4089 
        1.77943         31.2972         4.91794          35.289 
        1.78557         31.1257         4.87634         35.1336 
        1.79171         31.0205         4.83521         34.9822 
        1.79785         30.8379         4.79455         34.8488 
        1.80399         30.7995         4.75436         34.7206 
        1.81012         30.5167          4.7147         34.5758 
        1.81625         30.3931          4.6755         34.4223 
        1.82239          30.267         4.63668         34.2976 
        1.82853         30.1221         4.59833         34.2101 
        1.83466         29.8798         4.56045         34.0546 
        1.84078         29.7204         4.52303         33.8679 
        1.84692         29.6598         4.48598          33.781 
        1.85306         29.4737         4.44929         33.6654 
         1.8592         29.3165         4.41307         33.5052 
        1.86533         29.1871         4.37727          33.381 
        1.87147         29.0855         4.34183         33.2445 
