# k  (h/Mpc)    Pcb(k)  (Mpc/h)^3    Pcb_linear(k) (Mpc/h)^3    Pcb_NL(k) (Mpc/h)^3   ShotnoiseSubtracted = false
     0.00783031         20719.9         21040.7         20838.4 
       0.013688         23706.2         23429.6         23244.5 
       0.019231         21741.4         21628.3           21462 
      0.0249154           17866         18207.3         18086.2 
      0.0312784         14206.8         14284.2           14218 
      0.0375637         11356.7           11246         11219.6 
      0.0433917         9301.82         9358.96         9328.56 
      0.0492413         8237.45          8204.2         8181.03 
      0.0555754         7325.94         7472.73         7453.95 
      0.0619321         7035.87         6944.39         6924.73 
       0.067871         6313.52         6413.16         6404.59 
      0.0738098         5688.01         5758.42         5711.08 
      0.0800417         4900.42         4975.94         4973.88 
      0.0862327         4236.45         4213.48         4291.32 
      0.0921407         3732.44          3599.9         3700.35 
      0.0982031          3245.8         3137.96         3294.78 
       0.104506         3030.86          2834.3         3021.72 
       0.110769         2824.08          2664.4         2800.44 
       0.116806          2697.9         2562.56         2669.55 
       0.122832          2583.6         2463.07         2560.85 
       0.129052         2382.68         2322.04         2409.34 
       0.135211         2213.76         2134.42         2233.11 
       0.141259          2066.9         1922.05         2058.23 
       0.147318         1895.85          1712.2         1893.12 
       0.153489         1704.48         1529.57         1696.19 
       0.159709         1592.98         1392.31         1580.26 
       0.165845         1522.45         1302.43         1514.39 
       0.171974          1450.4            1246         1437.09 
       0.178125         1387.48         1205.58         1401.83 
       0.184229         1327.67         1164.97         1340.16 
        0.19034         1248.03         1112.94         1276.96 
       0.196428         1209.09         1047.17         1207.08 
       0.202534         1152.98         972.059         1145.73 
       0.208729         1081.85         895.388         1067.21 
       0.214876         1026.17         827.342         1027.43 
       0.220989         981.502         772.612         983.104 
       0.227147         940.275         731.278         944.315 
        0.23329         901.209         701.039         917.257 
       0.239377         882.143         677.207         881.866 
       0.245482         823.776          654.53         844.522 
       0.251667         816.645         629.236         823.051 
       0.257832         780.587         600.386         787.569 
       0.263955         751.181         568.984         755.962 
       0.270079         719.123         537.095           727.5 
        0.27624         707.139         507.015         697.332 
       0.282372         678.255         480.815         677.448 
        0.28843         664.756         459.226         658.697 
       0.294538         629.148         441.245         637.943 
       0.300721          623.97         425.733         619.759 
        0.30691         597.276         411.371          608.87 
       0.313033         584.031         397.162         587.104 
       0.319153         567.646         382.297         569.488 
       0.325316         550.673         366.731         554.634 
        0.33145         533.886         351.092         532.599 
       0.337538         522.649         336.135         518.664 
       0.343633         507.957         322.263         510.757 
       0.349808         488.045         309.673         499.667 
       0.355968         483.448         298.532         488.469 
       0.362074         476.692          288.62         477.435 
       0.368217          461.78         279.386         463.334 
       0.374374         441.125         270.455         452.486 
       0.380519         439.563         261.639         440.944 
       0.386598          426.34         252.906         435.921 
       0.392688         422.809         244.222         422.511 
        0.39888         410.276         235.636         413.589 
       0.405048         401.851         227.484         405.384 
       0.411186         395.487         219.892         395.122 
       0.417313         387.148         212.878         387.265 
       0.423458         377.597         206.336         380.507 
       0.429607         372.868         200.188         373.577 
       0.435692         362.576          194.39         363.361 
       0.441815         358.278         188.732         359.921 
       0.447964         349.972          183.17         353.973 
       0.454126         343.605         177.726         343.512 
       0.460267         335.849         172.451         341.055 
       0.466387         331.175         167.375         334.794 
        0.47254         325.964         162.495         328.472 
       0.478662         323.699         157.889         321.678 
       0.484765         311.597         153.534             316 
       0.490885         308.382         149.372         310.503 
       0.497035         302.152         145.367         306.375 
       0.503198         298.247         141.505          301.99 
       0.509342         296.181          137.78         297.104 
       0.515458         291.936         134.174         293.383 
       0.521598         283.565         130.656         288.453 
       0.527764          280.33         127.238         285.514 
       0.533884         276.973         123.969          281.29 
           0.54         272.959         120.828         276.066 
       0.546137         271.093         117.797         272.736 
       0.552299         265.776         114.869         268.326 
       0.558452          264.03         112.056         264.882 
       0.564573         260.327         109.358         262.548 
       0.570708         254.799         106.744         259.276 
       0.576825         250.077         104.219          254.06 
       0.582926         247.855         101.774         251.728 
       0.589034         244.892         99.3975         248.611 
       0.595184         243.018         97.0788         244.048 
       0.601379         238.075         94.8194         241.328 
       0.607522         235.444         92.6543         237.597 
       0.613639          233.22         90.5708         236.878 
       0.619772         229.048         88.5497         234.789 
       0.625918         227.754         86.5882         230.344 
       0.632068         223.415         84.6852         227.719 
       0.638161         222.172         82.8552         226.417 
         0.6443         218.746         81.0651         223.296 
       0.650464         216.513         79.3208         218.924 
       0.656582         213.346         77.6401         217.448 
       0.662703         213.235         76.0079         215.332 
       0.668861          209.98         74.4142         213.715 
       0.675024         206.795         72.8658         211.486 
       0.681124         204.839         71.3778         208.098 
       0.687237         202.797         69.9288         205.977 
       0.693381         199.474         68.5137         203.652 
       0.699536         197.462         67.1354         202.042 
       0.705665         195.513         65.8011         199.306 
       0.711789         194.254         64.5043          198.25 
       0.717957         192.983         63.2336         196.834 
        0.72409         190.923         62.0043           194.5 
       0.730186         188.179         60.8154         192.263 
       0.736317         186.271         59.6514         190.531 
       0.742472         184.431         58.5138         188.585 
       0.748622         183.098         57.4072         186.568 
        0.75476         180.913         56.3319         186.135 
       0.760888         179.025         55.2861         183.298 
       0.767043         178.372         54.2628         181.848 
       0.773185         176.833         53.2678         180.511 
       0.779291         173.608         52.3036         178.321 
       0.785407         173.016          51.362         176.739 
       0.791564         171.345         50.4377         175.212 
       0.797719         168.647         49.5368          173.96 
       0.803834         167.388         48.6636         172.754 
       0.809972         166.762         47.8084         171.182 
       0.816124          165.47         46.9721         169.683 
       0.822261         164.388          46.158         168.609 
       0.828378         162.508         45.3658         166.784 
       0.834502         161.343         44.5916         165.349 
       0.840667         159.562         43.8306         163.859 
       0.846816         158.286         43.0895         162.865 
       0.852925         157.119         42.3703         161.638 
       0.859047         156.059          41.666         160.382 
       0.865192         153.769         40.9756         158.691 
       0.871341         152.522         40.3004         157.547 
       0.877463         151.856         39.6435         156.727 
       0.883569         151.013          39.003         156.187 
       0.889708         149.002         38.3734         154.198 
       0.895864         148.052         37.7562         153.301 
       0.902008         146.761         37.1539         151.813 
       0.908149         146.054         36.5652         150.703 
       0.914301         144.115         35.9883         149.443 
       0.920448         143.364         35.4245         148.608 
       0.926574         141.953         34.8747         147.346 
       0.932687         141.932         34.3379         146.451 
       0.938823         139.833         33.8104         145.585 
       0.944975         139.294         33.2929          144.43 
       0.951105         138.135         32.7881         143.402 
       0.957225         137.483         32.2947         142.277 
       0.963368         135.144         31.8098         141.279 
       0.969511         134.716         31.3349         140.206 
       0.975621         133.467         30.8723          139.67 
       0.981748         133.235         30.4178         138.829 
       0.987916         131.957         29.9697         137.687 
        0.99406          130.99         29.5324         136.664 
        1.00019         130.353         29.1047          135.72 
        1.00632         129.073         28.6858          134.71 
        1.01246         128.221         28.2746         133.493 
        1.01859         127.889         27.8722         133.041 
        1.02471         126.107         27.4781         132.329 
        1.03085          125.21         27.0904         131.535 
        1.03698          124.49         26.7109          130.99 
        1.04314         123.197         26.3371         129.856 
        1.04929         123.075         25.9714         128.991 
        1.05541         122.042         25.6142         128.377 
        1.06154         121.156         25.2628         127.666 
        1.06769         120.787         24.9174         126.912 
        1.07382         119.508         24.5797         126.179 
        1.07993         118.685          24.249         125.337 
        1.08607          118.14          23.923         124.444 
        1.09222         117.384         23.6027         123.855 
        1.09836         116.447         23.2887         123.009 
        1.10449         115.321         22.9807         122.632 
        1.11063         114.629          22.678         121.618 
        1.11677         113.806         22.3808         120.758 
         1.1229         113.012         22.0895         120.108 
        1.12903         112.695         21.8032         119.399 
        1.13518         111.936         21.5217         118.821 
        1.14131         110.756         21.2453         117.911 
        1.14745         110.693          20.974         117.282 
        1.15359          109.49         20.7073         116.757 
        1.15973         108.924         20.4452         116.145 
        1.16584         108.161         20.1888         115.364 
        1.17197         107.653         19.9365         114.946 
        1.17811         106.562         19.6877         114.122 
        1.18424         106.359         19.4439         113.283 
        1.19038         106.058         19.2035         113.132 
        1.19652         105.044         18.9673         112.208 
        1.20267         104.307         18.7351         111.777 
        1.20881         103.804         18.5068         110.956 
        1.21495         102.723         18.2827         110.528 
        1.22108          102.43         18.0623         109.916 
         1.2272          101.48         17.8461         109.237 
        1.23334         101.109          17.633         108.951 
        1.23949         100.428         17.4228         108.179 
        1.24562         99.8218         17.2167         107.268 
        1.25174         99.4579         17.0142         106.765 
        1.25789         98.7717         16.8144         106.149 
        1.26402         97.5088         16.6181         105.879 
        1.27014         97.1851         16.4255         105.401 
        1.27628         96.8388         16.2353         105.104 
        1.28244         96.5016         16.0478         104.277 
        1.28858         95.7806         15.8635         103.741 
        1.29471         94.9661         15.6825         103.261 
        1.30084         94.8391         15.5045         102.486 
        1.30697          93.681          15.329         102.007 
        1.31312         93.2699         15.1559         101.447 
        1.31925         92.6684         14.9861         101.118 
        1.32537         92.3114          14.819         100.758 
        1.33151         91.7072         14.6539          100.15 
        1.33765         91.0411         14.4914         99.6982 
        1.34378         90.6063         14.3317         99.2297 
        1.34992           90.27         14.1743         98.6121 
        1.35606         89.8205         14.0189         98.0849 
         1.3622         88.9419         13.8662         97.7454 
        1.36833         88.4821          13.716         97.0576 
        1.37445         88.1682         13.5682         96.6937 
        1.38059         87.3747         13.4221         96.0043 
        1.38675         86.8228         13.2778         95.5808 
        1.39288         86.6407         13.1362         95.0874 
        1.39901         86.1166         12.9968         94.7764 
        1.40515         85.3533          12.859         94.4546 
         1.4113         85.1766         12.7233         94.0639 
        1.41742          84.465         12.5901         93.5727 
        1.42355         84.1376         12.4586         92.9744 
         1.4297         83.5802         12.3285         92.6596 
        1.43585         83.0288         12.2003         92.0607 
        1.44198         82.6904         12.0745         91.9114 
        1.44809          82.394         11.9506          91.338 
        1.45423         81.9505         11.8281         90.7666 
        1.46036         81.2497         11.7075         90.4052 
        1.46649         80.8305         11.5885          90.129 
        1.47263         80.1622         11.4711         89.7456 
        1.47877         79.7239         11.3554         89.1363 
        1.48491         79.3568          11.241         88.7286 
        1.49104         79.0683         11.1285         88.5461 
        1.49718         78.6121         11.0175          87.917 
        1.50333         78.1623         10.9078         87.4408 
        1.50947          77.601         10.7998         87.1496 
         1.5156          77.389         10.6935         86.7952 
        1.52172         76.9915         10.5886         86.3609 
        1.52787         76.3424         10.4848          85.951 
          1.534         75.9901         10.3826         85.6396 
        1.54013          75.613         10.2819         85.3161 
        1.54627          75.214         10.1823         84.9218 
        1.55241          74.882          10.084         84.4843 
        1.55855         74.3704         9.98716         84.0497 
        1.56467         73.9905         9.89184         83.7615 
         1.5708         73.3907         9.79751         83.3833 
        1.57695         73.3566         9.70425         82.9807 
        1.58308         72.9735         9.61243          82.687 
        1.58922         72.5156         9.52173          82.335 
        1.59535         72.0553         9.43223         81.9985 
         1.6015         71.8368         9.34376         81.5925 
        1.60764         71.2836         9.25646         81.2335 
        1.61376         70.9719         9.17052         81.0196 
        1.61989         70.5797          9.0856         80.6626 
        1.62604         70.1626         9.00157         80.0463 
        1.63218         69.9979         8.91865         79.6577 
        1.63831         69.3807         8.83697          79.552 
        1.64444         68.9594         8.75628         79.1791 
        1.65059         68.5356         8.67641         78.8059 
        1.65673         68.2242         8.59762          78.431 
        1.66285          68.009         8.52003         78.1257 
        1.66898         67.6612         8.44337         77.8813 
        1.67512         67.0139         8.36751         77.5033 
        1.68127         66.8741         8.29251         77.2084 
         1.6874         66.4118          8.2186         76.9209 
        1.69353         66.0898         8.14563         76.4823 
        1.69967         65.9359         8.07337         76.2059 
        1.70581         65.3983         8.00203         75.9227 
        1.71193         65.0028         7.93181         75.5759 
        1.71806         64.7878         7.86228         75.2919 
        1.72421         64.4262         7.79345         74.9884 
        1.73035         64.0949         7.72553         74.6691 
        1.73649         63.8339         7.65842         74.3357 
        1.74262          63.376         7.59217         73.9623 
        1.74876         63.1007         7.52666         73.6668 
        1.75489         62.7348         7.46205         73.4073 
        1.76101         62.4238         7.39822          73.118 
        1.76715         62.0175         7.33505         72.8273 
        1.77329         61.7551         7.27255         72.5001 
        1.77943         61.3987         7.21074         72.1911 
        1.78557         61.2372         7.14974         71.9441 
        1.79171         60.7093         7.08944         71.6476 
        1.79785         60.3469         7.02983         71.3146 
        1.80399          60.134         6.97091         71.0147 
        1.81012         59.8535         6.91274         70.7349 
        1.81625         59.5569         6.85527         70.4481 
        1.82239         59.1558         6.79836         70.1658 
        1.82853         58.9687         6.74213         69.9061 
        1.83466         58.7041         6.68658         69.6016 
        1.84078         58.2759         6.63172         69.3127 
        1.84692         58.0308         6.57739         69.1437 
        1.85306         57.7257          6.5236         68.8126 
         1.8592         57.5404         6.47049         68.4271 
        1.86533          57.112         6.41801         68.2254 
        1.87147          56.747         6.36605          67.961 
