# k  (h/Mpc)    Pcb(k)  (Mpc/h)^3    Pcb_linear(k) (Mpc/h)^3    Pcb_NL(k) (Mpc/h)^3   ShotnoiseSubtracted = false
     0.00783031         12291.3         12463.6         12347.4 
       0.013688         13994.4           13882         13783.1 
       0.019231         12871.9         12816.1         12731.3 
      0.0249154         10642.8         10789.6         10735.6 
      0.0312784         8445.63         8465.09         8446.96 
      0.0375637          6723.7         6664.73         6661.48 
      0.0433917         5528.34         5546.51         5541.93 
      0.0492413         4881.32         4862.21         4859.91 
      0.0555754         4368.61         4428.75         4424.59 
      0.0619321         4165.11         4115.65         4109.63 
       0.067871         3762.46         3800.83         3797.82 
      0.0738098         3384.12         3412.81         3396.37 
      0.0800417         2915.53         2949.07         2949.73 
      0.0862327         2505.95         2497.19         2527.86 
      0.0921407         2186.09         2133.54         2172.85 
      0.0982031         1896.93         1859.78         1920.13 
       0.104506         1759.32         1679.81          1751.3 
       0.110769         1642.13         1579.11         1629.89 
       0.116806         1565.73         1518.76         1558.26 
       0.122832         1506.34         1459.79         1496.37 
       0.129052          1395.4         1376.21         1408.33 
       0.135211         1292.45         1265.02          1302.4 
       0.141259         1194.29         1139.15         1190.22 
       0.147318         1085.48         1014.77         1084.61 
       0.153489         971.972         906.535         969.304 
       0.159709         902.202         825.188         895.851 
       0.165845         857.441         771.916         853.099 
       0.171974          813.59         738.473         809.732 
       0.178125         782.861         714.517         788.508 
       0.184229         753.413         690.451         756.804 
        0.19034         703.772         659.615         721.121 
       0.196428         680.486         620.635          678.37 
       0.202534         647.604         576.116           639.8 
       0.208729         602.311         530.675          594.87 
       0.214876         563.741         490.346         567.362 
       0.220989         537.173         457.909         538.596 
       0.227147         510.647         433.411         513.653 
        0.23329         489.629          415.49         497.565 
       0.239377         477.764         401.365         478.952 
       0.245482          446.24         387.925         458.177 
       0.251667         440.392         372.934         445.719 
       0.257832         422.492         355.835         425.553 
       0.263955         404.585         337.224         406.554 
       0.270079         385.477         318.324         389.411 
        0.27624         376.725         300.496         371.067 
       0.282372         361.302         284.968         357.972 
        0.28843         348.756         272.173         345.665 
       0.294538         331.288         261.516         334.607 
       0.300721         327.472         252.322         325.247 
        0.30691         312.167          243.81         317.182 
       0.313033         304.546         235.389         305.505 
       0.319153         292.783         226.579         295.795 
       0.325316         284.757         217.353         287.078 
        0.33145         273.987         208.084         275.313 
       0.337538         268.543          199.22         266.251 
       0.343633          258.84         190.998         260.908 
       0.349808         249.336         183.536         254.217 
       0.355968         245.462         176.934         248.167 
       0.362074         239.785         171.059         241.094 
       0.368217         232.572         165.586         233.068 
       0.374374         222.921         160.293         227.036 
       0.380519         220.004         155.067         220.584 
       0.386598         213.802         149.892         216.738 
       0.392688         210.357         144.745         209.802 
        0.39888         204.707         139.656         204.516 
       0.405048         198.848         134.825         200.476 
       0.411186         194.507         130.325          194.65 
       0.417313         190.267         126.168         189.497 
       0.423458         185.658         122.291          185.72 
       0.429607         181.692         118.647         181.853 
       0.435692         176.108         115.211          177.11 
       0.441815         174.161         111.857         174.653 
       0.447964         170.089         108.561         170.765 
       0.454126         163.551         105.334         165.513 
       0.460267         161.099         102.208         163.776 
       0.466387         158.963         99.1994         160.019 
        0.47254         154.786         96.3073         156.697 
       0.478662         154.072         93.5776         153.506 
       0.484765          148.54         90.9964         149.528 
       0.490885         146.206         88.5294         147.248 
       0.497035         143.744         86.1557         144.911 
       0.503198         140.065         83.8672         142.234 
       0.509342         138.131         81.6592         139.904 
       0.515458         135.853         79.5221         137.909 
       0.521598         132.921         77.4371         134.559 
       0.527764         131.201         75.4114         132.406 
       0.533884          129.16         73.4738         130.358 
           0.54         126.657         71.6124         127.751 
       0.546137         125.287         69.8158         126.116 
       0.552299         122.774         68.0806         123.301 
       0.558452          121.05         66.4134          121.16 
       0.564573         119.001         64.8142         119.902 
       0.570708         116.413         63.2649         118.169 
       0.576825         114.845         61.7682         115.634 
       0.582926         112.574         60.3192          113.97 
       0.589034         111.087         58.9108          112.77 
       0.595184         109.471         57.5365         110.366 
       0.601379         107.782         56.1974         109.164 
       0.607522         105.713         54.9142         107.027 
       0.613639         104.718         53.6793         106.073 
       0.619772         102.601         52.4815         104.537 
       0.625918          101.25          51.319          102.84 
       0.632068          99.913         50.1911         101.213 
       0.638161         98.8857         49.1065         100.347 
         0.6443          97.529         48.0456         98.8137 
       0.650464          96.384         47.0117         96.6775 
       0.656582         94.5812         46.0156         95.9324 
       0.662703         93.5327         45.0483         94.4279 
       0.668861         91.9456         44.1037         93.4199 
       0.675024         90.6214          43.186         92.0616 
       0.681124         89.8858         42.3041         90.7952 
       0.687237         88.1952         41.4453         89.6428 
       0.693381         86.8663         40.6066         88.3124 
       0.699536          86.193         39.7897         87.4254 
       0.705665         85.7428         38.9989         86.7009 
       0.711789         83.8635         38.2303         85.3386 
       0.717957         83.4907         37.4772         84.3275 
        0.72409         81.9828         36.7486         83.6503 
       0.730186         80.6742          36.044         82.7115 
       0.736317         80.1989         35.3541         81.4254 
       0.742472         79.3903         34.6799         80.5762 
       0.748622         78.4203          34.024         79.5411 
        0.75476         77.5403         33.3867         78.6057 
       0.760888         76.4779         32.7669         77.4804 
       0.767043         75.9681         32.1604         77.0083 
       0.773185         75.0211         31.5707         76.3649 
       0.779291         73.8303         30.9992         75.3627 
       0.785407         73.3909         30.4412         74.3545 
       0.791564         72.7577         29.8934         73.7259 
       0.797719         71.2089         29.3594         73.2171 
       0.803834         70.8589         28.8419         72.1571 
       0.809972         69.8485          28.335         71.4229 
       0.816124         69.4178         27.8393         70.8297 
       0.822261         68.7675         27.3569         70.0146 
       0.828378         68.2288         26.8874         69.1004 
       0.834502         67.6237         26.4285         68.4729 
       0.840667          66.611         25.9774         68.0848 
       0.846816         65.7697         25.5382         67.3984 
       0.852925         65.2753          25.112         66.7263 
       0.859047         64.3917         24.6946          66.017 
       0.865192         63.9237         24.2853         65.3979 
       0.871341         63.3554         23.8852         64.6959 
       0.877463         62.4226         23.4958         64.1417 
       0.883569         62.2061         23.1162         63.8017 
       0.889708         61.5636         22.7431         63.0809 
       0.895864         60.9988         22.3773         62.6317 
       0.902008         60.4437         22.0203         61.8825 
       0.908149         59.9604         21.6714         61.3963 
       0.914301         59.3028         21.3295         60.8885 
       0.920448         58.8704         20.9953         60.4036 
       0.926574         58.1998         20.6695         59.7903 
       0.932687         58.1084         20.3513         59.3363 
       0.938823         57.1472         20.0387         58.7029 
       0.944975         56.5375          19.732         58.2028 
       0.951105         56.1107         19.4328         57.7421 
       0.957225         55.5588         19.1404         57.2949 
       0.963368         55.1337          18.853         56.7442 
       0.969511         54.8792         18.5715         56.2818 
       0.975621         54.5208         18.2973         56.1352 
       0.981748         53.9102          18.028         55.6543 
       0.987916         53.3257         17.7624         55.2064 
        0.99406         52.9926         17.5032         54.6033 
        1.00019         52.5747         17.2497         54.0902 
        1.00632         52.0903         17.0015         53.6984 
        1.01246         51.7974         16.7578          53.216 
        1.01859         51.0845         16.5193         53.0392 
        1.02471         50.7961         16.2857          52.736 
        1.03085         50.3728         16.0559          52.187 
        1.03698         50.0497          15.831         51.7659 
        1.04314           49.61         15.6095         51.3271 
        1.04929         49.2088         15.3927         51.0655 
        1.05541         48.6671          15.181         50.8155 
        1.06154         48.6153         14.9727         50.3741 
        1.06769         48.1447          14.768         50.0054 
        1.07382         47.8728         14.5679         49.6719 
        1.07993         47.5229         14.3719         49.3234 
        1.08607         47.1267         14.1787         48.9683 
        1.09222         46.8826         13.9888         48.5659 
        1.09836         46.3871         13.8027         48.1932 
        1.10449         46.1812         13.6202         47.9209 
        1.11063         45.6867         13.4408         47.4217 
        1.11677         45.4113         13.2647         47.1019 
         1.1229         44.9785          13.092         46.9748 
        1.12903         44.4716         12.9223         46.5797 
        1.13518         44.5642         12.7554         46.2385 
        1.14131         44.2458         12.5916         45.9202 
        1.14745         43.7504         12.4308         45.6994 
        1.15359         43.5293         12.2728           45.34 
        1.15973         43.0695         12.1174         45.1552 
        1.16584         42.8233         11.9655          44.647 
        1.17197         42.5457         11.8159         44.5509 
        1.17811         42.3511         11.6685         44.1969 
        1.18424         41.9521          11.524         43.9603 
        1.19038          41.668         11.3815         43.6221 
        1.19652         41.4928         11.2415         43.3239 
        1.20267         41.0104         11.1039         43.1262 
        1.20881         40.8702         10.9686         42.8247 
        1.21495         40.4858         10.8358         42.5324 
        1.22108         40.4106         10.7052         42.3369 
         1.2272          39.846          10.577         42.0662 
        1.23334         39.6827         10.4507         41.8566 
        1.23949         39.6086         10.3261         41.4908 
        1.24562         39.1367          10.204         41.2057 
        1.25174         38.9971          10.084         41.0628 
        1.25789         38.8298         9.96552         40.7768 
        1.26402         38.4934          9.8492         40.5696 
        1.27014         38.1596         9.73502         40.4134 
        1.27628          37.913         9.62232         40.1025 
        1.28244         37.7077         9.51118         39.8078 
        1.28858         37.5472         9.40195         39.5834 
        1.29471         37.3819         9.29468         39.4352 
        1.30084         37.1351         9.18918         39.1135 
        1.30697         36.8225         9.08516         38.9361 
        1.31312         36.5795          8.9826         38.7658 
        1.31925         36.3766         8.88194         38.4835 
        1.32537         36.1853         8.78293         38.3369 
        1.33151         35.8744         8.68507         38.0738 
        1.33765         35.7191         8.58876         37.8579 
        1.34378         35.4949         8.49411         37.6813 
        1.34992         35.2773         8.40082         37.4474 
        1.35606         35.0786         8.30873         37.2539 
         1.3622         34.8129         8.21818         37.0731 
        1.36833         34.6138          8.1292          36.898 
        1.37445         34.4275         8.04159         36.7023 
        1.38059         34.1922         7.95501         36.5215 
        1.38675         33.9735         7.86949         36.2886 
        1.39288         33.8275         7.78557         36.0979 
        1.39901         33.6492         7.70291         35.9229 
        1.40515         33.3949         7.62128         35.8072 
         1.4113         33.2321         7.54085         35.6156 
        1.41742         33.1365          7.4619         35.3146 
        1.42355         32.8246         7.38393         35.1995 
         1.4297         32.7104         7.30683         34.9986 
        1.43585         32.5688         7.23087         34.8223 
        1.44198         32.2389         7.15629         34.6669 
        1.44809         32.1626         7.08289         34.4479 
        1.45423         31.9664         7.01025         34.2786 
        1.46036         31.8151         6.93877         34.1268 
        1.46649         31.6448         6.86826         33.9938 
        1.47263         31.4024         6.79867         33.8458 
        1.47877         31.2199         6.73008         33.6167 
        1.48491         31.2369         6.66233          33.456 
        1.49104         30.9086         6.59566         33.3365 
        1.49718         30.6126         6.52984         33.1773 
        1.50333         30.6478         6.46483         32.9786 
        1.50947         30.4547         6.40083         32.8128 
         1.5156         30.2334          6.3378         32.6711 
        1.52172         30.1291         6.27561          32.522 
        1.52787         30.0173         6.21414         32.3858 
          1.534         29.7942         6.15356         32.2193 
        1.54013         29.5997         6.09385         32.0408 
        1.54627         29.5308         6.03483         31.8864 
        1.55241         29.2171         5.97658         31.7447 
        1.55855         29.1545         5.91918         31.6054 
        1.56467         28.8644         5.86269         31.4892 
         1.5708         28.9252         5.80678          31.349 
        1.57695         28.7075         5.75151         31.2054 
        1.58308         28.5197         5.69708         31.0611 
        1.58922         28.4134         5.64333         30.8911 
        1.59535          28.315         5.59028         30.7656 
         1.6015         28.0816         5.53785            30.6 
        1.60764         27.8806         5.48611         30.4558 
        1.61376           27.79         5.43517         30.3796 
        1.61989         27.6211         5.38485         30.2275 
        1.62604         27.4856         5.33504         30.0731 
        1.63218         27.4856          5.2859         29.9407 
        1.63831         27.2161         5.23749         29.8212 
        1.64444         27.0994         5.18966         29.6935 
        1.65059         27.0101         5.14233         29.5467 
        1.65673         26.7991         5.09563         29.4144 
        1.66285         26.6653         5.04964         29.3167 
        1.66898         26.5556         5.00421         29.2191 
        1.67512         26.4018         4.95925         29.0504 
        1.68127         26.2505          4.9148         28.9031 
         1.6874         26.0901         4.87099          28.794 
        1.69353         26.0071         4.82774         28.6748 
        1.69967         25.8753         4.78492         28.5514 
        1.70581         25.8182         4.74263          28.454 
        1.71193         25.6711         4.70102          28.348 
        1.71806         25.4321         4.65981         28.1798 
        1.72421         25.3431         4.61902          28.067 
        1.73035         25.2215         4.57876         27.9874 
        1.73649         25.0405         4.53899          27.877 
        1.74262         24.9533         4.49972         27.7145 
        1.74876         24.8678         4.46089         27.5789 
        1.75489         24.7536          4.4226         27.4856 
        1.76101         24.6172         4.38477         27.3977 
        1.76715         24.5179         4.34733         27.2742 
        1.77329         24.4109         4.31029         27.1603 
        1.77943         24.2969         4.27366         27.0604 
        1.78557         24.1175          4.2375         26.9495 
        1.79171         24.0158         4.20176         26.8341 
        1.79785         23.9009         4.16643         26.7319 
        1.80399         23.8647         4.13151         26.6436 
        1.81012         23.6595         4.09704         26.5225 
        1.81625         23.6038         4.06297         26.3935 
        1.82239          23.462         4.02925         26.2975 
        1.82853         23.3689         3.99592         26.2246 
        1.83466         23.2147           3.963         26.1107 
        1.84078          23.037         3.93048         25.9731 
        1.84692         23.0037         3.89828         25.8871 
        1.85306         22.8615          3.8664         25.8029 
         1.8592         22.7532         3.83493         25.6986 
        1.86533         22.6525         3.80382         25.5974 
        1.87147         22.6142         3.77302         25.4923 
