# k  (h/Mpc)    Pcb(k)  (Mpc/h)^3    Pcb_linear(k) (Mpc/h)^3    Pcb_NL(k) (Mpc/h)^3   ShotnoiseSubtracted = false
     0.00783031         7804.34         7906.39         7833.63 
       0.013688         8855.89         8807.86         8748.54 
       0.019231         8160.95          8132.2         8082.89 
      0.0249154         6775.38         6846.62         6818.24 
      0.0312784          5368.4         5371.76         5367.27 
      0.0375637         4263.01         4229.37         4231.41 
      0.0433917         3514.19          3519.8         3521.37 
      0.0492413         3096.93         3085.57         3087.81 
      0.0555754         2782.67         2810.51         2810.01 
      0.0619321         2638.95         2611.83         2609.66 
       0.067871         2394.77         2412.05         2410.41 
      0.0738098         2152.05         2165.81         2158.91 
      0.0800417          1854.6         1871.52         1872.21 
      0.0862327         1588.32         1584.76         1598.35 
      0.0921407         1377.22         1353.98         1371.47 
      0.0982031         1194.55         1180.25         1206.53 
       0.104506         1101.96         1066.04         1096.77 
       0.110769          1029.9         1002.13         1023.74 
       0.116806         981.785         963.834         980.412 
       0.122832         946.457         926.413         941.765 
       0.129052         879.868         873.372          886.69 
       0.135211         812.918         802.804         818.628 
       0.141259         746.138         722.928         744.486 
       0.147318         674.567         643.997         673.966 
       0.153489         602.915         575.306         601.944 
       0.159709         556.468         523.682         553.576 
       0.165845         527.292         489.875         524.505 
       0.171974         499.285         468.651         498.571 
       0.178125         482.121         453.448         484.621 
       0.184229         465.166         438.175         466.284 
        0.19034         434.934         418.606         444.501 
       0.196428         418.622         393.869          417.57 
       0.202534         397.096         365.616         391.969 
       0.208729          367.31         336.778           363.9 
       0.214876         341.386         311.185         344.151 
       0.220989         324.357         290.599         325.006 
       0.227147         306.699         275.052         308.847 
        0.23329         294.081         263.679         298.367 
       0.239377         286.341         254.715         287.626 
       0.245482         268.985         246.186         275.439 
       0.251667         264.125         236.672         267.267 
       0.257832         253.597         225.821          255.05 
       0.263955         241.787          214.01         242.944 
       0.270079         229.911         202.016         231.721 
        0.27624         223.053         190.702         220.036 
       0.282372         213.597         180.847         211.464 
        0.28843         204.588         172.727         203.459 
       0.294538         195.131         165.964         196.538 
       0.300721         191.916          160.13         190.863 
        0.30691         183.087         154.728         185.408 
       0.313033         177.889         149.383         178.543 
       0.319153         169.906         143.792         172.631 
       0.325316         165.875         137.938         167.177 
        0.33145         158.831         132.055         160.244 
       0.337538         155.157         126.429         154.319 
       0.343633         149.105         121.212         150.199 
       0.349808         143.866         116.476         145.976 
       0.355968         140.823         112.286         142.255 
       0.362074         136.672         108.558         137.781 
       0.368217         132.305         105.085         133.014 
       0.374374         127.773         101.726         129.429 
       0.380519          125.13         98.4094         125.494 
       0.386598         121.453         95.1248         122.519 
       0.392688         118.905         91.8585         118.877 
        0.39888          115.55         88.6293         115.357 
       0.405048         112.122         85.5631         112.556 
       0.411186         109.318         82.7072         109.572 
       0.417313         106.473         80.0691         106.236 
       0.423458         103.727         77.6088         103.844 
       0.429607         101.085         75.2961         101.375 
       0.435692          97.665         73.1155         98.8037 
       0.441815          96.529         70.9873         97.0704 
       0.447964         94.4105         68.8955         94.4862 
       0.454126         90.0584         66.8477         91.6087 
       0.460267         88.8702         64.8636         90.3034 
       0.466387         87.2345         62.9543          87.903 
        0.47254         85.0734         61.1189         86.0367 
       0.478662         84.0982         59.3865         84.1838 
       0.484765         81.3396         57.7485         81.7655 
       0.490885         79.7355         56.1828         80.4943 
       0.497035         78.5093         54.6764         79.0917 
       0.503198          76.127         53.2241         77.2676 
       0.509342         74.5416         51.8229          75.875 
       0.515458         73.1578         50.4666         74.7209 
       0.521598         71.8481         49.1434         72.5796 
       0.527764         70.6301         47.8579         70.9281 
       0.533884         69.4579         46.6282         69.7613 
           0.54         67.7464         45.4469         68.4154 
       0.546137         66.8778         44.3068         67.3744 
       0.552299         65.6989         43.2056         65.6606 
       0.558452         64.0838         42.1475         64.3399 
       0.564573         62.8799         41.1327          63.544 
       0.570708          61.781         40.1494         62.4511 
       0.576825         60.8116         39.1996         61.1591 
       0.582926         59.3978           38.28         60.0592 
       0.589034         58.1901         37.3862          59.352 
       0.595184         57.2972          36.514         58.0953 
       0.601379         56.3277         35.6642         57.3059 
       0.607522         55.0139         34.8498         55.9452 
       0.613639         54.6529         34.0662         55.2611 
       0.619772         53.4484          33.306          54.302 
       0.625918         52.6409         32.5682         53.5429 
       0.632068         51.9808         31.8525         52.5785 
       0.638161         51.1766         31.1642         51.8507 
         0.6443         50.3992         30.4908         50.9043 
       0.650464         49.6126         29.8347         49.9045 
       0.656582         48.8206         29.2026         49.3951 
       0.662703         47.8458         28.5887         48.4707 
       0.668861         47.1799         27.9893         47.8898 
       0.675024         46.4797         27.4069         47.0175 
       0.681124         45.7874         26.8472         46.3192 
       0.687237         44.8359         26.3022         45.6551 
       0.693381         44.3518         25.7699         44.8876 
       0.699536         43.6553         25.2515         44.5076 
       0.705665         43.6272         24.7496         43.9629 
       0.711789         42.4116         24.2619         43.0073 
       0.717957         41.9339         23.7839         42.5868 
        0.72409         41.2982         23.3216          42.123 
       0.730186          40.592         22.8744         41.5387 
       0.736317         40.4043         22.4365         40.8517 
       0.742472         39.7724         22.0087         40.3415 
       0.748622         39.2172         21.5925         39.7699 
        0.75476         38.7303          21.188         39.2426 
       0.760888         38.0842         20.7946         38.6925 
       0.767043         37.6308         20.4098         38.3988 
       0.773185         37.0889         20.0355         37.9326 
       0.779291         36.7884         19.6729         37.4393 
       0.785407         36.4483         19.3187         36.8434 
       0.791564         35.9049          18.971         36.4098 
       0.797719         35.1573         18.6322         36.1444 
       0.803834         34.9934         18.3037         35.5601 
       0.809972         34.3088         17.9821         35.1197 
       0.816124         33.9573         17.6675         34.7651 
       0.822261         33.6213         17.3613         34.2842 
       0.828378         33.4032         17.0634         33.7891 
       0.834502         32.9242         16.7722         33.5319 
       0.840667         32.5221         16.4859         33.2095 
       0.846816         31.9958         16.2072         32.8194 
       0.852925         31.7325         15.9366         32.4756 
       0.859047         31.2633         15.6718         32.0461 
       0.865192         30.9556         15.4121         31.7133 
       0.871341         30.7796         15.1581         31.3729 
       0.877463         30.1675          14.911         31.0378 
       0.883569         29.8817         14.6701         30.7952 
       0.889708          29.638         14.4333         30.4116 
       0.895864         29.2837         14.2012          30.068 
       0.902008         28.9858         13.9746          29.721 
       0.908149         28.6978         13.7532         29.5185 
       0.914301         28.4787         13.5362         29.2763 
       0.920448         28.1566         13.3241         28.8746 
       0.926574         27.7646         13.1174         28.5619 
       0.932687         27.5438         12.9154         28.3024 
       0.938823         27.1118          12.717         27.9341 
       0.944975         26.9461         12.5224          27.702 
       0.951105         26.6242         12.3325         27.4668 
       0.957225         26.2951         12.1469         27.1688 
       0.963368         26.2842         11.9645         26.8796 
       0.969511          25.928         11.7859         26.6006 
       0.975621         25.7415         11.6119         26.4398 
       0.981748         25.3605          11.441         26.1915 
       0.987916         25.1019         11.2725          25.966 
        0.99406         24.9547          11.108         25.6632 
        1.00019          24.644         10.9471         25.4074 
        1.00632         24.4606         10.7895         25.1894 
        1.01246          24.328         10.6349         24.9602 
        1.01859         23.9139         10.4835          24.821 
        1.02471         23.7977         10.3353         24.5954 
        1.03085         23.6047         10.1894          24.314 
        1.03698         23.2569         10.0467         24.0848 
        1.04314         23.1096         9.90614         23.8341 
        1.04929         22.8748         9.76859         23.6976 
        1.05541         22.6176         9.63421         23.5843 
        1.06154         22.5436         9.50203         23.3043 
        1.06769         22.2822         9.37215         23.0776 
        1.07382         22.1393         9.24512         22.9141 
        1.07993          21.971         9.12073         22.7005 
        1.08607         21.7041         8.99813         22.5423 
        1.09222         21.5651         8.87766         22.3815 
        1.09836         21.3574         8.75953         22.1823 
        1.10449         21.1764          8.6437         21.9881 
        1.11063         20.8881         8.52984         21.7827 
        1.11677         20.7841         8.41807         21.5861 
         1.1229         20.6489          8.3085         21.4581 
        1.12903         20.3837         8.20079         21.2947 
        1.13518          20.336         8.09491         21.1052 
        1.14131         20.1894         7.99096         20.9345 
        1.14745         19.8971          7.8889         20.8104 
        1.15359         19.8616         7.78861         20.5904 
        1.15973         19.5941         7.69002          20.484 
        1.16584         19.4383         7.59359         20.2926 
        1.17197         19.3679         7.49867         20.1965 
        1.17811         19.1564          7.4051         19.9781 
        1.18424         18.9987         7.31339         19.8384 
        1.19038         18.8985         7.22298         19.7469 
        1.19652         18.8077         7.13413         19.5351 
        1.20267         18.6384         7.04679         19.4255 
        1.20881         18.4434         6.96092          19.294 
        1.21495         18.3066         6.87663         19.1744 
        1.22108         18.1714         6.79375         19.0078 
         1.2272         17.9703         6.71243         18.9054 
        1.23334         17.9124         6.63226         18.7544 
        1.23949         17.8082         6.55322         18.5714 
        1.24562         17.6176         6.47569         18.4748 
        1.25174         17.5363         6.39953         18.3596 
        1.25789         17.3772         6.32436         18.2306 
        1.26402         17.2637         6.25054         18.0703 
        1.27014         17.0719         6.17808         17.9795 
        1.27628         16.9771         6.10655         17.8439 
        1.28244         16.8759         6.03603         17.7645 
        1.28858           16.78          5.9667          17.616 
        1.29471         16.6762         5.89863         17.5134 
        1.30084         16.5563         5.83167          17.413 
        1.30697         16.4075         5.76566         17.2525 
        1.31312         16.2628         5.70057         17.1494 
        1.31925         16.1637         5.63669         17.0487 
        1.32537         16.0712         5.57386         16.9592 
        1.33151         15.9522         5.51176         16.8452 
        1.33765         15.8751         5.45064          16.723 
        1.34378         15.7402         5.39057          16.637 
        1.34992         15.6016         5.33136         16.5414 
        1.35606         15.5318         5.27292         16.4215 
         1.3622         15.4379         5.21546         16.3247 
        1.36833         15.2819         5.15899         16.2467 
        1.37445         15.2624         5.10339         16.1208 
        1.38059         15.1155         5.04844         16.0245 
        1.38675           14.94         4.99417         15.9448 
        1.39288         14.9235         4.94091         15.8293 
        1.39901         14.7995         4.88846         15.7314 
        1.40515         14.7143         4.83665         15.6295 
         1.4113         14.6147         4.78561          15.525 
        1.41742         14.4806          4.7355         15.4463 
        1.42355         14.4449         4.68602          15.379 
         1.4297         14.3575         4.63709         15.2514 
        1.43585          14.295         4.58889         15.1848 
        1.44198         14.1406         4.54155          15.099 
        1.44809         14.0535         4.49497          15.022 
        1.45423         13.9784         4.44888         14.8968 
        1.46036         13.9202         4.40351         14.8157 
        1.46649         13.8225         4.35876         14.7629 
        1.47263         13.7039          4.3146         14.6942 
        1.47877         13.6604         4.27107         14.6006 
        1.48491         13.6183         4.22807          14.518 
        1.49104         13.5012         4.18576         14.4254 
        1.49718         13.3796           4.144         14.3589 
        1.50333         13.3338         4.10274         14.2741 
        1.50947         13.2676         4.06212         14.1986 
         1.5156         13.1815         4.02212         14.1305 
        1.52172          13.082         3.98265          14.043 
        1.52787         13.0232         3.94364         13.9546 
          1.534         12.9341          3.9052         13.8839 
        1.54013         12.8308         3.86731         13.8045 
        1.54627          12.775         3.82985         13.7214 
        1.55241         12.6786         3.79288         13.6513 
        1.55855         12.6178         3.75645         13.5894 
        1.56467         12.5257          3.7206         13.5338 
         1.5708         12.5104         3.68512         13.4515 
        1.57695         12.3812         3.65005          13.369 
        1.58308         12.3537         3.61551          13.316 
        1.58922         12.2823         3.58139         13.2535 
        1.59535         12.1882         3.54773          13.168 
         1.6015         12.1207         3.51445         13.1031 
        1.60764         12.0783         3.48162         13.0346 
        1.61376         11.9498         3.44929         12.9588 
        1.61989         11.8978         3.41735         12.9321 
        1.62604         11.8742         3.38575         12.8684 
        1.63218         11.8035         3.35456          12.798 
        1.63831         11.7407         3.32384         12.7533 
        1.64444         11.6532         3.29349         12.6894 
        1.65059         11.5872         3.26345         12.6045 
        1.65673         11.5109         3.23381         12.5413 
        1.66285         11.4852         3.20463         12.4937 
        1.66898         11.4319         3.17579           12.43 
        1.67512         11.3669         3.14726         12.3512 
        1.68127         11.3064         3.11905         12.3052 
         1.6874         11.2238         3.09125         12.2488 
        1.69353         11.1633          3.0638         12.1399 
        1.69967         11.0976         3.03663         12.1075 
        1.70581         11.0387         3.00979         12.0719 
        1.71193         11.0045         2.98338         12.0108 
        1.71806         10.9222         2.95723         11.9802 
        1.72421         10.8694         2.93134         11.9177 
        1.73035         10.7944         2.90579         11.8618 
        1.73649         10.7789         2.88055         11.8201 
        1.74262           10.72         2.85563         11.7339 
        1.74876         10.6723         2.83099         11.6666 
        1.75489         10.6029         2.80669           11.63 
        1.76101         10.5337         2.78268         11.5933 
        1.76715          10.496         2.75892          11.529 
        1.77329         10.4484         2.73541         11.4596 
        1.77943         10.3806         2.71217          11.402 
        1.78557         10.3483         2.68922         11.3551 
        1.79171         10.2855         2.66654         11.3123 
        1.79785         10.2037         2.64412         11.2692 
        1.80399          10.178         2.62196         11.2232 
        1.81012         10.1548         2.60008         11.1734 
        1.81625         10.0935         2.57846         11.1302 
        1.82239         10.0505         2.55706         11.0903 
        1.82853         9.96814         2.53591         11.0402 
        1.83466         9.90904         2.51502          10.991 
        1.84078         9.86154         2.49438          10.939 
        1.84692         9.84264         2.47395          10.874 
        1.85306         9.76788         2.45371         10.8357 
         1.8592         9.73088         2.43374         10.8087 
        1.86533         9.68896           2.414         10.7531 
        1.87147         9.64228         2.39445         10.6953 
