# k  (h/Mpc)    P(k)  (Mpc/h)^3    P_linear(k)  (Mpc/h)^3     P_NL(k)  ShotnoiseSubtracted = false
     0.00783031         442.782         447.454         443.272 
       0.013688         497.409         498.934         495.841 
       0.019231         460.808          460.82         458.421 
      0.0249154         387.109         388.041         386.914 
      0.0312784         305.152         304.486         304.798 
      0.0375637         240.784         239.749         240.218 
      0.0433917          199.97         199.534         199.992 
      0.0492413         175.343         174.922         175.316 
      0.0555754         159.142         159.333         159.421 
      0.0619321         148.431         148.071         147.994 
       0.067871         136.479         136.747         136.574 
      0.0738098         122.515         122.788         122.618 
      0.0800417         105.827         106.105         106.063 
      0.0862327         89.8648         89.8474         89.9473 
      0.0921407         76.9435         76.7642         76.9301 
      0.0982031          66.963         66.9144         67.1284 
       0.104506         60.7411         60.4395         60.6382 
       0.110769         56.9816         56.8167         56.9407 
       0.116806         54.5921         54.6453         54.6871 
       0.122832         52.5582         52.5238         52.5288 
       0.129052         49.3935         49.5167         49.5004 
       0.135211         45.4018         45.5158         45.5212 
       0.141259         41.0276         40.9873          41.039 
       0.147318         36.6617         36.5122         36.6232 
       0.153489         32.7299         32.6178         32.7309 
       0.159709         29.8098          29.691         29.8194 
       0.165845         27.9896         27.7742         27.9119 
       0.171974         26.6174         26.5709         26.6759 
       0.178125         25.7709          25.709         25.8069 
       0.184229         24.9209         24.8431          24.921 
        0.19034         23.6815         23.7336         23.7994 
       0.196428         22.3628         22.3311         22.3881 
       0.202534         20.8818         20.7292         20.8023 
       0.208729         19.1846         19.0943         19.1827 
       0.214876         17.6931         17.6432         17.7584 
       0.220989         16.6118         16.4761         16.5981 
       0.227147         15.6515         15.5946          15.709 
        0.23329              15         14.9497         15.0652 
       0.239377         14.4947         14.4416         14.5487 
       0.245482         13.9646          13.958         14.0451 
       0.251667         13.4814         13.4186         13.5111 
       0.257832         12.8453         12.8034         12.8911 
       0.263955           12.19         12.1337         12.2203 
       0.270079         11.5235         11.4537         11.5438 
        0.27624         10.9246         10.8122          10.902 
       0.282372         10.3699         10.2534         10.3535 
        0.28843         9.87397         9.79312         9.89416 
       0.294538         9.48154         9.40969         9.50652 
       0.300721         9.18206         9.07886         9.17594 
        0.30691         8.83808         8.77258         8.86809 
       0.313033         8.52945         8.46963         8.55809 
       0.319153          8.1586         8.15258         8.24113 
       0.325316         7.90867         7.82066         7.91196 
        0.33145         7.56086         7.48714         7.57501 
       0.337538         7.24414         7.16818         7.25457 
       0.343633         6.92877         6.87235          6.9579 
       0.349808         6.67734         6.60387         6.69427 
       0.355968         6.44644          6.3663         6.46491 
       0.362074         6.22095         6.15492         6.24574 
       0.368217         6.02069         5.95801         6.03975 
       0.374374         5.81175         5.76754         5.85273 
       0.380519         5.64074         5.57952         5.65972 
       0.386598         5.46111         5.39331         5.47494 
       0.392688         5.29126         5.20811         5.28941 
        0.39888         5.09502         5.02502          5.1077 
       0.405048         4.92617         4.85119         4.92716 
       0.411186         4.76519         4.68924         4.77205 
       0.417313          4.6049         4.53969         4.62044 
       0.423458         4.47285         4.40019         4.48091 
       0.429607         4.32826         4.26908         4.34589 
       0.435692         4.20429         4.14543         4.22345 
       0.441815         4.08296         4.02479         4.10547 
       0.447964          3.9795         3.90617         3.98228 
       0.454126           3.844         3.79008         3.86527 
       0.460267         3.73526         3.67757         3.75563 
       0.466387         3.61618         3.56933         3.64243 
        0.47254         3.51873         3.46525         3.53889 
       0.478662         3.42782         3.36705         3.43842 
       0.484765         3.32233         3.27417         3.34462 
       0.490885         3.23889         3.18541          3.2614 
       0.497035         3.16878             3.1          3.1771 
       0.503198         3.07605         3.01765         3.08742 
       0.509342         3.00102         2.93821         3.00873 
       0.515458         2.91484         2.86131         2.93472 
       0.521598         2.84124         2.78629         2.85321 
       0.527764         2.76002          2.7134         2.77989 
       0.533884         2.70491         2.64369         2.70901 
           0.54          2.6327         2.57671          2.6409 
       0.546137         2.56962         2.51207         2.57855 
       0.552299         2.50672         2.44963         2.50973 
       0.558452         2.43743         2.38965         2.45122 
       0.564573         2.38699         2.33211         2.39843 
       0.570708         2.32923         2.27636         2.34027 
       0.576825          2.2704         2.22251         2.28424 
       0.582926         2.22428         2.17037         2.23302 
       0.589034         2.15878         2.11969         2.18506 
       0.595184         2.11353         2.07024         2.12694 
       0.601379         2.06419         2.02206         2.08547 
       0.607522         2.02475         1.97589           2.037 
       0.613639         1.98481         1.93146         1.99085 
       0.619772         1.93073         1.88836         1.95005 
       0.625918         1.89452         1.84653         1.90477 
       0.632068         1.85826         1.80595         1.86231 
       0.638161         1.81178         1.76692         1.82388 
         0.6443         1.77342         1.72875         1.78357 
       0.650464         1.72993         1.69155         1.74953 
       0.656582         1.70117         1.65571         1.71203 
       0.662703         1.66494          1.6209         1.67543 
       0.668861         1.63591         1.58691         1.64328 
       0.675024         1.59785         1.55389         1.60891 
       0.681124         1.56269         1.52216         1.57533 
       0.687237          1.5353         1.49126         1.54168 
       0.693381         1.50495         1.46108         1.51006 
       0.699536         1.46666         1.43169         1.48144 
       0.705665         1.43992         1.40324         1.45695 
       0.711789         1.41558         1.37558         1.42723 
       0.717957         1.38405         1.34848         1.39779 
        0.72409         1.35799         1.32227          1.3724 
       0.730186         1.33221         1.29691         1.34518 
       0.736317         1.31442         1.27209          1.3188 
       0.742472         1.28829         1.24783         1.29709 
       0.748622         1.26129         1.22423         1.27423 
        0.75476         1.23456          1.2013         1.24844 
       0.760888         1.21194           1.179          1.2259 
       0.767043         1.19684         1.15718         1.20462 
       0.773185         1.16974         1.13596         1.18391 
       0.779291         1.15085          1.1154         1.16265 
       0.785407         1.12952         1.09532          1.1412 
       0.791564         1.11157         1.07561         1.12138 
       0.797719         1.09332         1.05639         1.10013 
       0.803834         1.07567         1.03777         1.08191 
       0.809972         1.05545         1.01954         1.06541 
       0.816124         1.03478          1.0017         1.04513 
       0.822261         1.01493        0.984339         1.02667 
       0.828378         1.00052        0.967445         1.01017 
       0.834502        0.986784        0.950935        0.992255 
       0.840667        0.964998        0.934705        0.976656 
       0.846816        0.949393        0.918901        0.962747 
       0.852925        0.938116        0.903564        0.945328 
       0.859047        0.921805        0.888546        0.932035 
       0.865192        0.904711        0.873821        0.915522 
       0.871341        0.891041        0.859422        0.900475 
       0.877463        0.878844        0.845414        0.885262 
       0.883569        0.862129        0.831755        0.872745 
       0.889708        0.849099         0.81833        0.858974 
       0.895864        0.834524        0.805168         0.84466 
       0.902008        0.821137        0.792324        0.831826 
       0.908149        0.808994        0.779769        0.818803 
       0.914301         0.79293        0.767467        0.805941 
       0.920448        0.781855        0.755442        0.793409 
       0.926574        0.769652        0.743719        0.782271 
       0.932687        0.757403         0.73227        0.768575 
       0.938823        0.748921        0.721022        0.759538 
       0.944975         0.73757        0.709985        0.746177 
       0.951105        0.726535         0.69922        0.735346 
       0.957225        0.718253        0.688698        0.725384 
       0.963368        0.706277        0.678357        0.714094 
       0.969511        0.694273         0.66823        0.704118 
       0.975621        0.683317        0.658364        0.692396 
       0.981748        0.676326        0.648674        0.682325 
       0.987916        0.664887        0.639118        0.674534 
        0.99406        0.654286        0.629791        0.665546 
        1.00019        0.647184         0.62067         0.65577 
        1.00632        0.635405        0.611738        0.645424 
        1.01246        0.626777        0.602969        0.636341 
        1.01859        0.619124        0.594387        0.628471 
        1.02471        0.609858        0.585983        0.619491 
        1.03085        0.602982        0.577714        0.609825 
        1.03698         0.59322        0.569622        0.601349 
        1.04314         0.58568        0.561651        0.593391 
        1.04929        0.576933        0.553852        0.585658 
        1.05541        0.570333        0.546233        0.578439 
        1.06154        0.561275         0.53874        0.570588 
        1.06769        0.553732        0.531375        0.563135 
        1.07382        0.546398        0.524173        0.555336 
        1.07993        0.538024        0.517121        0.547888 
        1.08607        0.533516         0.51017        0.541544 
        1.09222        0.524904        0.503339        0.533381 
        1.09836        0.519942        0.496642        0.526958 
        1.10449        0.513259        0.490074        0.520393 
        1.11063        0.504184        0.483619        0.512788 
        1.11677        0.497384        0.477282        0.507131 
         1.1229        0.491684         0.47107         0.50059 
        1.12903        0.485133        0.464963         0.49411 
        1.13518         0.47987         0.45896        0.487744 
        1.14131        0.472817        0.453066        0.481829 
        1.14745        0.464507        0.447279        0.474852 
        1.15359        0.460527        0.441593        0.470071 
        1.15973        0.453258        0.436003        0.464404 
        1.16584        0.450481        0.430536        0.457858 
        1.17197        0.443868        0.425155        0.453018 
        1.17811        0.439396        0.419849        0.447712 
        1.18424        0.434546         0.41465        0.441555 
        1.19038        0.427597        0.409524         0.43629 
        1.19652        0.421891        0.404486        0.431623 
        1.20267        0.418531        0.399534        0.425511 
        1.20881        0.412272        0.394666        0.420921 
        1.21495        0.408601        0.389886        0.416993 
        1.22108        0.403142        0.385187        0.411054 
         1.2272        0.399227        0.380577        0.405979 
        1.23334         0.39342        0.376032        0.401612 
        1.23949         0.38915         0.37155        0.397301 
        1.24562        0.384751        0.367154        0.392674 
        1.25174        0.380687        0.362836         0.38785 
        1.25789        0.376486        0.358574        0.383531 
        1.26402        0.370742        0.354389        0.379196 
        1.27014        0.366731        0.350281        0.374589 
        1.27628        0.363907        0.346225        0.370097 
        1.28244        0.357913        0.342226        0.366172 
        1.28858        0.354598        0.338296        0.361781 
        1.29471        0.351362        0.334436        0.357972 
        1.30084        0.346504         0.33064        0.354755 
        1.30697        0.342555        0.326898        0.350547 
        1.31312        0.337679        0.323207        0.346437 
        1.31925        0.334774        0.319585        0.343064 
        1.32537        0.331558        0.316023        0.339388 
        1.33151        0.328612        0.312502        0.335682 
        1.33765        0.324592        0.309037        0.332033 
        1.34378        0.320086        0.305631        0.328391 
        1.34992        0.317271        0.302274        0.324918 
        1.35606        0.313585         0.29896        0.321079 
         1.3622        0.310448        0.295702        0.317838 
        1.36833         0.30681        0.292501        0.314844 
        1.37445        0.302666        0.289349        0.311611 
        1.38059        0.299878        0.286233         0.30816 
        1.38675        0.298305        0.283156        0.304612 
        1.39288        0.294248        0.280136        0.301483 
        1.39901        0.291118        0.277162        0.298494 
        1.40515        0.288295        0.274225        0.295293 
         1.4113        0.284585        0.271331        0.292635 
        1.41742        0.281858         0.26849        0.290169 
        1.42355         0.28001        0.265685        0.286013 
         1.4297        0.275984        0.262911        0.284148 
        1.43585        0.273333        0.260178        0.280804 
        1.44198        0.271686        0.257494        0.277308 
        1.44809        0.267973        0.254853        0.275566 
        1.45423        0.265435         0.25224        0.271958 
        1.46036        0.262665        0.249667         0.26954 
        1.46649        0.260344         0.24713        0.267372 
        1.47263        0.257341        0.244626        0.264471 
        1.47877        0.254495        0.242158        0.261962 
        1.48491        0.252242        0.239721        0.259694 
        1.49104         0.24916        0.237322        0.256359 
        1.49718        0.247007        0.234954        0.254725 
        1.50333        0.244724        0.232614        0.251597 
        1.50947        0.242305        0.230312        0.248995 
         1.5156        0.239721        0.228044        0.247143 
        1.52172        0.237483        0.225806         0.24448 
        1.52787        0.235064        0.223594        0.242067 
          1.534        0.232813        0.221414        0.240123 
        1.54013        0.230252        0.219266        0.237774 
        1.54627        0.228435        0.217142        0.235332 
        1.55241        0.225918        0.215046        0.233131 
        1.55855        0.223733        0.212981        0.230912 
        1.56467        0.222512        0.210948        0.228931 
         1.5708        0.219678        0.208937        0.226579 
        1.57695         0.21794        0.206948        0.224286 
        1.58308         0.21557         0.20499        0.222554 
        1.58922         0.21373        0.203056        0.220652 
        1.59535        0.211561        0.201147        0.218476 
         1.6015         0.20958         0.19926        0.216231 
        1.60764        0.207832        0.197399        0.214518 
        1.61376        0.205364        0.195566        0.213057 
        1.61989        0.203905        0.193755        0.210966 
        1.62604        0.202001        0.191963        0.208931 
        1.63218        0.200326        0.190195         0.20715 
        1.63831        0.198667        0.188453        0.205291 
        1.64444        0.196534        0.186732        0.203211 
        1.65059        0.194734        0.185029         0.20148 
        1.65673        0.193063        0.183349        0.199855 
        1.66285         0.19152        0.181694        0.198093 
        1.66898         0.19002        0.180059        0.196207 
        1.67512        0.187636        0.178441        0.194494 
        1.68127        0.185964        0.176842        0.192854 
         1.6874        0.184949        0.175266        0.191346 
        1.69353        0.182839         0.17371        0.189894 
        1.69967        0.181409        0.172169        0.187884 
        1.70581        0.179553        0.170647        0.186133 
        1.71193         0.17819         0.16915        0.184726 
        1.71806        0.176461        0.167667        0.183036 
        1.72421        0.175146        0.166199        0.181684 
        1.73035        0.173321        0.164751        0.180135 
        1.73649         0.17225         0.16332        0.178261 
        1.74262        0.170581        0.161907        0.176863 
        1.74876        0.168938         0.16051        0.175683 
        1.75489         0.16768        0.159132        0.174241 
        1.76101        0.166026        0.157771        0.172582 
        1.76715        0.164668        0.156424        0.171331 
        1.77329        0.163259        0.155091        0.170024 
        1.77943        0.161621        0.153773        0.168487 
        1.78557        0.160652        0.152472        0.166933 
        1.79171        0.159343        0.151186        0.165435 
        1.79785         0.15787        0.149915        0.164153 
        1.80399        0.156591        0.148658        0.163029 
        1.81012        0.155294        0.147418        0.161405 
        1.81625        0.154007        0.146192        0.160005 
        1.82239        0.152894        0.144979        0.159109 
        1.82853        0.151199        0.143779         0.15796 
        1.83466        0.150084        0.142595        0.156527 
        1.84078        0.148791        0.141425        0.155136 
        1.84692        0.147567        0.140266        0.154067 
        1.85306        0.146817        0.139119        0.152672 
         1.8592        0.145252        0.137987        0.151212 
        1.86533        0.144327        0.136867        0.150234 
        1.87147        0.142975        0.135759        0.149137 
        1.87761        0.141963        0.134663        0.148047 
