# k  (h/Mpc)    Pcb(k)  (Mpc/h)^3    Pcb_linear(k) (Mpc/h)^3    Pcb_NL(k) (Mpc/h)^3   ShotnoiseSubtracted = false
     0.00783031         4745.18         4803.54         4759.58 
       0.013688         5368.76         5352.27         5317.63 
       0.019231         4955.27         4942.08         4913.95 
      0.0249154         4128.28         4160.98          4146.1 
      0.0312784          3266.4         3264.74         3264.82 
      0.0375637         2588.55         2570.48         2573.37 
      0.0433917         2138.55         2139.25         2141.99 
      0.0492413         1881.63         1875.35         1878.13 
      0.0555754          1696.1         1708.18         1708.62 
      0.0619321         1600.85         1587.43         1586.62 
       0.067871         1458.42         1466.01         1464.91 
      0.0738098         1309.84         1316.36          1313.4 
      0.0800417         1129.29         1137.49          1137.8 
      0.0862327         964.389         963.201         968.746 
      0.0921407         832.359          822.94         830.179 
      0.0982031         722.168         717.345         727.958 
       0.104506         662.925          647.93         660.098 
       0.110769         620.266         609.092         617.565 
       0.116806         591.659         585.813         592.123 
       0.122832         570.804         563.069         568.826 
       0.129052         532.349         530.831         535.738 
       0.135211         490.811         487.941         493.911 
       0.141259          448.08         439.393         447.607 
       0.147318          403.48         391.419         403.047 
       0.153489          360.25         349.669         359.971 
       0.159709         330.857         318.292         329.823 
       0.165845         312.783         297.744         311.139 
       0.171974         295.958         284.844         296.265 
       0.178125         286.378         275.604         287.492 
       0.184229         276.703         266.322         277.076 
        0.19034         259.622         254.428         264.277 
       0.196428         248.512         239.392         248.238 
       0.202534         234.823         222.221         232.122 
       0.208729         216.369         204.693         215.098 
       0.214876         200.205         189.137         201.886 
       0.220989         189.688         176.626         189.897 
       0.227147         178.721         167.176         180.073 
        0.23329         171.352         160.264         173.528 
       0.239377         166.459         154.815         167.451 
       0.245482         157.564         149.631         160.685 
       0.251667         153.938         143.849         155.488 
       0.257832         147.568         137.253         148.367 
       0.263955         140.292         130.075         141.023 
       0.270079         133.208         122.785         134.006 
        0.27624         128.293         115.908         126.954 
       0.282372         122.556         109.919         121.603 
        0.28843         116.899         104.983         116.712 
       0.294538         111.825         100.873         112.476 
       0.300721         109.426         97.3265         109.027 
        0.30691         104.624         94.0432          105.67 
       0.313033         101.274         90.7948         101.794 
       0.319153         96.3999         87.3966         98.3093 
       0.325316         94.3736         83.8382         94.9628 
        0.33145         90.1015         80.2629         90.9853 
       0.337538         87.5272         76.8436         87.4009 
       0.343633         83.9288         73.6724         84.5227 
       0.349808         81.0592         70.7941         81.9223 
       0.355968         78.9166         68.2473         79.7107 
       0.362074         76.3243         65.9813         77.0426 
       0.368217         73.7833         63.8702         74.3205 
       0.374374         71.4743         61.8287         72.2818 
       0.380519         69.6651         59.8131         69.9663 
       0.386598         67.5397         57.8167          68.027 
       0.392688         65.9345         55.8315         66.0203 
        0.39888         63.8386         53.8687         63.9187 
       0.405048         61.9701         52.0051         61.9928 
       0.411186         60.2783         50.2693         60.4601 
       0.417313         58.4091         48.6659         58.5196 
       0.423458         56.7747         47.1705         57.0752 
       0.429607         55.2215         45.7649          55.521 
       0.435692         53.3514         44.4395         54.1175 
       0.441815         52.5112          43.146         52.9859 
       0.447964         51.3944         41.8746          51.426 
       0.454126         49.0387         40.6299         49.9095 
       0.460267         48.2699          39.424         48.9827 
       0.466387         46.9729         38.2635         47.5475 
        0.47254         45.9758          37.148         46.4893 
       0.478662         45.1952          36.095          45.366 
       0.484765         43.7309         35.0994         44.0677 
       0.490885         42.7412         34.1479         43.3224 
       0.497035         42.0681         33.2323         42.4742 
       0.503198         40.8103         32.3495         41.3177 
       0.509342         39.7693         31.4979         40.4971 
       0.515458         38.8768         30.6735          39.816 
       0.521598         38.1787         29.8693         38.5974 
       0.527764         37.3611         29.0879         37.5845 
       0.533884         36.7057         28.3406         36.8557 
           0.54         35.7321         27.6226         36.1194 
       0.546137         35.1954         26.9296         35.4824 
       0.552299         34.5599         26.2603         34.5173 
       0.558452         33.5118         25.6172         33.7862 
       0.564573         32.8938         25.0004          33.302 
       0.570708          32.321         24.4028         32.6468 
       0.576825         31.6188         23.8254         31.9607 
       0.582926         30.8747         23.2665         31.3337 
       0.589034         30.0772         22.7233         30.8827 
       0.595184         29.6598         22.1932         30.1298 
       0.601379         29.0457         21.6767         29.7043 
       0.607522         28.3986         21.1817         28.9541 
       0.613639         28.1315         20.7054          28.487 
       0.619772          27.423         20.2433         28.0001 
       0.625918         27.1262         19.7949         27.5452 
       0.632068         26.7066         19.3599         26.9772 
       0.638161         26.1392         18.9415         26.5147 
         0.6443          25.632         18.5323         25.9852 
       0.650464         25.1334         18.1335         25.5691 
       0.656582         24.8873         17.7493         25.1743 
       0.662703         24.3612         17.3762          24.666 
       0.668861         23.9141         17.0118         24.3645 
       0.675024         23.4707         16.6579         23.8237 
       0.681124         23.0501         16.3177         23.4424 
       0.687237          22.584         15.9864         23.0461 
       0.693381         22.3659         15.6629         22.6253 
       0.699536         21.8313         15.3478         22.3813 
       0.705665          21.768         15.0428          22.064 
       0.711789         21.1708         14.7463         21.5577 
       0.717957         20.8635         14.4558         21.3069 
        0.72409         20.5663         14.1748         21.0122 
       0.730186         20.2184          13.903         20.6572 
       0.736317         20.0065         13.6369         20.3133 
       0.742472         19.6287         13.3768         20.0477 
       0.748622         19.3986         13.1239         19.7123 
        0.75476         19.0572         12.8781         19.4423 
       0.760888         18.7189          12.639         19.1786 
       0.767043         18.4559          12.405         18.9292 
       0.773185         18.1426         12.1776         18.6354 
       0.779291         18.0146         11.9571         18.4017 
       0.785407         17.8356         11.7419         18.0953 
       0.791564         17.4784         11.5306         17.8524 
       0.797719         17.0315         11.3246         17.6479 
       0.803834          16.993          11.125          17.353 
       0.809972         16.7619         10.9295         17.1336 
       0.816124         16.4145         10.7383          16.895 
       0.822261         16.2166         10.5522         16.6539 
       0.828378         16.0869         10.3711         16.4007 
       0.834502          15.881         10.1941         16.2436 
       0.840667          15.636         10.0201         16.0152 
       0.846816         15.3341         9.85069         15.8079 
       0.852925         15.1849         9.68627         15.6698 
       0.859047         14.9906         9.52528         15.4323 
       0.865192         14.8043         9.36743         15.2216 
       0.871341         14.6749         9.21307         15.0603 
       0.877463         14.3981         9.06291         14.8687 
       0.883569         14.2062         8.91648         14.6813 
       0.889708          13.992         8.77256         14.4995 
       0.895864         13.8328         8.63146         14.2959 
       0.902008         13.7089         8.49377          14.147 
       0.908149         13.5496         8.35918         14.0008 
       0.914301         13.4685          8.2273         13.8871 
       0.920448         13.2139          8.0984         13.6531 
       0.926574         13.0641         7.97272         13.4836 
       0.932687         12.8858         7.84999         13.3086 
       0.938823         12.7113         7.72941         13.1524 
       0.944975         12.5773         7.61109         13.0284 
       0.951105         12.4289         7.49569         12.8424 
       0.957225         12.2733         7.38289         12.7297 
       0.963368         12.2023         7.27204         12.5739 
       0.969511         12.0475         7.16347         12.4282 
       0.975621          11.946         7.05771         12.3084 
       0.981748         11.7397         6.95383         12.1776 
       0.987916         11.6394         6.85139          12.027 
        0.99406         11.5044         6.75141         11.9031 
        1.00019         11.3347         6.65362         11.7838 
        1.00632         11.2569         6.55787          11.665 
        1.01246         11.1747         6.46387         11.5654 
        1.01859         10.9608         6.37187         11.4414 
        1.02471         10.9003         6.28178         11.2914 
        1.03085         10.7967         6.19313         11.1735 
        1.03698         10.5888         6.10639         11.0663 
        1.04314         10.5309         6.02094         10.9427 
        1.04929         10.3916         5.93734         10.8604 
        1.05541         10.2571         5.85566         10.7778 
        1.06154         10.1997         5.77533         10.6266 
        1.06769         10.1175         5.69638         10.5017 
        1.07382         9.99621         5.61917         10.4221 
        1.07993          9.8942         5.54357          10.317 
        1.08607         9.76692         5.46905         10.2263 
        1.09222         9.69839         5.39583         10.1422 
        1.09836         9.57442         5.32404         10.0217 
        1.10449         9.49904         5.25363         9.91887 
        1.11063         9.35542         5.18443         9.83164 
        1.11677         9.31401         5.11649         9.72537 
         1.1229         9.25187          5.0499         9.65723 
        1.12903         9.12402         4.98443         9.57166 
        1.13518         9.00174         4.92008         9.47081 
        1.14131         8.96558          4.8569         9.38211 
        1.14745         8.86556         4.79487         9.30376 
        1.15359         8.80813         4.73391         9.19956 
        1.15973         8.68826         4.67399         9.12812 
        1.16584         8.57145         4.61538         9.05322 
        1.17197         8.54694         4.55769         9.00159 
        1.17811           8.446         4.50081         8.87001 
        1.18424          8.3694         4.44507         8.80684 
        1.19038         8.31643         4.39012         8.74528 
        1.19652          8.2347         4.33612         8.64779 
        1.20267         8.15236         4.28303         8.58728 
        1.20881         8.08876         4.23084         8.51457 
        1.21495         8.02437         4.17961         8.44103 
        1.22108         7.92765         4.12923         8.37285 
         1.2272         7.84913         4.07981         8.29715 
        1.23334         7.79979         4.03108         8.23608 
        1.23949         7.70823         3.98304         8.15686 
        1.24562         7.66483         3.93592         8.08867 
        1.25174         7.60659         3.88963         8.02786 
        1.25789          7.5245         3.84394         7.95551 
        1.26402         7.49458         3.79907         7.88586 
        1.27014          7.4004         3.75503         7.82677 
        1.27628           7.325         3.71156         7.74977 
        1.28244         7.26455         3.66869         7.71073 
        1.28858          7.2439         3.62656         7.64367 
        1.29471         7.16167         3.58518         7.58675 
        1.30084         7.08552         3.54449         7.54576 
        1.30697          7.0406         3.50436         7.46713 
        1.31312         6.94803          3.4648         7.40827 
        1.31925          6.8917         3.42598         7.36535 
        1.32537         6.85957         3.38779         7.31231 
        1.33151         6.80809         3.35004         7.25171 
        1.33765          6.7508         3.31289         7.18472 
        1.34378         6.69062         3.27638         7.13033 
        1.34992         6.61831          3.2404         7.08783 
        1.35606         6.59908         3.20488         7.02536 
         1.3622         6.54981         3.16995          6.9679 
        1.36833         6.46253         3.13563          6.9412 
        1.37445         6.43766         3.10184         6.87666 
        1.38059         6.37637         3.06844         6.81626 
        1.38675         6.30498         3.03545         6.78424 
        1.39288         6.28834         3.00308         6.72747 
        1.39901         6.22598          2.9712         6.67751 
        1.40515         6.19242         2.93971         6.62794 
         1.4113         6.13162         2.90869         6.58228 
        1.41742         6.07809         2.87823         6.54567 
        1.42355         6.03284         2.84816         6.49855 
         1.4297         6.01442         2.81842         6.44071 
        1.43585         5.96429         2.78912          6.4062 
        1.44198         5.91953         2.76035         6.36098 
        1.44809         5.86737         2.73204         6.31717 
        1.45423         5.82064         2.70402         6.26815 
        1.46036         5.77536         2.67645         6.22337 
        1.46649         5.74911         2.64925         6.19049 
        1.47263          5.6868         2.62241         6.15745 
        1.47877         5.65048         2.59595         6.10227 
        1.48491         5.62426         2.56982          6.0573 
        1.49104         5.58223          2.5441         6.02269 
        1.49718         5.53664         2.51872         5.98646 
        1.50333          5.4946         2.49364         5.94643 
        1.50947         5.44824         2.46896          5.9103 
         1.5156         5.42014         2.44464         5.87413 
        1.52172         5.38924         2.42065         5.83144 
        1.52787         5.34528         2.39694         5.78692 
          1.534         5.30331         2.37358         5.75118 
        1.54013         5.26119         2.35055         5.71067 
        1.54627         5.22029         2.32778         5.67189 
        1.55241         5.18781         2.30531         5.63951 
        1.55855         5.15731         2.28317         5.60325 
        1.56467         5.11686         2.26138         5.57428 
         1.5708         5.10425         2.23981         5.54426 
        1.57695         5.05379          2.2185         5.50399 
        1.58308         5.01695          2.1975         5.47026 
        1.58922         4.99497         2.17677         5.44555 
        1.59535         4.95726         2.15631         5.41274 
         1.6015         4.91244         2.13608         5.37288 
        1.60764         4.88198         2.11613         5.33657 
        1.61376         4.85769         2.09648         5.30923 
        1.61989         4.81583         2.07707         5.28251 
        1.62604         4.80181         2.05785         5.24972 
        1.63218         4.76698          2.0389         5.22027 
        1.63831         4.73034         2.02023          5.1929 
        1.64444         4.69291         2.00178         5.15579 
        1.65059         4.65842         1.98352         5.12389 
        1.65673         4.64889         1.96551         5.09782 
        1.66285         4.59796         1.94777         5.06834 
        1.66898          4.5786         1.93025         5.03223 
        1.67512         4.55598          1.9129         5.00379 
        1.68127         4.52654         1.89576         4.97913 
         1.6874         4.49253         1.87886         4.95327 
        1.69353         4.45017         1.86218         4.92373 
        1.69967          4.4398         1.84566         4.89169 
        1.70581         4.41912         1.82935         4.86442 
        1.71193         4.37713          1.8133         4.84273 
        1.71806         4.35205          1.7974         4.81973 
        1.72421         4.32944         1.78167         4.79125 
        1.73035         4.30087         1.76614         4.76527 
        1.73649         4.27851          1.7508         4.74115 
        1.74262         4.25021         1.73565         4.70825 
        1.74876         4.22971         1.72067           4.681 
        1.75489         4.20057         1.70591         4.65482 
        1.76101         4.16978         1.69131         4.62666 
        1.76715         4.14995         1.67687         4.61004 
        1.77329         4.11462         1.66258         4.58548 
        1.77943         4.09495         1.64845         4.55447 
        1.78557         4.07908         1.63451         4.52942 
        1.79171         4.05695         1.62072         4.50361 
        1.79785         4.01938         1.60709         4.47875 
        1.80399         4.00631         1.59362         4.45956 
        1.81012         3.98774         1.58033         4.44155 
        1.81625         3.95523         1.56719         4.41951 
        1.82239         3.93205         1.55418         4.39575 
        1.82853         3.90481         1.54132         4.37561 
        1.83466         3.88409         1.52863         4.35519 
        1.84078         3.86741         1.51608         4.33185 
        1.84692         3.84799         1.50366          4.3062 
        1.85306         3.81861         1.49137         4.28011 
         1.8592         3.80157         1.47923         4.25786 
        1.86533          3.7789         1.46723         4.23868 
        1.87147         3.75656         1.45535          4.2153 
