# k  (h/Mpc)    Pcb(k)  (Mpc/h)^3    Pcb_linear(k) (Mpc/h)^3    Pcb_NL(k) (Mpc/h)^3   ShotnoiseSubtracted = false
     0.00783031         2068.19         2091.79         2072.64 
       0.013688          2331.7         2331.42         2316.87 
       0.019231         2156.08         2152.97         2141.46 
      0.0249154         1803.64          1812.8          1807.2 
      0.0312784         1424.54         1422.39         1423.44 
      0.0375637         1126.38         1119.94         1121.81 
      0.0433917         932.976         932.066         933.908 
      0.0492413         819.432         817.093         818.784 
      0.0555754         741.249         744.264         744.669 
      0.0619321         695.549         691.657           691.4 
       0.067871         636.592         638.757          638.14 
      0.0738098         571.485         573.551         572.637 
      0.0800417         493.092          495.62         495.608 
      0.0862327         419.806          419.68         420.939 
      0.0921407          360.67         358.567           360.3 
      0.0982031          313.27         312.558         314.984 
       0.104506         285.855         282.313         284.961 
       0.110769         267.808         265.391         267.189 
       0.116806         255.887         255.248         256.447 
       0.122832         246.775         245.338         246.347 
       0.129052         231.039         231.292         232.093 
       0.135211          212.58         212.604         213.654 
       0.141259         192.984         191.451         193.002 
       0.147318         173.057         170.548          172.86 
       0.153489         154.432         152.357         154.431 
       0.159709         141.111         138.685         141.006 
       0.165845         133.002         129.732         132.409 
       0.171974         125.989         124.112         126.343 
       0.178125         122.036         120.086         122.381 
       0.184229         118.017         116.041           118.1 
        0.19034           111.4         110.859         112.724 
       0.196428         105.866         104.308         105.952 
       0.202534         99.4792         96.8256         98.6949 
       0.208729         91.3951         89.1885         91.2147 
       0.214876         84.3087         82.4106         84.9213 
       0.220989         79.5614         76.9591         79.5721 
       0.227147         74.8263         72.8418         75.3483 
        0.23329         71.7251         69.8298         72.4072 
       0.239377         69.4682         67.4559         69.9153 
       0.245482         66.4082         65.1971         67.3044 
       0.251667         64.4816         62.6776         64.9105 
       0.257832         61.5888         59.8039         61.9356 
       0.263955         58.4652          56.676         58.7649 
       0.270079         55.3966         53.4996         55.6362 
        0.27624         52.8957         50.5034         52.6057 
       0.282372         50.3549         47.8936         50.1629 
        0.28843         47.9231         45.7432         48.0266 
       0.294538         45.9501         43.9522         46.1834 
       0.300721         44.7105          42.407         44.6552 
        0.30691         42.8848         40.9764         43.2055 
       0.313033          41.398          39.561          41.657 
       0.319153           39.41         38.0804         40.1705 
       0.325316         38.5286         36.5299         38.6693 
        0.33145         36.7631         34.9721         37.0333 
       0.337538         35.4255         33.4822         35.5068 
       0.343633         33.8902         32.1005         34.1396 
       0.349808         32.7308         30.8463          32.963 
       0.355968         31.6942         29.7367         31.9738 
       0.362074         30.5969         28.7493         30.8659 
       0.368217           29.58         27.8295         29.7895 
       0.374374         28.5989         26.9399         28.9369 
       0.380519         27.8076         26.0617          27.977 
       0.386598         26.9414         25.1919         27.1214 
       0.392688         26.2142         24.3268         26.2596 
        0.39888         25.2705         23.4716         25.3958 
       0.405048         24.5094         22.6596          24.505 
       0.411186         23.7616         21.9033         23.8514 
       0.417313         22.9454         21.2047         23.0871 
       0.423458         22.2782         20.5531         22.4471 
       0.429607         21.6045         19.9406         21.7752 
       0.435692         20.9445         19.3632          21.202 
       0.441815         20.4413         18.7995         20.6791 
       0.447964         19.9879         18.2456         20.0454 
       0.454126         19.1832         17.7032         19.4681 
       0.460267         18.7607         17.1778         19.0005 
       0.466387         18.1281         16.6722         18.4137 
        0.47254         17.7398         16.1861         17.9461 
       0.478662         17.3578         15.7273         17.4573 
       0.484765         16.7826         15.2935          16.979 
       0.490885         16.3709         14.8789          16.639 
       0.497035         16.0878         14.4799         16.2585 
       0.503198         15.6204         14.0953         15.7723 
       0.509342         15.2115         13.7242         15.4133 
       0.515458         14.7953          13.365         15.1005 
       0.521598         14.4785         13.0146         14.6401 
       0.527764         14.0997         12.6742         14.2591 
       0.533884         13.8368         12.3485         13.9239 
           0.54         13.4718         12.0357         13.6024 
       0.546137         13.1992         11.7337         13.3267 
       0.552299         12.9189         11.4421         12.9471 
       0.558452         12.5081         11.1619          12.669 
       0.564573          12.297         10.8932         12.4535 
       0.570708         12.0288         10.6328         12.1672 
       0.576825         11.7061         10.3812         11.8876 
       0.582926         11.4603         10.1377         11.6431 
       0.589034         11.1185         9.90097         11.4377 
       0.595184          10.941            9.67         11.1029 
       0.601379         10.6717         9.44494         10.9513 
       0.607522         10.4832         9.22928         10.6822 
       0.613639         10.3163         9.02174          10.457 
       0.619772          10.026         8.82042         10.2797 
       0.625918         9.92026         8.62504         10.0514 
       0.632068         9.74495         8.43548         9.82927 
       0.638161         9.47617          8.2532         9.64156 
         0.6443         9.27392         8.07489         9.43293 
       0.650464         9.06079         7.90113         9.29305 
       0.656582         8.97567         7.73372         9.10432 
       0.662703         8.78333         7.57114         8.91219 
       0.668861         8.60192         7.41239          8.7805 
       0.675024         8.41324         7.25815         8.57827 
       0.681124         8.25798         7.10993         8.41545 
       0.687237         8.10175          6.9656         8.24042 
       0.693381         7.97151         6.82464         8.08073 
       0.699536           7.754         6.68735         7.95061 
       0.705665         7.65791         6.55444         7.84909 
       0.711789         7.50044         6.42526         7.67544 
       0.717957         7.35525         6.29869         7.52896 
        0.72409         7.22155         6.17625         7.41737 
       0.730186         7.11765         6.05781         7.27138 
       0.736317         7.01672         5.94187         7.13644 
       0.742472         6.88884         5.82855         7.04636 
       0.748622         6.76905         5.71833         6.92053 
        0.75476           6.617         5.61122         6.79269 
       0.760888         6.51011         5.50704         6.68988 
       0.767043         6.41832         5.40512         6.58585 
       0.773185         6.27789         5.30601         6.47761 
       0.779291         6.21328         5.20996         6.37836 
       0.785407         6.11334         5.11617         6.26146 
       0.791564         6.00464          5.0241         6.16581 
       0.797719         5.87082         4.93436         6.05782 
       0.803834         5.83259         4.84738         5.95969 
       0.809972         5.75156          4.7622         5.89126 
       0.816124         5.61234         4.67888         5.78009 
       0.822261          5.5158          4.5978          5.6873 
       0.828378         5.44669         4.51889         5.60414 
       0.834502         5.38753         4.44177         5.51905 
       0.840667         5.27407         4.36596         5.43164 
       0.846816         5.17221         4.29214         5.35892 
       0.852925         5.11993          4.2205         5.28749 
       0.859047         5.03676         4.15035         5.21332 
       0.865192         4.98206         4.08157         5.13029 
       0.871341         4.91166         4.01432         5.06277 
       0.877463         4.82517         3.94889         4.98074 
       0.883569         4.73846         3.88509         4.90884 
       0.889708         4.65263         3.82238         4.84344 
       0.895864         4.59227          3.7609         4.76903 
       0.902008         4.54199          3.7009         4.70892 
       0.908149         4.48728         3.64226         4.63408 
       0.914301         4.41248          3.5848         4.58866 
       0.920448         4.33655         3.52863         4.50623 
       0.926574         4.27586         3.47387         4.45671 
       0.932687          4.2181         3.42039         4.36631 
       0.938823         4.15702         3.36785         4.32959 
       0.944975         4.09917          3.3163         4.26995 
       0.951105         4.04549         3.26602         4.20262 
       0.957225         4.01707         3.21687         4.16135 
       0.963368          3.9541         3.16857         4.09795 
       0.969511         3.89643         3.12127         4.04992 
       0.975621         3.84291         3.07519         3.98793 
       0.981748         3.79179         3.02992         3.93585 
       0.987916         3.74707         2.98529         3.89017 
        0.99406         3.67884         2.94172         3.84572 
        1.00019         3.62217         2.89912         3.80346 
        1.00632         3.59339         2.85739         3.74871 
        1.01246         3.54405         2.81644         3.71184 
        1.01859         3.49044         2.77635         3.65596 
        1.02471         3.45488          2.7371         3.59516 
        1.03085         3.40526         2.69847          3.5577 
        1.03698          3.3525         2.66067         3.52193 
        1.04314         3.32085         2.62344         3.47469 
        1.04929         3.27687         2.58702         3.43521 
        1.05541         3.22955         2.55143         3.39934 
        1.06154         3.19641         2.51642         3.35646 
        1.06769         3.17328         2.48203         3.32004 
        1.07382         3.11883         2.44839         3.27804 
        1.07993         3.07321         2.41544         3.23495 
        1.08607         3.05225         2.38298          3.2051 
        1.09222          3.0093         2.35107         3.16376 
        1.09836         2.97047         2.31979          3.1186 
        1.10449         2.94097         2.28911         3.08986 
        1.11063         2.89739         2.25896         3.05245 
        1.11677         2.87179         2.22936         3.01963 
         1.1229         2.83975         2.20034         2.98989 
        1.12903         2.79832         2.17182         2.96051 
        1.13518         2.76441         2.14378         2.92252 
        1.14131         2.72742         2.11625         2.88396 
        1.14745         2.68957         2.08922         2.85189 
        1.15359         2.67124         2.06266         2.82838 
        1.15973         2.63208         2.03655          2.7931 
        1.16584         2.60098         2.01101         2.76678 
        1.17197         2.57346         1.98587         2.73593 
        1.17811         2.55494         1.96109          2.7041 
        1.18424         2.52168         1.93681         2.67263 
        1.19038         2.50081         1.91286         2.64521 
        1.19652         2.46866         1.88933         2.62168 
        1.20267         2.43994          1.8662         2.58953 
        1.20881         2.41908         1.84346         2.56471 
        1.21495         2.39188         1.82114         2.54233 
        1.22108         2.36205         1.79919         2.51401 
         1.2272         2.33948         1.77765         2.48232 
        1.23334         2.30638         1.75642         2.46307 
        1.23949         2.28129         1.73549         2.44293 
        1.24562         2.26275         1.71496         2.41624 
        1.25174         2.23591         1.69479         2.38663 
        1.25789         2.21596         1.67488         2.36076 
        1.26402         2.19324         1.65533         2.33642 
        1.27014         2.16815         1.63614          2.3183 
        1.27628         2.14749          1.6172         2.29402 
        1.28244         2.11715         1.59852         2.26966 
        1.28858         2.10635         1.58016         2.24779 
        1.29471         2.07564         1.56213         2.22747 
        1.30084         2.05133          1.5444         2.21089 
        1.30697         2.04462         1.52692         2.18258 
        1.31312         2.00554         1.50968         2.16174 
        1.31925         1.98888         1.49277         2.14947 
        1.32537         1.96792         1.47613         2.12815 
        1.33151         1.95917         1.45968         2.10624 
        1.33765         1.92977         1.44349         2.08594 
        1.34378         1.91534         1.42758         2.06725 
        1.34992         1.89985         1.41191         2.04737 
        1.35606         1.86963         1.39643         2.02542 
         1.3622         1.85936         1.38121         2.00601 
        1.36833         1.83744         1.36626         1.99604 
        1.37445         1.81928         1.35153          1.9758 
        1.38059          1.8109         1.33698         1.95465 
        1.38675         1.79273         1.32261         1.93478 
        1.39288         1.77555          1.3085           1.924 
        1.39901         1.74999         1.29461         1.90506 
        1.40515         1.73474         1.28089         1.88697 
         1.4113         1.72029         1.26737         1.87202 
        1.41742         1.70596          1.2541         1.85494 
        1.42355          1.6878           1.241         1.83561 
         1.4297         1.67269         1.22804         1.82414 
        1.43585         1.66085         1.21528          1.8102 
        1.44198         1.64583         1.20274         1.79037 
        1.44809         1.62722         1.19041          1.7767 
        1.45423          1.6113          1.1782         1.75927 
        1.46036         1.59382         1.16618         1.74453 
        1.46649         1.58256         1.15433         1.73184 
        1.47263         1.56504         1.14264         1.71712 
        1.47877         1.55049         1.13111         1.69976 
        1.48491         1.53804         1.11972         1.68883 
        1.49104         1.52552         1.10852         1.67146 
        1.49718         1.50999         1.09746         1.65892 
        1.50333          1.4983         1.08653         1.64605 
        1.50947         1.48242         1.07577         1.63112 
         1.5156         1.47011         1.06518          1.6196 
        1.52172         1.45732         1.05473         1.60962 
        1.52787         1.44498          1.0444         1.58938 
          1.534         1.43016         1.03421          1.5782 
        1.54013         1.41954         1.02418         1.56628 
        1.54627         1.40495         1.01426          1.5518 
        1.55241         1.39137         1.00447         1.54036 
        1.55855         1.38254        0.994823         1.52606 
        1.56467         1.37087        0.985329         1.51673 
         1.5708         1.35745        0.975932         1.50537 
        1.57695         1.34622        0.966643         1.49124 
        1.58308         1.33184        0.957496         1.48074 
        1.58922         1.32513        0.948461         1.47043 
        1.59535         1.31288        0.939547         1.46035 
         1.6015         1.30018        0.930734         1.44799 
        1.60764         1.29127        0.922038         1.43617 
        1.61376         1.28121        0.913478         1.42691 
        1.61989         1.26758        0.905019         1.41563 
        1.62604         1.25711        0.896649         1.40438 
        1.63218         1.25114        0.888389          1.3949 
        1.63831         1.23705        0.880253         1.38485 
        1.64444         1.22816        0.872216         1.37231 
        1.65059         1.21603         0.86426         1.36269 
        1.65673         1.20825        0.856411         1.35218 
        1.66285         1.19562        0.848683         1.34108 
        1.66898         1.18819        0.841047         1.33132 
        1.67512         1.17581         0.83349          1.3222 
        1.68127         1.16762        0.826019         1.31466 
         1.6874         1.16213        0.818657         1.30687 
        1.69353         1.14627        0.811388         1.29594 
        1.69967         1.13921        0.804191          1.2839 
        1.70581         1.13288        0.797084         1.27545 
        1.71193         1.12127         0.79009         1.26854 
        1.71806         1.11482        0.783164         1.25727 
        1.72421         1.10545        0.776308         1.24776 
        1.73035         1.09568        0.769542         1.23961 
        1.73649         1.08709        0.762858         1.23106 
        1.74262         1.07809        0.756258         1.22273 
        1.74876         1.07145        0.749733         1.21559 
        1.75489         1.06091        0.743297         1.20666 
        1.76101         1.05193        0.736939         1.19549 
        1.76715         1.04648        0.730647         1.18734 
        1.77329         1.03897        0.724421         1.17999 
        1.77943         1.02681        0.718264         1.17189 
        1.78557         1.02007        0.712188         1.16368 
        1.79171          1.0158        0.706182         1.15539 
        1.79785         1.00482        0.700243         1.14752 
        1.80399        0.997608        0.694374          1.1402 
        1.81012        0.990278        0.688581         1.13198 
        1.81625        0.983972        0.682856          1.1238 
        1.82239        0.975852        0.677187          1.1169 
        1.82853        0.965737        0.671586         1.11088 
        1.83466        0.961019        0.666053         1.10435 
        1.84078        0.954843        0.660588         1.09682 
        1.84692        0.948219        0.655176         1.08862 
        1.85306        0.939006        0.649818          1.0797 
         1.8592        0.931376        0.644528         1.07255 
        1.86533         0.92481          0.6393         1.06768 
        1.87147        0.919483        0.634124         1.06046 
