# k  (h/Mpc)    Pcb(k)  (Mpc/h)^3    Pcb_linear(k) (Mpc/h)^3    Pcb_NL(k) (Mpc/h)^3   ShotnoiseSubtracted = false
     0.00783031         16615.6         16861.7         16702.1 
       0.013688         18968.5           18778         18636.9 
       0.019231         17419.7         17335.1           17211 
      0.0249154         14355.1         14593.6         14508.2 
      0.0312784         11404.6         11449.3         11410.2 
      0.0375637          9099.2         9014.17         9001.16 
      0.0433917         7465.85         7501.69         7486.12 
      0.0492413         6602.61         6576.13         6565.09 
      0.0555754          5889.2         5989.84         5979.42 
      0.0619321         5637.75         5566.36         5554.33 
       0.067871         5074.17         5140.56         5135.19 
      0.0738098         4567.79         4615.75         4585.56 
      0.0800417         3935.05         3988.55         3988.22 
      0.0862327         3392.71         3377.39         3429.87 
      0.0921407         2975.33         2885.56         2953.02 
      0.0982031         2584.23         2515.29         2620.03 
       0.104506          2406.1         2271.89         2396.71 
       0.110769          2243.6          2135.7         2225.31 
       0.116806         2141.02         2054.08         2124.18 
       0.122832         2054.99         1974.32         2038.85 
       0.129052         1898.77         1861.28         1918.43 
       0.135211         1761.88         1710.89         1776.38 
       0.141259         1637.23         1540.66         1630.66 
       0.147318         1495.21         1372.45          1493.7 
       0.153489         1341.55         1226.06          1336.4 
       0.159709         1250.28         1116.04         1240.48 
       0.165845         1191.62         1043.99         1185.61 
       0.171974          1133.1         998.758         1124.83 
       0.178125         1086.81         966.359         1096.59 
       0.184229         1042.97          933.81         1050.19 
        0.19034         976.452         892.105         1000.56 
       0.196428          945.82         839.387         943.343 
       0.202534          901.48         779.176         892.933 
       0.208729         842.436         717.719         831.023 
       0.214876         793.928         663.175          797.11 
       0.220989         758.157         619.305         759.995 
       0.227147         723.881         586.173         727.476 
        0.23329         693.939         561.934         705.899 
       0.239377         678.233         542.831         678.851 
       0.245482         632.644         524.654         649.584 
       0.251667         626.192         504.379         632.746 
       0.257832         599.517         481.253         604.709 
       0.263955         575.931         456.082         579.173 
       0.270079         549.996         430.521         556.308 
        0.27624         539.752          406.41         531.816 
       0.282372          517.76         385.408         514.863 
        0.28843         503.812         368.103          498.94 
       0.294538         477.306         353.691         483.289 
       0.300721         473.038         341.256         469.671 
        0.30691         451.543         329.744         459.822 
       0.313033         441.377         318.354         443.144 
       0.319153          426.86         306.439         429.509 
       0.325316         414.427         293.962         417.567 
        0.33145         400.372         281.426         400.676 
       0.337538         392.461         269.437         388.981 
       0.343633         379.703         258.318         382.529 
       0.349808         365.201         248.225         373.469 
       0.355968         360.904         239.296         364.996 
       0.362074         354.541          231.35         355.687 
       0.368217         343.888         223.948         344.405 
       0.374374         328.303          216.79         335.971 
       0.380519         325.909         209.723         326.916 
       0.386598         316.635         202.723         322.612 
       0.392688         313.005         195.762         312.093 
        0.39888         304.203          188.88         305.214 
       0.405048         296.508         182.346         299.373 
       0.411186         291.098         176.259         290.898 
       0.417313         284.968         170.637          284.29 
       0.423458         278.073         165.394         279.137 
       0.429607         273.461         160.465         273.684 
       0.435692         265.684         155.818         266.327 
       0.441815         262.637         151.283         263.319 
       0.447964         256.334         146.825         258.311 
       0.454126         249.294         142.461           250.5 
       0.460267         244.583         138.232         248.392 
       0.466387         241.327         134.163          243.37 
        0.47254         235.937         130.252         238.559 
       0.478662         235.119          126.56         233.625 
       0.484765         226.222         123.069         228.575 
       0.490885         223.399         119.733         224.896 
       0.497035         219.153         116.522          221.58 
       0.503198         215.111         113.427         218.064 
       0.509342         213.133         110.441         214.614 
       0.515458         209.746          107.55         211.732 
       0.521598         204.379         104.731          207.48 
       0.527764         201.915         101.991         204.999 
       0.533884         199.182         99.3704         201.863 
           0.54          195.96         96.8529         197.892 
       0.546137         194.383         94.4231         195.491 
       0.552299         190.233         92.0763         191.788 
       0.558452         188.786         89.8216         188.957 
       0.564573         185.858         87.6587         187.206 
       0.570708          181.56         85.5633         184.801 
       0.576825          178.72         83.5391         180.848 
       0.582926         176.174         81.5793         178.836 
       0.589034         174.194         79.6745         176.819 
       0.595184         172.279         77.8159          173.17 
       0.601379         169.361         76.0048         171.361 
       0.607522         166.844         74.2693         168.526 
       0.613639         165.114         72.5992         167.622 
       0.619772         161.838         70.9792         165.686 
       0.625918         160.636         69.4069         162.636 
       0.632068         157.858         67.8815         160.361 
       0.638161         156.777         66.4146         159.475 
         0.6443         154.319         64.9797         157.239 
       0.650464         152.624         63.5815         153.941 
       0.656582         150.299         62.2343         152.811 
       0.662703         149.764          60.926         150.973 
       0.668861         147.118         59.6485         149.576 
       0.675024         144.731         58.4074          147.81 
       0.681124         143.677         57.2146         145.621 
       0.687237         141.759         56.0531         143.986 
       0.693381         139.384         54.9188         142.093 
       0.699536         138.263          53.814         140.742 
       0.705665         136.981         52.7445         139.308 
       0.711789         135.166          51.705         138.021 
       0.717957         134.748         50.6864         136.639 
        0.72409         132.701         49.7011         135.336 
       0.730186         130.783          48.748         133.844 
       0.736317         129.373          47.815         132.168 
       0.742472         128.273         46.9032         130.791 
       0.748622         127.095         46.0162         129.336 
        0.75476         125.707         45.1542         128.481 
       0.760888         124.283         44.3159         126.468 
       0.767043         123.692         43.4957         125.602 
       0.773185         122.498         42.6981         124.695 
       0.779291         120.077         41.9252         123.069 
       0.785407         119.613         41.1705         121.708 
       0.791564         118.608         40.4296         120.769 
       0.797719         116.213         39.7074         119.991 
       0.803834         115.684         39.0075         118.725 
       0.809972         114.873          38.322         117.637 
       0.816124         113.985         37.6516         116.661 
       0.822261         112.992         36.9991         115.609 
       0.828378         111.908         36.3641         114.227 
       0.834502         111.392         35.7435          113.15 
       0.840667         109.563         35.1334         112.354 
       0.846816         108.461         34.5394         111.495 
       0.852925         107.771         33.9629         110.605 
       0.859047         106.741         33.3984         109.637 
       0.865192         105.462          32.845         108.435 
       0.871341         104.632         32.3037         107.484 
       0.877463         103.473         31.7772         106.848 
       0.883569         103.346         31.2638         106.287 
       0.889708         102.131         30.7592         105.065 
       0.895864         100.972         30.2644         104.435 
       0.902008         100.272         29.7817         103.361 
       0.908149         99.8273         29.3097         102.545 
       0.914301          98.524         28.8473         101.643 
       0.920448         97.8532         28.3954          101.02 
       0.926574         96.9808         27.9547         100.061 
       0.932687         96.8939         27.5243         99.5303 
       0.938823         95.3452         27.1016         98.5978 
       0.944975         94.5747         26.6867         97.8422 
       0.951105         93.8841         26.2821         97.0222 
       0.957225         93.2439         25.8866          96.363 
       0.963368         91.8096         25.4979         95.5644 
       0.969511         91.7037         25.1172         94.7633 
       0.975621         90.9302         24.7464         94.5644 
       0.981748         90.5967         24.3822         93.8338 
       0.987916         89.5668          24.023         93.0864 
        0.99406         88.8018         23.6724         92.2513 
        1.00019         88.5714         23.3295         91.5118 
        1.00632         87.4527         22.9938         90.8464 
        1.01246          87.088         22.6642         89.9771 
        1.01859         86.3784         22.3416         89.7215 
        1.02471         85.3737         22.0258         89.3058 
        1.03085         84.6807         21.7149         88.6287 
        1.03698          84.401         21.4108         88.0734 
        1.04314         83.4854         21.1112         87.3283 
        1.04929         83.1961          20.818         86.8894 
        1.05541         82.3114         20.5317         86.4309 
        1.06154         81.9957           20.25         85.7984 
        1.06769         81.5933         19.9732         85.2768 
        1.07382         80.7878         19.7025         84.7828 
        1.07993         80.3298         19.4374         84.1651 
        1.08607         79.5756         19.1761         83.5656 
        1.09222          79.461         18.9194         83.1315 
        1.09836         78.6664         18.6676         82.4665 
        1.10449         77.9847         18.4208         82.1358 
        1.11063         77.4671         18.1781         81.3503 
        1.11677         76.9097         17.9399          80.861 
         1.1229          76.402         17.7064         80.4907 
        1.12903         75.9441         17.4769         79.8916 
        1.13518         75.6462         17.2512         79.4582 
        1.14131         74.9857         17.0297         78.7963 
        1.14745         74.5949         16.8122          78.463 
        1.15359         74.0341         16.5985         78.0366 
        1.15973         73.6581         16.3884          77.709 
        1.16584         72.9557         16.1828         76.9695 
        1.17197         72.4621         15.9806         76.7706 
        1.17811          72.133         15.7812         76.1965 
        1.18424         71.6581         15.5857         75.7005 
        1.19038         71.4439          15.393         75.4101 
        1.19652         70.8599         15.2037         74.8945 
        1.20267         70.1001         15.0175         74.5236 
        1.20881         69.9014         14.8346         73.9442 
        1.21495          69.208         14.6549          73.652 
        1.22108         69.0621         14.4783         73.2779 
         1.2272         68.2987          14.305         72.8001 
        1.23334         67.9262         14.1342         72.5842 
        1.23949         67.6679         13.9657         71.9685 
        1.24562         67.0947         13.8005         71.4216 
        1.25174         66.8379         13.6382         71.0881 
        1.25789         66.4669          13.478         70.7097 
        1.26402         65.6751         13.3207         70.4826 
        1.27014         65.5431         13.1662         70.1683 
        1.27628         65.1713         13.0138          69.849 
        1.28244          64.752         12.8635         69.2873 
        1.28858         64.5178         12.7158         68.8827 
        1.29471         64.0434         12.5707         68.5843 
        1.30084         63.7588          12.428         68.0416 
        1.30697         63.1896         12.2873         67.8131 
        1.31312         62.8212         12.1486         67.5435 
        1.31925         62.4559         12.0125         67.1616 
        1.32537         62.0724         11.8786         66.8838 
        1.33151         61.5831         11.7462          66.462 
        1.33765         61.3812          11.616          66.156 
        1.34378         61.0551         11.4879         65.8459 
        1.34992         60.7033         11.3618         65.4041 
        1.35606         60.2826         11.2372         65.1112 
         1.3622         59.8254         11.1148         64.8309 
        1.36833         59.6787         10.9944         64.4088 
        1.37445         59.2575         10.8759         64.2166 
        1.38059         58.7284         10.7588         63.7332 
        1.38675         58.4267         10.6432         63.4323 
        1.39288         58.2892         10.5297         63.0476 
        1.39901         57.8689         10.4179         62.8351 
        1.40515         57.4396         10.3075         62.6677 
         1.4113         57.2063         10.1987         62.4129 
        1.41742         56.9753         10.0919         62.0126 
        1.42355          56.631         9.98646         61.6114 
         1.4297         56.4254          9.8822         61.4015 
        1.43585         55.9962         9.77947         60.9974 
        1.44198         55.5567         9.67859         60.8295 
        1.44809         55.4087         9.57933          60.522 
        1.45423         55.1432         9.48109         60.1358 
        1.46036          54.738         9.38441         59.8753 
        1.46649         54.3816         9.28904         59.6819 
        1.47263         54.0657         9.19493         59.4057 
        1.47877         53.8049         9.10216         58.9744 
        1.48491         53.5245         9.01053         58.7587 
        1.49104         53.3116         8.92036         58.5961 
        1.49718         52.9428         8.83135         58.2259 
        1.50333         52.8155         8.74342         57.9268 
        1.50947         52.3772         8.65687         57.7007 
         1.5156         52.2195         8.57162         57.4412 
        1.52172         51.8384         8.48751         57.1509 
        1.52787         51.6402         8.40437         56.9082 
          1.534         51.2435         8.32244         56.7132 
        1.54013         50.9354         8.24169         56.4375 
        1.54627         50.8138         8.16187         56.1393 
        1.55241         50.3712         8.08308         55.8923 
        1.55855         50.1711         8.00545         55.6622 
        1.56467         49.9603         7.92905         55.4414 
         1.5708         49.7104         7.85343          55.143 
        1.57695         49.6104         7.77868         54.9261 
        1.58308         49.2029         7.70508         54.7382 
        1.58922         48.8483         7.63237         54.4344 
        1.59535         48.7619         7.56063         54.2424 
         1.6015          48.307         7.48972         53.9593 
        1.60764         48.1683         7.41974         53.6809 
        1.61376         47.9125         7.35086         53.5701 
        1.61989         47.6513         7.28279         53.3324 
        1.62604         47.4013         7.21543         52.9636 
        1.63218         47.2837         7.14897         52.7194 
        1.63831         46.7685         7.08349         52.6236 
        1.64444         46.5899         7.01881         52.3776 
        1.65059         46.5302         6.95479         52.0898 
        1.65673          46.145         6.89164           51.86 
        1.66285          45.879         6.82944          51.693 
        1.66898         45.8037         6.76799         51.5143 
        1.67512         45.3661         6.70718           51.25 
        1.68127          45.252         6.64707          50.999 
         1.6874         44.9967         6.58782         50.7981 
        1.69353         44.7549         6.52933          50.609 
        1.69967         44.5581         6.47141         50.3983 
        1.70581         44.3782         6.41422           50.19 
        1.71193         44.1638         6.35794         50.0017 
        1.71806         43.8242         6.30221         49.8205 
        1.72421         43.7161         6.24704         49.6023 
        1.73035         43.4862         6.19259         49.3602 
        1.73649         43.2142          6.1388         49.1373 
        1.74262         42.9878         6.08569          48.969 
        1.74876          42.778         6.03318         48.7796 
        1.75489          42.621         5.98139         48.5601 
        1.76101         42.4406         5.93023         48.3402 
        1.76715         42.1178         5.87959         48.1412 
        1.77329         41.8796         5.82949         47.9717 
        1.77943         41.7071         5.77995         47.7953 
        1.78557         41.4904         5.73105         47.5871 
        1.79171          41.344         5.68272         47.3864 
        1.79785         41.0301         5.63493         47.1984 
        1.80399         40.9848          5.5877         47.0091 
        1.81012          40.667         5.54108         46.8209 
        1.81625         40.4752         5.49501         46.6182 
        1.82239         40.2548         5.44939         46.4346 
        1.82853         40.0773         5.40432         46.3075 
        1.83466         39.8456          5.3598         46.1151 
        1.84078         39.5943         5.31582         45.8909 
        1.84692         39.4697         5.27227         45.7726 
        1.85306         39.2525         5.22915         45.5869 
         1.8592         39.0885         5.18659         45.3442 
        1.86533         38.8515         5.14451         45.1741 
        1.87147         38.5795         5.10286          44.994 
