# k  (h/Mpc)    Pcb(k)  (Mpc/h)^3    Pcb_linear(k) (Mpc/h)^3    Pcb_NL(k) (Mpc/h)^3   ShotnoiseSubtracted = false
     0.00783031         18438.6         18717.3           18539 
       0.013688           21071         20843.6         20683.4 
       0.019231         19338.7         19241.6         19099.3 
      0.0249154           15916         16198.3         16097.8 
      0.0312784           12650         12708.2         12657.9 
      0.0375637         10101.6         10005.2         9986.78 
      0.0433917         8281.66         8326.45         8304.79 
      0.0492413         7328.62         7299.11         7283.13 
      0.0555754         6528.09         6648.35         6634.49 
      0.0619321         6258.74         6178.31          6163.1 
       0.067871         5625.31         5705.69            5699 
      0.0738098         5065.72         5123.18         5085.85 
      0.0800417         4364.09         4427.02         4426.01 
      0.0862327         3767.22         3748.67         3811.86 
      0.0921407         3310.68         3202.78         3284.14 
      0.0982031         2876.97         2791.81          2918.5 
       0.104506         2682.33         2521.64         2672.86 
       0.110769          2500.3         2370.48         2479.56 
       0.116806         2387.09         2279.88         2365.41 
       0.122832         2288.84         2191.36         2269.84 
       0.129052         2112.94          2065.9         2135.64 
       0.135211         1961.83         1898.97          1978.4 
       0.141259         1826.98         1710.03         1819.43 
       0.147318         1671.77         1523.32         1669.81 
       0.153489         1501.31         1360.84         1494.85 
       0.159709         1401.06         1238.72          1389.9 
       0.165845         1336.96         1158.76         1330.11 
       0.171974         1272.39         1108.55         1261.95 
       0.178125         1218.91         1072.59         1230.66 
       0.184229         1168.26         1036.46         1177.61 
        0.19034         1095.51         990.174            1122 
       0.196428         1061.38          931.66         1059.01 
       0.202534         1011.94         864.831         1003.72 
       0.208729         947.419         796.617         934.478 
       0.214876         895.442         736.078         897.968 
       0.220989         855.756         687.385         857.574 
       0.227147         818.354          650.61         822.161 
        0.23329         784.427         623.707         798.192 
       0.239377         767.187         602.504         767.451 
       0.245482         715.825         582.329         734.597 
       0.251667           709.1         559.825         715.769 
       0.257832         678.341         534.157         684.412 
       0.263955         652.257         506.219         656.158 
       0.270079          623.55         477.848         630.828 
        0.27624         612.602         451.086         603.811 
       0.282372         587.611         427.776         585.459 
        0.28843         573.667         408.569         568.199 
       0.294538         543.141         392.572         550.377 
       0.300721         538.568          378.77         534.784 
        0.30691         514.643         365.993         524.399 
       0.313033         503.201         353.351         505.501 
       0.319153         487.773         340.126         490.131 
       0.325316         473.372         326.277         476.859 
        0.33145          458.05         312.363         457.709 
       0.337538          448.78         299.056         444.997 
       0.343633         435.032         286.715         437.967 
       0.349808          418.18         275.513         427.968 
       0.355968         413.766         265.601         418.351 
       0.362074         407.217         256.783         408.227 
       0.368217         394.801         248.567         395.633 
       0.374374         376.827         240.622         386.151 
       0.380519         374.783         232.777         375.975 
       0.386598         363.893         225.008         371.423 
       0.392688           360.3         217.282         359.518 
        0.39888         349.908         209.643         351.833 
       0.405048         341.745         202.391         345.011 
       0.411186         335.944         195.635         335.633 
       0.417313         328.859         189.395         328.467 
       0.423458         320.835         183.576         322.645 
       0.429607         316.124         178.105         316.518 
       0.435692         307.296         172.947         307.925 
       0.441815         303.718         167.913         304.714 
       0.447964         296.479         162.965         299.263 
       0.454126         289.654         158.121         290.306 
       0.460267         283.691         153.428         288.056 
       0.466387         279.822         148.912         282.486 
        0.47254         274.333          144.57         277.023 
       0.478662         273.067         140.473          271.26 
       0.484765         262.712         136.598         265.897 
       0.490885         259.719         132.895         261.471 
       0.497035         254.605         129.331         257.771 
       0.503198           250.6         125.896         253.877 
       0.509342          248.61         122.582         249.843 
       0.515458         244.782         119.373         246.584 
       0.521598         238.158         116.244         242.015 
       0.527764         235.339         113.203         239.352 
       0.533884         232.343         110.294         235.731 
           0.54         228.779           107.5         231.196 
       0.546137         227.112         104.803         228.396 
       0.552299         222.363         102.198         224.371 
       0.558452         220.895         99.6956         221.267 
       0.564573         217.604          97.295         219.277 
       0.570708         212.681         94.9692         216.524 
       0.576825         209.077         92.7224          211.98 
       0.582926         206.621         90.5472         209.839 
       0.589034         204.263          88.433         207.371 
       0.595184         202.338         86.3701         203.272 
       0.601379         198.623         84.3599          201.08 
       0.607522         196.031         82.4336         197.893 
       0.613639         194.065         80.5799          197.08 
       0.619772         190.333         78.7818         195.047 
       0.625918         189.172         77.0367         191.364 
       0.632068         185.674         75.3436         188.897 
       0.638161         184.562         73.7155         187.899 
         0.6443         181.624         72.1229         185.286 
       0.650464         179.669         70.5709         181.498 
       0.656582         177.044         69.0756         180.216 
       0.662703         176.739         67.6235          178.27 
       0.668861         173.792         66.2056         176.749 
       0.675024         170.985          64.828         174.806 
       0.681124         169.587         63.5041         172.082 
       0.687237         167.646          62.215         170.256 
       0.693381         164.835          60.956         168.157 
       0.699536         163.363         59.7298         166.682 
       0.705665         161.724         58.5426         164.711 
       0.711789          160.14         57.3888         163.544 
       0.717957         159.439         56.2583         162.122 
        0.72409         157.339         55.1647         160.403 
       0.730186         155.102         54.1069         158.592 
       0.736317         153.388         53.0712         156.858 
       0.742472         152.009         52.0592         155.208 
       0.748622         150.759         51.0747         153.551 
        0.75476         149.073          50.118         152.866 
       0.760888         147.468         49.1875         150.458 
       0.767043         146.839         48.2771         149.369 
       0.773185         145.512         47.3919         148.283 
       0.779291         142.675          46.534         146.381 
       0.785407         142.149         45.6963         144.918 
       0.791564         140.889          44.874         143.747 
       0.797719         138.278         44.0724         142.788 
       0.803834         137.524         43.2956          141.54 
       0.809972         136.814         42.5347         140.256 
       0.816124          135.71         41.7906         139.071 
       0.822261         134.676         41.0664         137.977 
       0.828378         133.259         40.3615         136.405 
       0.834502         132.561         39.6727         135.168 
       0.840667         130.632         38.9956          134.07 
       0.846816         129.435         38.3363         133.164 
       0.852925         128.562         37.6964         132.133 
       0.859047         127.568         37.0699         131.058 
       0.865192         125.809         36.4556         129.615 
       0.871341         124.835         35.8548          128.59 
       0.877463         123.786         35.2704         127.902 
       0.883569         123.469         34.7006         127.302 
       0.889708         121.929         34.1405         125.762 
       0.895864         120.721         33.5914         125.012 
       0.902008         119.826         33.0555         123.785 
       0.908149         119.366         32.5317         122.848 
       0.914301         117.727         32.0185          121.78 
       0.920448         117.025         31.5168         121.066 
       0.926574         115.955         31.0277         119.963 
       0.932687         115.874         30.5501         119.342 
       0.938823         114.086         30.0808         118.372 
       0.944975          113.42         29.6204         117.475 
       0.951105         112.509         29.1712         116.542 
       0.957225         111.869         28.7323           115.7 
       0.963368         109.989         28.3009         114.816 
       0.969511         109.773         27.8783         113.873 
       0.975621         108.779         27.4668         113.547 
       0.981748         108.595         27.0625         112.754 
       0.987916         107.413         26.6638         111.857 
        0.99406         106.503         26.2747         110.931 
        1.00019         106.198         25.8941         110.105 
        1.00632         104.907         25.5215         109.284 
        1.01246         104.396         25.1557         108.259 
        1.01859         103.863         24.7976         107.934 
        1.02471         102.488          24.447         107.405 
        1.03085         101.686          24.102         106.683 
        1.03698         101.265         23.7644         106.134 
        1.04314         100.119         23.4319         105.224 
        1.04929         99.9577         23.1065          104.61 
        1.05541          98.987         22.7887         104.081 
        1.06154         98.4658          22.476         103.388 
        1.06769         98.0716         22.1688         102.777 
        1.07382         97.0164         21.8683         102.196 
        1.07993         96.4424         21.5741         101.458 
        1.08607         95.6854         21.2841         100.754 
        1.09222          95.405         20.9991         100.264 
        1.09836         94.5551         20.7197         99.5057 
        1.10449         93.5975         20.4457         99.1622 
        1.11063         93.0521         20.1764         98.2769 
        1.11677         92.3413          19.912          97.648 
         1.1229         91.8042         19.6529         97.1277 
        1.12903         91.4146         19.3981         96.4996 
        1.13518         90.8875         19.1476         96.0076 
        1.14131         89.9738         18.9018         95.1973 
        1.14745         89.7345         18.6603         94.7769 
        1.15359         88.9342         18.4231         94.3195 
        1.15973         88.5217         18.1899         93.8528 
        1.16584         87.7163         17.9618         93.0831 
        1.17197         87.1442         17.7373         92.7996 
        1.17811         86.6037          17.516         92.1148 
        1.18424         86.2761          17.299         91.4598 
        1.19038         86.0167         17.0852         91.2363 
        1.19652         85.2407          16.875         90.5808 
        1.20267         84.4655         16.6684         90.1608 
        1.20881         84.1732         16.4653          89.462 
        1.21495         83.2655         16.2659          89.134 
        1.22108         83.0737         16.0699         88.6815 
         1.2272         82.2708         15.8775         88.0996 
        1.23334         81.8253         15.6879         87.8662 
        1.23949         81.4628         15.5009         87.1806 
        1.24562         80.8439         15.3175         86.4695 
        1.25174         80.5561         15.1374         86.0579 
        1.25789         80.0268         14.9596          85.587 
        1.26402          79.008          14.785         85.3452 
        1.27014         78.8585         14.6136         84.9505 
        1.27628         78.5047         14.4444         84.6547 
        1.28244         78.0951         14.2776         83.9789 
        1.28858         77.6794         14.1136         83.5062 
        1.29471         77.0163         13.9526         83.1521 
        1.30084         76.8595         13.7942         82.4989 
        1.30697         76.0145          13.638         82.1671 
        1.31312         75.6392         13.4841         81.8001 
        1.31925         75.1819          13.333         81.4403 
        1.32537         74.7382         13.1844         81.1144 
        1.33151         74.2088         13.0375         80.6106 
        1.33765         73.8323         12.8929         80.2549 
        1.34378         73.4858         12.7508         79.8639 
        1.34992         73.1749         12.6108         79.3422 
        1.35606         72.6651         12.4725         78.9779 
         1.3622         72.0619         12.3366         78.6602 
        1.36833          71.794          12.203         78.0981 
        1.37445         71.4282         12.0715         77.8797 
        1.38059         70.7469         11.9415         77.2741 
        1.38675         70.3105         11.8132         76.9381 
        1.39288         70.2666         11.6872          76.491 
        1.39901         69.7001         11.5631         76.2403 
        1.40515          69.164         11.4406         76.0226 
         1.4113         68.9415         11.3198         75.7275 
        1.41742         68.5216         11.2013         75.2997 
        1.42355         68.1753         11.0843         74.8038 
         1.4297         67.8631         10.9685         74.5356 
        1.43585         67.3678         10.8545          74.055 
        1.44198         66.9207         10.7425         73.9003 
        1.44809         66.7437         10.6324         73.4945 
        1.45423         66.4133         10.5233         73.0246 
        1.46036         65.8759          10.416          72.715 
        1.46649         65.4775         10.3102         72.4767 
        1.47263         64.9907         10.2057         72.1479 
        1.47877         64.7302         10.1028          71.655 
        1.48491         64.3693         10.0011         71.3554 
        1.49104         64.1501         9.90096         71.1941 
        1.49718         63.7603         9.80217         70.7004 
        1.50333         63.5176         9.70458         70.3225 
        1.50947         62.9742         9.60851          70.072 
         1.5156         62.8518         9.51388         69.7742 
        1.52172         62.3793         9.42053         69.4257 
        1.52787         62.0059         9.32825         69.1059 
          1.534         61.6321         9.23732          68.888 
        1.54013         61.2801         9.14769         68.5958 
        1.54627         61.0595         9.05909         68.2392 
        1.55241         60.6619         8.97165         67.9155 
        1.55855         60.3437         8.88548         67.6128 
        1.56467         60.1082         8.80068         67.3504 
         1.5708         59.6771         8.71675         67.0149 
        1.57695         59.6324         8.63378         66.7227 
        1.58308         59.1881         8.55209          66.479 
        1.58922         58.8134         8.47139         66.1597 
        1.59535            58.6         8.39177         65.9198 
         1.6015         58.1679         8.31305         65.5856 
        1.60764         57.9021         8.23539         65.2669 
        1.61376         57.6406         8.15893          65.121 
        1.61989         57.3078         8.08338         64.8394 
        1.62604          57.017         8.00861         64.3439 
        1.63218         56.8521         7.93484         64.0358 
        1.63831         56.2213         7.86217         63.9569 
        1.64444         55.9435         7.79038         63.6444 
        1.65059         55.7915         7.71932         63.3143 
        1.65673         55.3774         7.64922         63.0306 
        1.66285         55.1742         7.58019         62.8145 
        1.66898         55.0174         7.51199         62.6093 
        1.67512          54.496          7.4445         62.2963 
        1.68127         54.3597         7.37777         62.0196 
         1.6874         53.9874         7.31201         61.7716 
        1.69353         53.7119         7.24709         61.4716 
        1.69967         53.5175         7.18281         61.2357 
        1.70581         53.2156         7.11933         61.0089 
        1.71193         52.9578         7.05686         60.7692 
        1.71806         52.6482           6.995         60.5453 
        1.72421         52.4172         6.93376         60.2716 
        1.73035         52.1565         6.87333         59.9911 
        1.73649         51.9004         6.81363          59.737 
        1.74262         51.5455         6.75468         59.4853 
        1.74876          51.371          6.6964         59.2409 
        1.75489         51.0863         6.63892          58.996 
        1.76101         50.9034         6.58213         58.7492 
        1.76715         50.4854         6.52593         58.5221 
        1.77329         50.2368         6.47032         58.2925 
        1.77943         50.0302         6.41533         58.0566 
        1.78557         49.8102         6.36106         57.8245 
        1.79171         49.5149         6.30741         57.5876 
        1.79785         49.1594         6.25437         57.3458 
        1.80399           49.06         6.20195         57.1058 
        1.81012         48.7732          6.1502         56.8745 
        1.81625         48.5572         6.09907         56.6351 
        1.82239          48.231         6.04844         56.4058 
        1.82853         48.0505         5.99841         56.2154 
        1.83466         47.8245         5.94899         55.9841 
        1.84078         47.4523         5.90018         55.7487 
        1.84692         47.3248         5.85184         55.6061 
        1.85306         47.0484         5.80399         55.3573 
         1.8592         46.8966         5.75674         55.0574 
        1.86533         46.5847         5.71004          54.868 
        1.87147         46.2328         5.66381         54.6437 
