# k  (h/Mpc)    P(k)  (Mpc/h)^3    P_linear(k)  (Mpc/h)^3     P_NL(k)  ShotnoiseSubtracted = false
     0.00783031         1218.88         1232.33         1220.99 
       0.013688         1372.05         1373.72         1365.22 
       0.019231         1269.72         1268.65         1261.99 
      0.0249154         1064.08         1068.24         1065.07 
      0.0312784         839.734         838.192         838.975 
      0.0375637         663.368          659.97         661.181 
      0.0433917         550.086         549.262         550.453 
      0.0492413         482.787         481.511         482.576 
      0.0555754         437.361         438.594         438.854 
      0.0619321         409.337         407.594         407.436 
       0.067871         375.388         376.421         376.013 
      0.0738098         336.969         337.996         337.506 
      0.0800417         290.871         292.071         292.019 
      0.0862327         247.347         247.319          247.83 
      0.0921407         212.157         211.305         212.045 
      0.0982031         184.411         184.192         185.196 
       0.104506         167.839         166.369         167.417 
       0.110769         157.331         156.396         157.091 
       0.116806         150.485         150.419         150.825 
       0.122832         145.042         144.579         144.879 
       0.129052         136.018         136.302         136.511 
       0.135211         125.076         125.289         125.601 
       0.141259         113.305         112.823         113.344 
       0.147318         101.443         100.505          101.33 
       0.153489           90.53         89.7851          90.542 
       0.159709         82.5808         81.7285          82.577 
       0.165845         77.7168         76.4522         77.4188 
       0.171974         73.7156           73.14         73.9295 
       0.178125          71.401         70.7676         71.5661 
       0.184229          69.057         68.3841         69.0876 
        0.19034         65.3728         65.3299         65.9605 
       0.196428         61.9425         61.4695         62.0209 
       0.202534         58.0515         57.0601         57.6991 
       0.208729         53.3108         52.5596         53.2678 
       0.214876         49.1539         48.5653         49.4521 
       0.220989         46.2912         45.3527         46.2781 
       0.227147         43.5492         42.9263         43.8079 
        0.23329         41.7401         41.1512         42.0553 
       0.239377         40.3802         39.7524          40.612 
       0.245482         38.7482         38.4212         39.1483 
       0.251667         37.5276         36.9364         37.7085 
       0.257832         35.7928         35.2431         35.9795 
       0.263955         33.9722         33.3997         34.1207 
       0.270079          32.156         31.5278         32.2665 
        0.27624         30.6016          29.762         30.4903 
       0.282372         29.0908         28.2239         29.0181 
        0.28843         27.6817         26.9569         27.7572 
       0.294538         26.5611         25.9014         26.6782 
       0.300721         25.7893         24.9908         25.7723 
        0.30691         24.7717         24.1477         24.9217 
       0.313033         23.9041         23.3138         24.0389 
       0.319153         22.7913         22.4411         23.1657 
       0.325316         22.2184         21.5274         22.2702 
        0.33145         21.2142         20.6094         21.3248 
       0.337538         20.3807         19.7314         20.4341 
       0.343633         19.4879          18.917         19.6186 
       0.349808         18.8089          18.178         18.9107 
       0.355968         18.1843         17.5241         18.3085 
       0.362074         17.5485         16.9422         17.6766 
       0.368217          16.973         16.4002         17.0732 
       0.374374         16.3902         15.8759         16.5683 
       0.380519         15.9268         15.3584         16.0178 
       0.386598         15.4273         14.8458         15.5126 
       0.392688         14.9848          14.336         15.0026 
        0.39888          14.431          13.832          14.501 
       0.405048         13.9793         13.3535         13.9834 
       0.411186         13.5363         12.9078         13.5819 
       0.417313         13.0699         12.4961         13.1496 
       0.423458          12.693         12.1121         12.7683 
       0.429607         12.2925         11.7512          12.382 
       0.435692         11.9324         11.4109         12.0466 
       0.441815         11.6112         11.0788         11.7312 
       0.447964         11.3408         10.7522         11.3733 
       0.454126         10.9165         10.4327         11.0442 
       0.460267         10.6433          10.123         10.7553 
       0.466387         10.2837         9.82506         10.4242 
        0.47254         10.0412         9.53855         10.1437 
       0.478662         9.80586         9.26826         9.85977 
       0.484765         9.48605         9.01259         9.59195 
       0.490885          9.2512         8.76825         9.38074 
       0.497035         9.07788         8.53316         9.15296 
       0.503198         8.81221         8.30649         8.88158 
       0.509342         8.58954         8.08782         8.66783 
       0.515458         8.34403         7.87613         8.47523 
       0.521598         8.15017         7.66964         8.22498 
       0.527764         7.92362           7.469         8.01425 
       0.533884         7.77432          7.2771         7.81634 
           0.54         7.56784         7.09274         7.62649 
       0.546137         7.39909          6.9148         7.46135 
       0.552299         7.23017         6.74293         7.25111 
       0.558452         7.00952         6.57782         7.09121 
       0.564573         6.88441         6.41943         6.95864 
       0.570708         6.72388         6.26598         6.79211 
       0.576825         6.54427         6.11775         6.63132 
       0.582926         6.41288         5.97422         6.49064 
       0.589034         6.21666         5.83473         6.36588 
       0.595184         6.10413         5.69862         6.18026 
       0.601379         5.95449         5.56599         6.08494 
       0.607522         5.85079         5.43889          5.9392 
       0.613639         5.74672         5.31659          5.8074 
       0.619772          5.5832         5.19795         5.70166 
       0.625918         5.50608         5.08281         5.56788 
       0.632068         5.40696          4.9711         5.44394 
       0.638161          5.2573         4.86368         5.33662 
         0.6443         5.14543          4.7586         5.21883 
       0.650464          5.0211         4.65621         5.13391 
       0.656582         4.96092         4.55755         5.02522 
       0.662703         4.85303         4.46174         4.91805 
       0.668861         4.76165         4.36819         4.83578 
       0.675024         4.65219         4.27729         4.72972 
       0.681124         4.55986         4.18994         4.63388 
       0.687237         4.47792         4.10489         4.53361 
       0.693381         4.39398         4.02182         4.44265 
       0.699536          4.2748         3.94092          4.3648 
       0.705665         4.20824         3.86259         4.30578 
       0.711789         4.13181         3.78646         4.21365 
       0.717957         4.04391         3.71187         4.12663 
        0.72409         3.96633         3.63972         4.06017 
       0.730186         3.90463         3.56992         3.97873 
       0.736317         3.85246         3.50159         3.90161 
       0.742472         3.78092         3.43482         3.84792 
       0.748622         3.70426         3.36986         3.78098 
        0.75476         3.61979         3.30674         3.70485 
       0.760888          3.5607         3.24535         3.64356 
       0.767043         3.51301         3.18528         3.58499 
       0.773185         3.43258         3.12688         3.52586 
       0.779291         3.38941         3.07027         3.46639 
       0.785407         3.32701           3.015         3.40142 
       0.791564          3.2739         2.96075         3.34599 
       0.797719          3.2126         2.90786         3.28316 
       0.803834          3.1759          2.8566          3.2308 
       0.809972         3.12369          2.8064         3.19012 
       0.816124         3.05332         2.75731         3.12739 
       0.822261         2.99455         2.70952         3.07416 
       0.828378         2.95582         2.66302         3.02798 
       0.834502          2.9219         2.61757         2.97651 
       0.840667         2.85505          2.5729         2.93044 
       0.846816         2.80421          2.5294         2.89127 
       0.852925         2.77617         2.48718         2.84389 
       0.859047         2.72733         2.44584         2.80657 
       0.865192         2.68931         2.40531          2.7585 
       0.871341         2.65099         2.36567         2.71793 
       0.877463         2.60786         2.32711         2.67155 
       0.883569         2.55736         2.28952         2.63465 
       0.889708         2.51553         2.25256         2.59626 
       0.895864         2.47672         2.21633         2.55422 
       0.902008         2.44213         2.18097         2.51895 
       0.908149         2.41156         2.14642          2.4781 
       0.914301         2.36416         2.11255         2.44658 
       0.920448         2.32818         2.07945         2.40515 
       0.926574         2.29195         2.04718         2.37763 
       0.932687         2.26062         2.01567         2.32954 
       0.938823          2.2305         1.98471         2.30865 
       0.944975         2.19925         1.95433          2.2704 
       0.951105         2.16805         1.92469         2.23753 
       0.957225         2.15088         1.89573         2.21079 
       0.963368          2.1145         1.86727         2.17649 
       0.969511         2.07925         1.83939         2.14899 
       0.975621         2.04753         1.81223         2.11315 
       0.981748         2.02452         1.78556          2.0838 
       0.987916         1.99378         1.75926         2.06191 
        0.99406         1.95753         1.73358         2.03614 
        1.00019         1.93426         1.70847          2.0106 
        1.00632         1.90818         1.68389         1.97924 
        1.01246         1.88293         1.65975         1.95506 
        1.01859         1.85826         1.63613         1.92798 
        1.02471         1.83325           1.613         1.89764 
        1.03085         1.80692         1.59023         1.87294 
        1.03698         1.78039         1.56796         1.85117 
        1.04314         1.76044         1.54602         1.82639 
        1.04929         1.73684         1.52455         1.80397 
        1.05541         1.71344         1.50358          1.7836 
        1.06154         1.69094         1.48295          1.7609 
        1.06769         1.67489         1.46268         1.74099 
        1.07382         1.64757         1.44285         1.71634 
        1.07993         1.62172         1.42344         1.69287 
        1.08607         1.61102         1.40431         1.67677 
        1.09222         1.58567         1.38551         1.65211 
        1.09836         1.56869         1.36707         1.63051 
        1.10449         1.55059         1.34899         1.61425 
        1.11063         1.52493         1.33122         1.59064 
        1.11677         1.50767         1.31378          1.5738 
         1.1229         1.48879         1.29668         1.55709 
        1.12903         1.46872         1.27987         1.53842 
        1.13518         1.45336         1.26335         1.51878 
        1.14131          1.4304         1.24712          1.4988 
        1.14745         1.40663         1.23119         1.47957 
        1.15359         1.39729         1.21554         1.46778 
        1.15973         1.37438         1.20016         1.44892 
        1.16584         1.36483         1.18511         1.43147 
        1.17197         1.34676         1.17029         1.41614 
        1.17811         1.33438         1.15569         1.40013 
        1.18424         1.31817         1.14138         1.38152 
        1.19038         1.30121         1.12727         1.36616 
        1.19652         1.28644          1.1134         1.35388 
        1.20267         1.27316         1.09977         1.33479 
        1.20881         1.25573         1.08637         1.32045 
        1.21495         1.24376         1.07321         1.31005 
        1.22108         1.22902         1.06028         1.29324 
         1.2272         1.21703         1.04759          1.2766 
        1.23334         1.19892         1.03508          1.2658 
        1.23949         1.18509         1.02274         1.25425 
        1.24562         1.17474         1.01064         1.23983 
        1.25174         1.15996        0.998753         1.22333 
        1.25789         1.14826        0.987022         1.20979 
        1.26402         1.13244        0.975502         1.19637 
        1.27014         1.12011        0.964193         1.18575 
        1.27628         1.11258         0.95303         1.17237 
        1.28244         1.09515        0.942023         1.15893 
        1.28858         1.08584        0.931204         1.14658 
        1.29471         1.07195         0.92058         1.13452 
        1.30084         1.05865        0.910131         1.12622 
        1.30697          1.0512        0.899828         1.11257 
        1.31312         1.03341         0.88967         1.10047 
        1.31925         1.02609        0.879701         1.09288 
        1.32537         1.01464        0.869894         1.08085 
        1.33151         1.00731        0.860202         1.06928 
        1.33765        0.993149        0.850663         1.05906 
        1.34378        0.983213        0.841288         1.04861 
        1.34992         0.97543        0.832048         1.03749 
        1.35606        0.959833        0.822927         1.02503 
         1.3622        0.953899         0.81396         1.01533 
        1.36833        0.942624        0.805147         1.00884 
        1.37445        0.931038         0.79647        0.998198 
        1.38059        0.924659        0.787894        0.987909 
        1.38675        0.918103        0.779424         0.97598 
        1.39288        0.905845        0.771112        0.969087 
        1.39901        0.894451        0.762926        0.959208 
        1.40515        0.885972         0.75484         0.94905 
         1.4113        0.877778        0.746875        0.941507 
        1.41742         0.86963        0.739055        0.933547 
        1.42355        0.863068        0.731332        0.920533 
         1.4297         0.85156        0.723696         0.91688 
        1.43585        0.844399        0.716173        0.907607 
        1.44198        0.837878        0.708786         0.89637 
        1.44809        0.826977        0.701516        0.890093 
        1.45423        0.819222        0.694322        0.879528 
        1.46036        0.810641        0.687242        0.871929 
        1.46649        0.803449        0.680258        0.865643 
        1.47263        0.794149        0.673366        0.857399 
        1.47877        0.786018        0.666573         0.84832 
        1.48491        0.779183        0.659862        0.842238 
        1.49104        0.772128        0.653259        0.832338 
        1.49718        0.765388        0.646741        0.826799 
        1.50333        0.756339        0.640301        0.818819 
        1.50947        0.750757        0.633963        0.810303 
         1.5156        0.742863         0.62772        0.804184 
        1.52172        0.735477        0.621561        0.798101 
        1.52787        0.728198        0.615472        0.788818 
          1.534        0.721961        0.609472        0.782846 
        1.54013        0.714403        0.603558        0.776063 
        1.54627        0.707015        0.597713        0.768144 
        1.55241        0.700629        0.591943        0.761915 
        1.55855        0.695334        0.586258        0.755436 
        1.56467        0.689274        0.580663         0.74941 
         1.5708        0.680772        0.575125        0.742097 
        1.57695        0.676997        0.569651         0.73586 
        1.58308        0.669907        0.564261         0.73073 
        1.58922        0.663893        0.558937        0.723877 
        1.59535        0.657763        0.553683        0.718024 
         1.6015        0.651573         0.54849        0.711718 
        1.60764        0.647108        0.543365        0.705709 
        1.61376        0.640789        0.538321        0.700954 
        1.61989        0.634583        0.533336        0.695127 
        1.62604        0.627986        0.528403        0.689236 
        1.63218        0.624539        0.523536        0.683799 
        1.63831        0.618011        0.518741        0.678063 
        1.64444        0.612258        0.514004        0.671659 
        1.65059        0.607336        0.509316        0.666303 
        1.65673        0.601015        0.504691        0.660968 
        1.66285        0.595946        0.500136        0.655183 
        1.66898        0.592624        0.495636        0.649491 
        1.67512        0.584724        0.491183        0.644894 
        1.68127        0.580482        0.486781         0.64059 
         1.6874        0.577575        0.482442        0.635815 
        1.69353        0.570235        0.478159        0.630271 
        1.69967        0.564828        0.473917        0.624562 
        1.70581        0.562167        0.469729        0.620216 
        1.71193         0.55629        0.465607         0.61616 
        1.71806        0.552656        0.461526        0.610113 
        1.72421        0.547494        0.457486         0.60524 
        1.73035        0.541644        0.453498        0.600802 
        1.73649        0.538582        0.449559        0.595844 
        1.74262        0.533817         0.44567        0.591306 
        1.74876        0.528705        0.441824        0.587693 
        1.75489        0.523106        0.438032        0.583397 
        1.76101        0.519734        0.434285         0.57793 
        1.76715        0.515723        0.430577        0.573511 
        1.77329        0.511825        0.426908        0.569454 
        1.77943        0.506046         0.42328        0.564909 
        1.78557        0.502303        0.419699        0.560091 
        1.79171        0.499648        0.416159        0.555811 
        1.79785        0.494228         0.41266        0.552068 
        1.80399        0.490795        0.409201        0.548173 
        1.81012        0.486877        0.405787        0.543282 
        1.81625        0.482519        0.402413        0.538974 
        1.82239        0.479252        0.399072        0.535929 
        1.82853        0.473603        0.395771         0.53282 
        1.83466        0.470708        0.392511        0.528979 
        1.84078        0.466632        0.389291         0.52464 
        1.84692        0.464317        0.386101        0.520474 
        1.85306         0.46027        0.382944        0.516137 
         1.8592        0.456301        0.379826        0.512467 
        1.86533        0.452478        0.376746         0.50957 
        1.87147        0.449083        0.373695        0.505283 
        1.87761        0.445318        0.370677        0.501476 
