# k  (h/Mpc)    Pcb(k)  (Mpc/h)^3    Pcb_linear(k) (Mpc/h)^3    Pcb_NL(k) (Mpc/h)^3   ShotnoiseSubtracted = false
     0.00783031         3761.66         3801.25         3799.16 
       0.013688         5095.07         5081.46         5061.78 
       0.019231         5489.86         5488.94         5456.34 
      0.0249154         5328.31         5391.32         5360.52 
      0.0312784         4930.94         4959.78          4931.5 
      0.0375637         4434.53         4436.47         4408.42 
      0.0433917         3952.01         3993.23         3964.68 
      0.0492413         3622.23          3638.6         3610.31 
      0.0555754         3300.47         3356.28          3327.4 
      0.0619321         3148.71         3145.87         3115.74 
       0.067871         2929.88         2975.69         2944.86 
      0.0738098         2751.77         2800.03         2760.61 
      0.0800417         2529.43         2593.66         2555.24 
      0.0862327         2325.39          2369.1         2339.96 
      0.0921407          2127.3         2152.05         2124.86 
      0.0982031         1915.87          1945.9         1930.22 
       0.104506         1769.52         1765.46         1759.44 
       0.110769          1630.7         1627.08         1616.65 
       0.116806         1520.84         1529.16         1519.07 
       0.122832         1457.76         1456.45         1449.39 
       0.129052         1377.06         1394.47         1387.54 
       0.135211         1316.48         1333.86          1327.2 
       0.141259         1262.36         1267.31         1264.45 
       0.147318         1195.01         1191.73         1194.66 
       0.153489         1105.08         1108.91         1105.85 
       0.159709            1035         1026.08         1031.16 
       0.165845         979.955         951.711         969.961 
       0.171974         911.631         889.235          908.35 
       0.178125         865.112          839.75         868.297 
       0.184229         831.821         802.113         830.708 
        0.19034         784.006         772.241         800.493 
       0.196428         770.946         745.872         768.392 
       0.202534         750.645         718.968         743.368 
       0.208729          716.07         688.797         711.035 
       0.214876         677.796         655.583         686.637 
       0.220989         657.003         620.615         655.617 
       0.227147         615.849         585.701         622.401 
        0.23329         588.639         553.467         598.022 
       0.239377         571.003         525.665         573.819 
       0.245482         535.819         502.445         547.379 
       0.251667         528.061         483.173         532.364 
       0.257832         511.393         466.982         515.462 
       0.263955         495.117          452.36         499.498 
       0.270079         480.328         437.806         484.006 
        0.27624         472.817         422.392          467.19 
       0.282372         453.822         406.051         452.522 
        0.28843         438.334         389.295         436.414 
       0.294538         419.934         372.511         423.089 
       0.300721         414.199         356.419         410.667 
        0.30691         395.168         341.835         398.317 
       0.313033         385.374         329.148           384.6 
       0.319153          370.51          318.12         375.432 
       0.325316         362.282         308.278         367.597 
        0.33145         351.521         299.246         355.305 
       0.337538         346.829         290.531         346.023 
       0.343633         336.133         281.735         339.524 
       0.349808         326.516         272.607         331.654 
       0.355968         320.625         263.358         324.524 
       0.362074         312.151          254.27         315.477 
       0.368217         304.122         245.457         305.034 
       0.374374         294.801         237.196         298.589 
       0.380519         288.911         229.625         290.855 
       0.386598         282.017         222.808         284.577 
       0.392688         278.343          216.55         279.053 
        0.39888         271.257         210.592         271.967 
       0.405048          265.92         204.902         267.866 
       0.411186           260.3         199.337         262.229 
       0.417313         254.788         193.796         254.722 
       0.423458         249.805         188.271         249.907 
       0.429607         243.764         182.812         244.725 
       0.435692         236.799         177.559         240.028 
       0.441815         235.234         172.509         237.203 
       0.447964         231.424         167.722         231.655 
       0.454126         221.899         163.216         225.973 
       0.460267          219.45         159.006         223.433 
       0.466387         216.265         155.036         218.747 
        0.47254         212.496         151.202         215.253 
       0.478662         210.066         147.494         211.181 
       0.484765         204.948         143.878         206.348 
       0.490885         201.675         140.311         203.889 
       0.497035         199.011         136.789          201.21 
       0.503198         193.933          133.35         197.437 
       0.509342         190.913         130.041          194.63 
       0.515458         188.381         126.879         192.865 
       0.521598         186.266          123.84         188.343 
       0.527764         183.256         120.926         184.361 
       0.533884         180.117         118.161         182.075 
           0.54         177.577         115.504          179.63 
       0.546137         176.138         112.919         177.721 
       0.552299         173.519         110.388         174.176 
       0.558452          169.82         107.922         171.425 
       0.564573         166.786         105.528          169.84 
       0.570708         165.066         103.191         167.262 
       0.576825          162.52         100.925         164.505 
       0.582926         160.132         98.7329         162.202 
       0.589034         157.077         96.6106         160.608 
       0.595184         155.641         94.5502         158.195 
       0.601379         154.302         92.5505         156.854 
       0.607522          150.51         90.6338         153.781 
       0.613639         150.455         88.7818         152.284 
       0.619772         146.915         86.9744         149.849 
       0.625918         145.774         85.2082         148.874 
       0.632068         144.099         83.4855         146.256 
       0.638161         142.477         81.8234         145.213 
         0.6443         140.612         80.1939         142.915 
       0.650464          138.84         78.6037         140.524 
       0.656582         137.449         77.0696         139.685 
       0.662703          134.91         75.5776         137.505 
       0.668861         133.807         74.1183         136.249 
       0.675024         132.174         72.6984          134.41 
       0.681124         130.762         71.3319         132.976 
       0.687237         128.584         69.9995         131.273 
       0.693381         127.277          68.696          129.75 
       0.699536         125.775         67.4241         128.998 
       0.705665          126.38         66.1901         127.884 
       0.711789         123.013         64.9878         125.406 
       0.717957         122.476         63.8065         124.652 
        0.72409         120.698         62.6608          124.03 
       0.730186         118.775         61.5499         122.389 
       0.736317         118.609         60.4601         120.782 
       0.742472         117.102          59.393          119.69 
       0.748622         116.344         58.3533         118.316 
        0.75476         115.019         57.3414         117.173 
       0.760888          113.58         56.3559         115.852 
       0.767043         112.422         55.3903         115.276 
       0.773185         111.258           54.45          114.38 
       0.779291         110.435         53.5373         113.203 
       0.785407         109.606         52.6446         111.746 
       0.791564         108.047         51.7669         110.741 
       0.797719         106.772         50.9099         109.962 
       0.803834         106.391         50.0779         108.622 
       0.809972           104.6         49.2616         107.828 
       0.816124         103.876          48.462         107.125 
       0.822261         103.236         47.6824         105.822 
       0.828378         102.201         46.9226         104.508 
       0.834502         101.249         46.1788         104.363 
       0.840667         100.461         45.4466         103.453 
       0.846816         99.4011         44.7325         102.405 
       0.852925         98.3654         44.0385         101.661 
       0.859047         97.1713          43.358         100.465 
       0.865192         96.9936         42.6898         99.8975 
       0.871341         96.2283         42.0355         98.9485 
       0.877463         94.6999          41.398         98.3293 
       0.883569         94.1966         40.7756         97.6438 
       0.889708         93.7245         40.1629         96.7129 
       0.895864         92.7798         39.5615         96.0196 
       0.902008         92.1457         38.9738         95.2303 
       0.908149         91.4433         38.3985         94.5035 
       0.914301         90.5475         37.8341         94.0246 
       0.920448         89.7245         37.2816         93.1067 
       0.926574         89.2303         36.7423         92.0211 
       0.932687         88.5317          36.215         91.6782 
       0.938823          87.318         35.6962         90.8158 
       0.944975          87.178         35.1866         90.0981 
       0.951105         86.2677         34.6889          89.699 
       0.957225          85.276         34.2017         89.0628 
       0.963368         84.9479         33.7224         88.0949 
       0.969511         84.4515         33.2523         87.5548 
       0.975621         83.8215         32.7939         87.4271 
       0.981748         82.9439          32.343         86.5167 
       0.987916         82.5348         31.8979          86.029 
        0.99406         82.1191         31.4629          85.438 
        1.00019         80.9002         31.0369         84.8209 
        1.00632          80.741         30.6194         84.3065 
        1.01246          79.899         30.2089          83.611 
        1.01859         79.1278         29.8068         83.0433 
        1.02471          79.358         29.4126         82.6378 
        1.03085         78.4132         29.0242         82.0072 
        1.03698         77.6272         28.6438          81.394 
        1.04314         76.8858         28.2686         80.8065 
        1.04929         76.7169         27.9011         80.5413 
        1.05541         75.9805         27.5417         80.1892 
        1.06154         75.7057         27.1878         79.4272 
        1.06769         75.0201         26.8396         78.9993 
        1.07382         74.6285         26.4988         78.5252 
        1.07993         74.3768         26.1647         77.8891 
        1.08607         73.6079         25.8351         77.3925 
        1.09222         73.3233         25.5109         76.9289 
        1.09836         72.6899         25.1926         76.5233 
        1.10449         72.2559         24.8803         75.9351 
        1.11063         71.3866          24.573         75.4519 
        1.11677         71.1254          24.271         75.0441 
         1.1229         70.9007         23.9747         74.6904 
        1.12903         69.9249         23.6831          74.191 
        1.13518         69.8783         23.3962         73.6917 
        1.14131         69.6444         23.1142         73.3673 
        1.14745         68.7614         22.8371         72.8958 
        1.15359          68.499         22.5646         72.7192 
        1.15973         67.8527         22.2964         72.1371 
        1.16584         67.4208         22.0338         71.6742 
        1.17197         67.2201         21.7752         71.2202 
        1.17811         66.7008         21.5199         70.6672 
        1.18424         66.1013         21.2695         70.3103 
        1.19038          66.054         21.0224         70.2217 
        1.19652          65.613         20.7794         69.5582 
        1.20267         65.1137         20.5403         69.4085 
        1.20881         64.6619          20.305         68.9026 
        1.21495         64.2317         20.0738         68.6362 
        1.22108          63.805         19.8463         68.1511 
         1.2272         63.2327         19.6229         67.8984 
        1.23334         63.0269         19.4024         67.5018 
        1.23949         62.7651         19.1848         67.0177 
        1.24562         62.4393         18.9713         66.6958 
        1.25174         62.0531         18.7613          66.443 
        1.25789         61.7219         18.5539           66.01 
        1.26402         61.2923           18.35          65.631 
        1.27014         60.7711         18.1497         65.3194 
        1.27628         60.5493         17.9518         64.9612 
        1.28244         60.0718         17.7565         64.7328 
        1.28858         59.8361         17.5644         64.3532 
        1.29471         59.5856         17.3756         64.0706 
        1.30084         59.1776         17.1898          63.601 
        1.30697         58.6924         17.0065          63.235 
        1.31312         58.3012         16.8255         63.0935 
        1.31925         58.1596         16.6478         62.7212 
        1.32537         57.8368         16.4729         62.3961 
        1.33151         57.4645         16.2999         62.1221 
        1.33765         57.3316         16.1295         61.8412 
        1.34378         57.0373         15.9619         61.4914 
        1.34992         56.1809         15.7966         61.2029 
        1.35606         56.0661         15.6333         61.0225 
         1.3622         55.7146         15.4726         60.7005 
        1.36833         55.5432         15.3145         60.3563 
        1.37445         55.3857         15.1588         60.0525 
        1.38059         55.1255         15.0048         59.8757 
        1.38675         54.6941         14.8526         59.5359 
        1.39288         54.4043         14.7031         59.3342 
        1.39901         53.9644         14.5558          59.035 
        1.40515         53.7276         14.4101         58.6706 
         1.4113         53.6206         14.2666         58.4421 
        1.41742         52.9948         14.1255         58.3029 
        1.42355          53.006         13.9861         57.8109 
         1.4297         52.5514         13.8482         57.5439 
        1.43585         52.4786         13.7123         57.4019 
        1.44198         52.0664         13.5786         57.1569 
        1.44809          51.793         13.4471         56.7544 
        1.45423         51.6256         13.3168          56.494 
        1.46036         51.3154         13.1885         56.2705 
        1.46649         51.0368         13.0618         56.0575 
        1.47263         50.7727         12.9367         55.8609 
        1.47877         50.5265         12.8134          55.621 
        1.48491         50.2428         12.6914         55.2415 
        1.49104         50.0179         12.5714         55.0333 
        1.49718         49.6135         12.4528         54.7762 
        1.50333         49.4358         12.3355         54.6266 
        1.50947         49.1354           12.22         54.4511 
         1.5156         48.8824         12.1062         54.1746 
        1.52172         48.5902         11.9938         53.8858 
        1.52787         48.5629         11.8827         53.6371 
          1.534          48.176         11.7731         53.4625 
        1.54013         47.8634          11.665         53.1722 
        1.54627          47.814          11.558         52.8909 
        1.55241          47.507         11.4524         52.7322 
        1.55855         47.2281         11.3483         52.5603 
        1.56467          46.927         11.2458         52.2891 
         1.5708         46.7589         11.1443         52.1154 
        1.57695         46.4201         11.0438         51.8831 
        1.58308         46.4558         10.9449         51.5808 
        1.58922         46.1208         10.8471         51.4616 
        1.59535         45.7706         10.7506         51.3101 
         1.6015         45.6162         10.6551         51.0153 
        1.60764         45.4742         10.5608         50.7651 
        1.61376         45.2511         10.4679         50.6046 
        1.61989         44.7968         10.3761         50.3256 
        1.62604         44.7163         10.2852         50.2047 
        1.63218         44.3887         10.1954         50.0813 
        1.63831          44.266         10.1069         49.8015 
        1.64444         44.0937         10.0195         49.5507 
        1.65059         43.7063         9.93284         49.3888 
        1.65673         43.6176         9.84735         49.1833 
        1.66285         43.4235         9.76311         48.9952 
        1.66898         43.1136         9.67984         48.8825 
        1.67512         42.9548         9.59738         48.6796 
        1.68127         42.6441         9.51581         48.4252 
         1.6874         42.5801         9.43538         48.1825 
        1.69353         42.3514         9.35594         47.9828 
        1.69967         42.1549         9.27723         47.8189 
        1.70581         41.9065         9.19946         47.7221 
        1.71193         41.6295         9.12289         47.5708 
        1.71806         41.5397         9.04703         47.2209 
        1.72421         41.2597         8.97189           47.02 
        1.73035         41.1592          8.8977         46.9287 
        1.73649         40.9168         8.82436         46.7793 
        1.74262          40.667         8.75192         46.5082 
        1.74876         40.5692         8.68026         46.3258 
        1.75489         40.2672         8.60954         46.1936 
        1.76101         40.1089         8.53965         46.0174 
        1.76715         39.9223         8.47044         45.8374 
        1.77329         39.7731         8.40191         45.6574 
        1.77943         39.6004         8.33412         45.4947 
        1.78557         39.3726         8.26719         45.3503 
        1.79171         39.1722         8.20098         45.1597 
        1.79785         39.0223          8.1355         44.9973 
        1.80399         38.8493         8.07074         44.9011 
        1.81012          38.701         8.00678         44.6204 
        1.81625         38.4762         7.94355         44.3662 
        1.82239         38.3227         7.88091         44.2727 
        1.82853         37.9947         7.81898          44.156 
        1.83466         37.8657         7.75779         44.0004 
        1.84078         37.6179         7.69731         43.8529 
        1.84692         37.5838         7.63739         43.7449 
        1.85306         37.2921         7.57803         43.5517 
         1.8592         37.1949          7.5194         43.3348 
        1.86533          36.939         7.46143         43.2104 
        1.87147         36.8423         7.40401          43.061 
