# k  (h/Mpc)    P(k)  (Mpc/h)^3    P_linear(k)  (Mpc/h)^3     P_NL(k)  ShotnoiseSubtracted = false
     0.00783031         958.936         967.363         966.719 
       0.013688         1292.21         1293.54         1289.35 
       0.019231         1396.96         1397.44         1390.84 
      0.0249154         1363.94         1372.68         1367.74 
      0.0312784         1260.11         1262.86         1260.01 
      0.0375637         1131.11         1129.65         1127.42 
      0.0433917         1013.67         1016.81         1015.26 
      0.0492413         926.463         926.517         925.171 
      0.0555754         849.969         854.635         853.062 
      0.0619321         803.743         801.062         799.368 
       0.067871         754.241         757.732         755.687 
      0.0738098         708.844         713.006         710.229 
      0.0800417         654.391         660.457         657.797 
      0.0862327         599.707         603.275         601.338 
      0.0921407         546.331         548.007         546.397 
      0.0982031         492.819         495.513         494.806 
       0.104506         450.911         449.565          449.61 
       0.110769         415.435         414.327         414.046 
       0.116806         388.138         389.394         389.034 
       0.122832         371.397         370.879         370.697 
       0.129052         353.321         355.098         354.848 
       0.135211          337.49         339.662         339.406 
       0.141259         322.171         322.717         322.701 
       0.147318         304.267         303.471         303.946 
       0.153489         282.124         282.379         282.427 
       0.159709         261.934         261.289         261.965 
       0.165845         245.521         242.351          244.06 
       0.171974         227.838         226.441         228.154 
       0.178125         215.714          213.84          216.25 
       0.184229         206.849         204.256         206.728 
        0.19034         196.888         196.649         199.048 
       0.196428         191.692         189.935         191.801 
       0.202534         186.241         183.083         185.067 
       0.208729         177.591           175.4         177.291 
       0.214876         168.061         166.943         169.546 
       0.220989         161.444         158.038         160.925 
       0.227147         150.836         149.147           152.1 
        0.23329         143.099         140.939         144.554 
       0.239377         136.883          133.86         137.849 
       0.245482         129.897         127.947         131.639 
       0.251667         126.407         123.039         127.071 
       0.257832         122.115         118.916         122.882 
       0.263955         118.224         115.192         118.984 
       0.270079         114.625         111.486         115.139 
        0.27624         111.656         107.561         111.045 
       0.282372         107.337           103.4         107.096 
        0.28843         102.662         99.1333         102.927 
       0.294538         98.5091         94.8591         98.9145 
       0.300721         95.4127         90.7613         95.1523 
        0.30691         91.0651         87.0476         91.5367 
       0.313033         88.0254         83.8166         88.2324 
       0.319153         84.1077         81.0089         85.6804 
       0.325316         82.8835         78.5024         83.3234 
        0.33145         80.1685         76.2023         80.7586 
       0.337538         78.1776         73.9834         78.4202 
       0.343633         75.7066         71.7432         76.2253 
       0.349808         73.5689         69.4187         74.0281 
       0.355968         71.3381         67.0636         72.0736 
       0.362074         69.0107         64.7494         69.6486 
       0.368217         66.9173         62.5051         67.1338 
       0.374374         64.6632         60.4016         65.3221 
       0.380519          62.994         58.4734         63.3016 
       0.386598         61.2988         56.7378         61.6563 
       0.392688         59.9838          55.144         60.1041 
        0.39888         58.2996         53.6268          58.466 
       0.405048         56.9938          52.178         56.9284 
       0.411186         55.7299         50.7609         55.8346 
       0.417313         53.8754         49.3499         54.1944 
       0.423458         52.5882          47.943         52.8873 
       0.429607         51.0978         46.5526         51.4156 
       0.435692         49.6042          45.215         50.2172 
       0.441815         48.6446         43.9291         49.1658 
       0.447964          47.801         42.7101         47.8081 
       0.454126         46.0431         41.5626         46.5907 
       0.460267         45.1275         40.4908         45.6401 
       0.466387         43.8551         39.4797         44.4923 
        0.47254         43.2019         38.5033         43.5802 
       0.478662         42.3852         37.5591          42.577 
       0.484765         41.2651         36.6383         41.6331 
       0.490885            40.3         35.7301         40.9449 
       0.497035         39.7366          34.833         40.0901 
       0.503198         38.7394         33.9575         38.9885 
       0.509342         37.7859         33.1148         38.2549 
       0.515458         36.9546         32.3096         37.6358 
       0.521598         36.3114         31.5357         36.5848 
       0.527764         35.5245         30.7935         35.7608 
       0.533884         34.9058         30.0896          35.084 
           0.54         34.2105          29.413         34.3748 
       0.546137         33.6146         28.7548         33.8187 
       0.552299         33.0462         28.1102         33.0013 
       0.558452         32.0398         27.4821         32.3654 
       0.564573         31.6323         26.8727         31.9406 
       0.570708            31.1         26.2775         31.3045 
       0.576825         30.2905         25.7004         30.6999 
       0.582926         29.8004         25.1422         30.1853 
       0.589034         28.9718         24.6017         29.6953 
       0.595184         28.5838         24.0771         28.9755 
       0.601379         28.0645         23.5679         28.6177 
       0.607522         27.6122         23.0797         28.0387 
       0.613639          27.314         22.6082          27.536 
       0.619772         26.6111         22.1479         27.1348 
       0.625918          26.428         21.6981         26.6614 
       0.632068         25.9927         21.2595         26.1495 
       0.638161          25.417         20.8362         25.7027 
         0.6443         24.9134         20.4213         25.2362 
       0.650464         24.4547         20.0163          24.926 
       0.656582         24.2822         19.6257         24.5032 
       0.662703         23.8472         19.2457         24.0742 
       0.668861         23.4119         18.8741         23.7644 
       0.675024         22.9813         18.5125         23.2985 
       0.681124         22.6007         18.1646         22.9434 
       0.687237         22.2532         17.8253          22.517 
       0.693381         22.0079         17.4933         22.1748 
       0.699536         21.4301         17.1695         21.8554 
       0.705665         21.2565         16.8552         21.6346 
       0.711789         20.8817          16.549         21.2442 
       0.717957         20.5769         16.2482          20.896 
        0.72409         20.2513         15.9565         20.6309 
       0.730186         19.9985         15.6736         20.2845 
       0.736317         19.7773         15.3961         19.9862 
       0.742472         19.4624         15.1244         19.8237 
       0.748622         19.1894         14.8596         19.4757 
        0.75476         18.7894         14.6019         19.1623 
       0.760888         18.6047         14.3509         18.9273 
       0.767043         18.3721         14.1051         18.7115 
       0.773185          18.012         13.8656         18.4587 
       0.779291         17.8873         13.6332         18.2212 
       0.785407         17.6244         13.4059         17.9474 
       0.791564         17.3202         13.1824         17.7207 
       0.797719         17.0447         12.9641         17.4318 
       0.803834         16.9347         12.7523          17.199 
       0.809972         16.7788         12.5444         17.0694 
       0.816124         16.3947         12.3408         16.7782 
       0.822261         16.2284         12.1423         16.5558 
       0.828378         16.0339         11.9488         16.3571 
       0.834502         15.8709         11.7594         16.1751 
       0.840667         15.6299         11.5729         15.9465 
       0.846816         15.3688         11.3911         15.7825 
       0.852925         15.2304         11.2144         15.6407 
       0.859047         15.0481         11.0411         15.4089 
       0.865192         14.9181         10.8709         15.2157 
       0.871341         14.7649         10.7043         15.0655 
       0.877463         14.5294          10.542         14.8515 
       0.883569         14.3011         10.3834         14.7106 
       0.889708         14.0782         10.2274         14.5256 
       0.895864         14.0026         10.0743         14.3343 
       0.902008         13.8527         9.92462         14.1972 
       0.908149         13.6942         9.77812          14.034 
       0.914301         13.5252         9.63439         13.9054 
       0.920448         13.3035         9.49372         13.6856 
       0.926574         13.1679         9.35639         13.5574 
       0.932687          13.057          9.2221         13.3399 
       0.938823          12.876            9.09          13.257 
       0.944975         12.7077         8.96022         13.0884 
       0.951105         12.6066         8.83347         12.9178 
       0.957225         12.5233         8.70942          12.855 
       0.963368         12.3528         8.58736         12.6795 
       0.969511          12.235         8.46767         12.5665 
       0.975621         12.0908         8.35092         12.3834 
       0.981748         11.9624         8.23611         12.2713 
       0.987916         11.8523         8.12275         12.1643 
        0.99406         11.6752         8.01198          12.038 
        1.00019         11.4993         7.90351         11.9399 
        1.00632         11.4856         7.79718         11.8036 
        1.01246         11.3565         7.69267         11.7118 
        1.01859         11.1913         7.59027         11.5573 
        1.02471         11.1046         7.48988         11.4122 
        1.03085         11.0017         7.39098         11.3153 
        1.03698         10.8403         7.29409         11.2217 
        1.04314         10.7653         7.19856         11.0973 
        1.04929         10.6209         7.10497         11.0007 
        1.05541         10.5125         7.01345         10.9062 
        1.06154         10.4212         6.92333         10.7964 
        1.06769         10.3758         6.83468         10.7081 
        1.07382         10.2095         6.74788         10.6055 
        1.07993          10.122         6.66281          10.502 
        1.08607         10.0462         6.57887         10.3833 
        1.09222         9.94643         6.49631         10.2846 
        1.09836         9.84495         6.41527         10.1835 
        1.10449          9.7498         6.33573         10.0956 
        1.11063         9.66869         6.25747         10.0067 
        1.11677         9.58835         6.18057         9.92139 
         1.1229         9.50266         6.10512         9.84287 
        1.12903         9.41002         6.03087         9.77528 
        1.13518         9.30601          5.9578         9.68636 
        1.14131          9.2031         5.88601         9.57629 
        1.14745         9.10894         5.81544         9.46575 
        1.15359         9.05853         5.74604         9.40927 
        1.15973         8.97532         5.67775         9.33046 
        1.16584         8.86205         5.61089         9.27642 
        1.17197          8.7967         5.54502         9.17506 
        1.17811         8.73847         5.48002         9.08845 
        1.18424         8.67438         5.41626         9.01603 
        1.19038         8.61388         5.35334         8.94088 
        1.19652         8.52811         5.29145          8.8831 
        1.20267         8.42155         5.23055         8.77453 
        1.20881          8.3869         5.17064         8.73253 
        1.21495         8.31635         5.11177         8.65973 
        1.22108         8.22161         5.05383         8.59111 
         1.2272         8.18249         4.99694         8.49706 
        1.23334         8.07143          4.9408         8.44244 
        1.23949         8.01333          4.8854         8.39207 
        1.24562         7.97489         4.83101         8.31643 
        1.25174         7.88344         4.77754         8.24032 
        1.25789         7.83125         4.72472         8.17581 
        1.26402         7.77422          4.6728         8.09503 
        1.27014         7.70229         4.62179         8.04895 
        1.27628         7.63991          4.5714         8.00356 
        1.28244         7.55052         4.52168         7.93828 
        1.28858         7.53178         4.47276          7.8676 
        1.29471         7.45467         4.42468         7.80688 
        1.30084         7.38269         4.37736         7.76218 
        1.30697         7.38089         4.33067         7.69644 
        1.31312           7.239          4.2846         7.64473 
        1.31925         7.21701         4.23935         7.59496 
        1.32537         7.15528         4.19481         7.53958 
        1.33151         7.12899         4.15075         7.48178 
        1.33765         7.03752         4.10736         7.41345 
        1.34378         6.98313         4.06468         7.37683 
        1.34992         6.95113         4.02258         7.31818 
        1.35606         6.88234         3.98099         7.24256 
         1.3622         6.84561         3.94007         7.20157 
        1.36833         6.79291         3.89983         7.17711 
        1.37445         6.74625         3.86018         7.11519 
        1.38059         6.71402         3.82096         7.06008 
        1.38675         6.65462          3.7822         7.00672 
        1.39288         6.59823         3.74413         6.96646 
        1.39901         6.53437         3.70661         6.92331 
        1.40515         6.50494         3.66953         6.86961 
         1.4113         6.45898         3.63297         6.82196 
        1.41742         6.41208         3.59705         6.78225 
        1.42355         6.35739         3.56156         6.71923 
         1.4297         6.30096         3.52644         6.69128 
        1.43585         6.28293         3.49181         6.65589 
        1.44198          6.2543         3.45779          6.5875 
        1.44809         6.17965         3.42428         6.56542 
        1.45423         6.13459         3.39111         6.50904 
        1.46036         6.09367         3.35843         6.46705 
        1.46649         6.04178         3.32618          6.4354 
        1.47263         5.99828         3.29433         6.39406 
        1.47877         5.95492         3.26291         6.34551 
        1.48491         5.91972         3.23186         6.30655 
        1.49104         5.88882         3.20128          6.2618 
        1.49718         5.84513         3.17108         6.22633 
        1.50333         5.80996         3.14122          6.1924 
        1.50947         5.76618         3.11181         6.15227 
         1.5156         5.73127         3.08282         6.11316 
        1.52172         5.69865         3.05421         6.07654 
        1.52787          5.6613          3.0259         6.02972 
          1.534         5.61553         2.99799         5.99104 
        1.54013         5.58942         2.97047         5.95794 
        1.54627         5.53304         2.94324         5.92514 
        1.55241         5.50033         2.91635         5.88758 
        1.55855         5.47944         2.88984         5.84104 
        1.56467         5.43712         2.86373         5.81994 
         1.5708         5.40016         2.83787         5.78654 
        1.57695         5.35773          2.8123         5.74443 
        1.58308          5.3215          2.7871         5.72056 
        1.58922         5.30411          2.7622         5.68744 
        1.59535         5.27136         2.73762          5.6488 
         1.6015         5.23323          2.7133          5.6113 
        1.60764         5.20009         2.68929          5.5852 
        1.61376         5.16686         2.66564         5.56186 
        1.61989         5.13874         2.64225         5.52487 
        1.62604         5.09974          2.6191         5.49012 
        1.63218         5.08433         2.59624         5.46244 
        1.63831         5.04674         2.57371         5.43204 
        1.64444         5.01349         2.55144         5.39441 
        1.65059         4.96925         2.52939         5.36672 
        1.65673         4.95319         2.50762         5.33851 
        1.66285         4.90801         2.48617         5.30799 
        1.66898         4.89125         2.46496          5.2786 
        1.67512         4.85474         2.44396          5.2505 
        1.68127         4.82922         2.42319         5.22694 
         1.6874         4.80762         2.40271         5.19968 
        1.69353         4.76364         2.38248         5.16128 
        1.69967         4.74429         2.36244         5.13111 
        1.70581         4.71874         2.34263         5.11268 
        1.71193         4.69399         2.32313          5.0933 
        1.71806          4.6671         2.30382         5.05846 
        1.72421         4.63569         2.28468         5.02739 
        1.73035         4.61574         2.26579         5.00113 
        1.73649         4.58248         2.24711         4.97406 
        1.74262         4.54861         2.22867         4.94585 
        1.74876          4.5416         2.21042         4.92593 
        1.75489         4.51346         2.19241         4.90186 
        1.76101         4.47439         2.17461         4.86695 
        1.76715         4.45548         2.15699         4.83868 
        1.77329         4.43381         2.13954         4.81964 
        1.77943          4.3939         2.12228         4.79903 
        1.78557           4.385         2.10523         4.77095 
        1.79171         4.35378         2.08837         4.74463 
        1.79785           4.329         2.07169         4.72093 
        1.80399         4.30684         2.05521         4.69733 
        1.81012         4.28945         2.03892         4.67824 
        1.81625         4.25754         2.02282         4.65542 
        1.82239         4.23477         2.00687         4.63139 
        1.82853         4.21124          1.9911         4.61773 
        1.83466         4.19903         1.97551          4.5992 
        1.84078         4.17302         1.96011         4.56916 
        1.84692          4.1542         1.94485         4.53591 
        1.85306         4.11994         1.92974         4.51314 
         1.8592         4.09691         1.91481          4.4974 
        1.86533         4.07904         1.90005         4.47773 
        1.87147         4.06278         1.88542         4.45891 
        1.87761         4.03886         1.87095         4.43934 
