# k  (h/Mpc)    Pcb(k)  (Mpc/h)^3    Pcb_linear(k) (Mpc/h)^3    Pcb_NL(k) (Mpc/h)^3   ShotnoiseSubtracted = false
     0.00783031         207.553         209.199         209.004 
       0.013688         278.891         279.817         278.954 
       0.019231         301.999         302.324         301.016 
      0.0249154         295.752         296.984          296.08 
      0.0312784         272.898         273.234         272.853 
      0.0375637         244.674         244.416          244.23 
      0.0433917         219.868         220.004         219.997 
      0.0492413         200.627          200.47         200.501 
      0.0555754         184.634         184.918         184.901 
      0.0619321         173.701         173.327         173.276 
       0.067871         163.686         163.952         163.822 
      0.0738098         153.901         154.275         154.072 
      0.0800417          142.35         142.905         142.718 
      0.0862327         130.231         130.533         130.404 
      0.0921407         118.444         118.575         118.501 
      0.0982031         106.988         107.217         107.213 
       0.104506         97.4287         97.2746         97.3213 
       0.110769         89.7645         89.6502         89.6825 
       0.116806         84.0805         84.2552         84.2573 
       0.122832         80.2614         80.2492         80.2455 
       0.129052         76.6179         76.8345         76.8082 
       0.135211          73.202         73.4947         73.4527 
       0.141259         69.6924         69.8281          69.795 
       0.147318         65.6852         65.6638         65.6593 
       0.153489         61.0152         61.1001         61.0884 
       0.159709         56.4935         56.5366         56.5656 
       0.165845         52.6579         52.4389         52.5246 
       0.171974         48.9807         48.9965         49.0842 
       0.178125         46.2954         46.2699         46.3897 
       0.184229         44.3029         44.1962         44.3147 
        0.19034         42.4328         42.5502          42.659 
       0.196428         41.0963         41.0973         41.1732 
       0.202534         39.7785         39.6149         39.6919 
       0.208729         37.9949         37.9526          38.025 
       0.214876         36.0465         36.1225         36.2305 
       0.220989         34.3697         34.1957         34.3218 
       0.227147         32.2329          32.272          32.404 
        0.23329         30.4847         30.4959         30.6627 
       0.239377         29.0029         28.9641         29.1518 
       0.245482         27.6674         27.6846         27.8579 
       0.251667         26.7304         26.6228          26.811 
       0.257832         25.7892         25.7306         25.9132 
       0.263955         24.9917          24.925         25.0957 
       0.270079         24.2024          24.123         24.2843 
        0.27624         23.4452         23.2738         23.4256 
       0.282372          22.533         22.3733          22.538 
        0.28843         21.5402         21.4501         21.6223 
       0.294538         20.6354         20.5253         20.7107 
       0.300721         19.8331         19.6387         19.8413 
        0.30691         18.9567         18.8351         19.0423 
       0.313033         18.2755          18.136         18.3407 
       0.319153         17.5386         17.5284         17.7466 
       0.325316         17.1736         16.9861         17.2107 
        0.33145         16.6396         16.4884         16.6988 
       0.337538         16.1512         16.0083         16.2112 
       0.343633         15.6385         15.5236         15.7251 
       0.349808         15.1658         15.0206         15.2296 
       0.355968         14.6674          14.511         14.7462 
       0.362074         14.1574         14.0103         14.2369 
       0.368217         13.6835         13.5247          13.735 
       0.374374         13.1798         13.0695         13.2978 
       0.380519         12.8156         12.6523         12.8743 
       0.386598         12.4536         12.2767         12.5063 
       0.392688         12.1343         11.9319         12.1599 
        0.39888          11.783         11.6036         11.8282 
       0.405048         11.4806         11.2901         11.5033 
       0.411186         11.1876         10.9835         11.2181 
       0.417313          10.839         10.6782         10.9034 
       0.423458         10.5631         10.3737         10.6035 
       0.429607         10.2359         10.0729         10.2962 
       0.435692         9.94627         9.78348         10.0164 
       0.441815         9.68007         9.50522         9.75157 
       0.447964         9.46239         9.24148          9.4806 
       0.454126         9.16142         8.99322         9.22885 
       0.460267         8.92895         8.76126          9.0026 
       0.466387         8.68999         8.54249           8.774 
        0.47254         8.50028         8.33122         8.56493 
       0.478662         8.30871         8.12693         8.35652 
       0.484765          8.0912         7.92768         8.15975 
       0.490885         7.89407         7.73116         7.97848 
       0.497035         7.74881         7.53707         7.78598 
       0.503198          7.5388         7.34762         7.57844 
       0.509342         7.36647         7.16529         7.40291 
       0.515458         7.17265         6.99105         7.23918 
       0.521598         7.01412          6.8236         7.05436 
       0.527764          6.8366         6.66301         6.89317 
       0.533884         6.71091          6.5107         6.74243 
           0.54         6.55658         6.36428         6.59199 
       0.546137         6.42465         6.22185         6.45424 
       0.552299         6.28149          6.0824          6.3009 
       0.558452         6.11699         5.94648         6.16821 
       0.564573         6.00589         5.81462         6.05271 
       0.570708         5.87992         5.68585         5.91942 
       0.576825         5.73798         5.56098         5.79081 
       0.582926         5.63574         5.44019         5.67378 
       0.589034         5.47744         5.32325         5.56293 
       0.595184         5.37795         5.20972         5.42941 
       0.601379         5.26632         5.09954         5.33379 
       0.607522         5.17826         4.99393         5.22467 
       0.613639         5.09518         4.89188          5.1197 
       0.619772         4.96518          4.7923         5.02692 
       0.625918         4.88076         4.69498         4.92155 
       0.632068         4.79924         4.60006         4.82372 
       0.638161         4.68995         4.50848         4.73087 
         0.6443         4.59655         4.41869         4.63757 
       0.650464         4.49555         4.33107         4.55821 
       0.656582         4.43023         4.24654         4.47037 
       0.662703         4.34842         4.16433         4.38543 
       0.668861         4.27767         4.08393         4.31127 
       0.675024         4.18443         4.00569         4.22741 
       0.681124         4.10037          3.9304          4.1494 
       0.687237         4.04096         3.85698         4.06846 
       0.693381         3.97102         3.78515         3.99199 
       0.699536         3.87109         3.71507         3.92423 
       0.705665         3.81026         3.64708         3.86832 
       0.711789         3.75195         3.58083          3.7986 
       0.717957         3.67875         3.51574         3.72677 
        0.72409         3.61833         3.45261         3.66394 
       0.730186         3.55616         3.39141         3.59701 
       0.736317         3.51269         3.33136         3.53544 
       0.742472         3.45067         3.27256         3.48761 
       0.748622         3.38592         3.21527         3.42909 
        0.75476         3.31406         3.15952         3.36452 
       0.760888         3.26383         3.10521         3.31203 
       0.767043         3.22783         3.05201         3.26069 
       0.773185         3.16087          3.0002         3.21097 
       0.779291         3.11545         2.94991         3.15918 
       0.785407          3.0658         2.90072         3.10671 
       0.791564         3.01674         2.85236         3.05826 
       0.797719         2.97472         2.80514         3.00346 
       0.803834          2.9294          2.7593         2.96001 
       0.809972         2.88339         2.71432         2.92028 
       0.816124         2.83107         2.67026         2.86895 
       0.822261         2.78213         2.62731         2.82492 
       0.828378         2.74822         2.58544         2.78245 
       0.834502         2.71302         2.54446          2.7377 
       0.840667         2.65793         2.50411         2.69938 
       0.846816         2.61915         2.46477         2.66653 
       0.852925         2.59125         2.42653         2.62369 
       0.859047         2.55203         2.38903         2.59067 
       0.865192         2.51245         2.35221         2.54939 
       0.871341         2.47501         2.31616         2.51085 
       0.877463         2.44812         2.28103         2.47324 
       0.883569          2.4031         2.24674         2.44166 
       0.889708         2.36648         2.21298         2.40698 
       0.895864         2.33551         2.17984         2.37139 
       0.902008         2.29768         2.14746         2.33822 
       0.908149         2.26699         2.11576         2.30787 
       0.914301         2.22502         2.08466         2.27233 
       0.920448         2.19837         2.05422         2.23988 
       0.926574          2.1661         2.02451         2.21139 
       0.932687         2.13877         1.99545         2.17678 
       0.938823         2.11764         1.96687         2.15636 
       0.944975         2.08578         1.93878         2.11898 
       0.951105         2.05929         1.91136         2.09151 
       0.957225         2.03897         1.88452         2.06926 
       0.963368         2.00813         1.85811         2.03869 
       0.969511         1.97671         1.83221         2.01265 
       0.975621         1.94617         1.80695         1.98021 
       0.981748         1.92965          1.7821          1.9566 
       0.987916         1.90231         1.75758         1.93753 
        0.99406         1.87329         1.73361         1.91358 
        1.00019         1.85512         1.71014         1.88925 
        1.00632         1.82496         1.68713         1.86244 
        1.01246          1.8028         1.66452          1.8379 
        1.01859         1.78323         1.64236         1.81677 
        1.02471         1.75796         1.62064         1.79497 
        1.03085         1.74126         1.59924         1.76855 
        1.03698         1.71484         1.57827         1.74621 
        1.04314         1.69597          1.5576         1.72682 
        1.04929         1.67214         1.53735         1.70589 
        1.05541         1.65503         1.51755         1.68776 
        1.06154         1.63203         1.49805         1.66733 
        1.06769         1.61137         1.47887          1.6465 
        1.07382         1.59454         1.46009         1.62699 
        1.07993         1.56984         1.44168         1.60754 
        1.08607         1.55932         1.42352         1.58916 
        1.09222         1.53625         1.40565         1.56857 
        1.09836         1.52488         1.38812         1.55231 
        1.10449         1.50563         1.37091         1.53433 
        1.11063         1.48257         1.35397         1.51413 
        1.11677          1.4639         1.33733         1.49927 
         1.1229         1.44876         1.32101         1.48248 
        1.12903         1.43003         1.30494         1.46498 
        1.13518         1.41873         1.28913           1.449 
        1.14131         1.39799          1.2736         1.43311 
        1.14745         1.37476         1.25833         1.41427 
        1.15359          1.3668         1.24331         1.40038 
        1.15973         1.34516         1.22853         1.38628 
        1.16584         1.33988         1.21407          1.3693 
        1.17197         1.32104         1.19981         1.35445 
        1.17811          1.3073         1.18575          1.3414 
        1.18424         1.29804         1.17195         1.32422 
        1.19038         1.27861         1.15834         1.31071 
        1.19652           1.262         1.14495          1.2977 
        1.20267         1.25351         1.13177         1.28021 
        1.20881         1.23539         1.11881         1.26935 
        1.21495         1.22657         1.10607         1.25896 
        1.22108         1.21313         1.09353         1.24291 
         1.2272         1.20218         1.08122         1.22792 
        1.23334         1.18655         1.06907         1.21673 
        1.23949         1.17344         1.05709         1.20629 
        1.24562         1.16282         1.04532         1.19337 
        1.25174         1.15041         1.03375         1.17914 
        1.25789         1.13978         1.02232         1.16677 
        1.26402         1.12335         1.01109         1.15518 
        1.27014         1.11273         1.00005         1.14354 
        1.27628          1.1056        0.989147         1.13175 
        1.28244         1.08862        0.978386         1.12039 
        1.28858          1.0797        0.967802          1.1073 
        1.29471         1.07132        0.957399         1.09776 
        1.30084         1.05767        0.947161         1.08956 
        1.30697         1.04754        0.937058         1.07782 
        1.31312         1.03239        0.927089         1.06671 
        1.31925         1.02582        0.917298         1.05755 
        1.32537         1.01704        0.907659         1.04741 
        1.33151         1.00822        0.898126         1.03701 
        1.33765         0.99714        0.888737         1.02697 
        1.34378         0.98431        0.879502         1.01767 
        1.34992        0.978279        0.870393         1.00829 
        1.35606        0.966732        0.861395        0.996512 
         1.3622        0.958436        0.852541        0.987577 
        1.36833        0.948645        0.843833        0.979482 
        1.37445         0.93679        0.835253        0.970842 
        1.38059        0.928136        0.826768        0.960779 
        1.38675        0.926384         0.81838         0.95163 
        1.39288        0.912923        0.810144        0.942542 
        1.39901        0.904903        0.802025        0.934597 
        1.40515        0.897169        0.794001         0.92531 
         1.4113        0.886694         0.78609        0.917617 
        1.41742        0.878699        0.778319        0.911587 
        1.42355        0.874648        0.770639        0.899578 
         1.4297         0.86255         0.76304        0.893947 
        1.43585        0.855945        0.755548        0.885707 
        1.44198        0.851404        0.748185        0.874423 
        1.44809        0.839491        0.740936        0.870431 
        1.45423        0.832849        0.733757        0.859362 
        1.46036        0.825147        0.726687        0.852954 
        1.46649        0.818447        0.719708        0.847666 
        1.47263         0.80975        0.712817         0.83929 
        1.47877        0.801816        0.706019        0.831656 
        1.48491        0.795485          0.6993        0.825605 
        1.49104        0.786943        0.692683        0.816482 
        1.49718        0.781881        0.686148        0.811528 
        1.50333        0.774991        0.679688        0.801887 
        1.50947        0.768305        0.673324        0.794713 
         1.5156         0.76102        0.667052        0.789907 
        1.52172        0.754328        0.660861        0.782052 
        1.52787        0.747279        0.654736        0.775277 
          1.534        0.741982        0.648697        0.769747 
        1.54013        0.732848        0.642741        0.763144 
        1.54627        0.728137        0.636849        0.756197 
        1.55241         0.72128        0.631031        0.749812 
        1.55855        0.713869        0.625294        0.743788 
        1.56467        0.711267        0.619645        0.738453 
         1.5708        0.703075         0.61405        0.731186 
        1.57695        0.698457        0.608517        0.724601 
        1.58308        0.691817        0.603065        0.720169 
        1.58922        0.686438        0.597677        0.714402 
        1.59535        0.680348        0.592357        0.707929 
         1.6015        0.674601        0.587095        0.701377 
        1.60764        0.669426          0.5819        0.696732 
        1.61376        0.661997        0.576782        0.692911 
        1.61989        0.658333        0.571723        0.686678 
        1.62604        0.653036        0.566713        0.680844 
        1.63218        0.648501        0.561767        0.675754 
        1.63831        0.642362        0.556892        0.670383 
        1.64444         0.63683        0.552074        0.664467 
        1.65059        0.631831        0.547301        0.659052 
        1.65673        0.626706        0.542591        0.654405 
        1.66285        0.621777        0.537949        0.649547 
        1.66898        0.617529         0.53336        0.643915 
        1.67512        0.611015        0.528817        0.638915 
        1.68127         0.60625        0.524323        0.634473 
         1.6874        0.603086        0.519891        0.630041 
        1.69353        0.597078        0.515514        0.625033 
        1.69967        0.593407        0.511177         0.61955 
        1.70581        0.587625        0.506892        0.614943 
        1.71193        0.583318        0.502672        0.610853 
        1.71806        0.578393        0.498493        0.605923 
        1.72421        0.574875        0.494353         0.60199 
        1.73035        0.569556        0.490264        0.597347 
        1.73649        0.566385        0.486224        0.591616 
        1.74262        0.561541        0.482232        0.587336 
        1.74876        0.556836        0.478283        0.584009 
        1.75489        0.553032        0.474387         0.57996 
        1.76101         0.54735        0.470536        0.575048 
        1.76715        0.544045        0.466722        0.571232 
        1.77329        0.539696        0.462947        0.567568 
        1.77943        0.535633        0.459212        0.563282 
        1.78557        0.532114        0.455524        0.558617 
        1.79171        0.527941        0.451876        0.554036 
        1.79785        0.523983        0.448267        0.550239 
        1.80399        0.519885        0.444699           0.547 
        1.81012         0.51655        0.441175        0.541827 
        1.81625        0.512181        0.437691        0.537602 
        1.82239        0.509331         0.43424        0.535356 
        1.82853        0.503597        0.430827        0.532057 
        1.83466        0.501184        0.427455        0.527747 
        1.84078         0.49704        0.424123        0.523606 
        1.84692        0.493904        0.420821        0.520521 
        1.85306        0.490534        0.417551         0.51644 
         1.8592        0.486652         0.41432        0.512079 
        1.86533        0.483653        0.411126        0.509137 
        1.87147        0.479792        0.407962        0.505881 
