# k  (h/Mpc)    P(k)  (Mpc/h)^3    P_linear(k)  (Mpc/h)^3     P_NL(k)  ShotnoiseSubtracted = false
     0.00783031          365.77         368.757         368.449 
       0.013688         491.883         493.186         491.652 
       0.019231         532.389         532.835         530.481 
      0.0249154         520.932         523.414         521.761 
      0.0312784         480.859          481.55           480.8 
      0.0375637         431.273         430.758         430.318 
      0.0433917         387.256         387.732         387.602 
      0.0492413          353.53         353.305         353.248 
      0.0555754         325.073         325.896         325.749 
      0.0619321         306.275         305.468         305.272 
       0.067871         288.279         288.946         288.608 
      0.0738098         271.009         271.891         271.391 
      0.0800417         250.538         251.853         251.383 
      0.0862327         229.318         230.048         229.717 
      0.0921407         208.648         208.973         208.747 
      0.0982031         188.387         188.955         188.898 
       0.104506         171.776         171.434          171.51 
       0.110769         158.258         157.997         158.026 
       0.116806         148.113         148.489         148.469 
       0.122832         141.493         141.429         141.416 
       0.129052         134.942         135.411         135.362 
       0.135211         128.907         129.525         129.454 
       0.141259         122.819         123.063         123.024 
       0.147318         115.832         115.724         115.766 
       0.153489         107.536         107.681         107.677 
       0.159709         99.6219         99.6383         99.7425 
       0.165845         93.0072         92.4166         92.6859 
       0.171974         86.4255         86.3499         86.6207 
       0.178125         81.7244         81.5446         81.9177 
       0.184229         78.2545         77.8899         78.2679 
        0.19034         74.8203         74.9892         75.3478 
       0.196428         72.5613         72.4287         72.6964 
       0.202534         70.3207         69.8161         70.0952 
       0.208729         67.1231         66.8863         67.1526 
       0.214876         63.6243         63.6611         64.0363 
       0.220989         60.8017         60.2654         60.6891 
       0.227147          56.935         56.8751          57.311 
        0.23329         53.8837         53.7449         54.2847 
       0.239377          51.327         51.0453         51.6468 
       0.245482         48.9041         48.7906         49.3465 
       0.251667         47.3391         46.9191         47.5245 
       0.257832         45.6774         45.3468         45.9391 
       0.263955         44.2556         43.9269          44.487 
       0.270079         42.8724         42.5136         43.0482 
        0.27624          41.594         41.0168         41.5237 
       0.282372         39.9781           39.43         39.9742 
        0.28843         38.2073          37.803          38.367 
       0.294538         36.6196         36.1731         36.7762 
       0.300721         35.2628         34.6105         35.2653 
        0.30691         33.6833         33.1943         33.8628 
       0.313033         32.4919         31.9622         32.6214 
       0.319153         31.1262         30.8916         31.5926 
       0.325316         30.5603         29.9357         30.6581 
        0.33145         29.5909         29.0586         29.7389 
       0.337538         28.7458         28.2125         28.8717 
       0.343633          27.829         27.3582         28.0161 
       0.349808         27.0078         26.4718         27.1515 
       0.355968         26.1333         25.5737         26.3294 
       0.362074          25.237         24.6912         25.4219 
       0.368217         24.4108         23.8354         24.5176 
       0.374374         23.5181         23.0333         23.7683 
       0.380519         22.8876          22.298          23.014 
       0.386598         22.2509         21.6361         22.3734 
       0.392688         21.7053         21.0284          21.764 
        0.39888         21.0766         20.4498          21.173 
       0.405048         20.5549         19.8973         20.5903 
       0.411186          20.048         19.3569          20.113 
       0.417313         19.4018         18.8188         19.5436 
       0.423458         18.9181         18.2824         19.0218 
       0.429607         18.3397         17.7522         18.4731 
       0.435692         17.8212         17.2421         17.9904 
       0.441815         17.3692         16.7517         17.5396 
       0.447964         17.0087         16.2869         17.0525 
       0.454126         16.4423         15.8493         16.6043 
       0.460267         16.0466         15.4406         16.2135 
       0.466387         15.6007          15.055         15.7998 
        0.47254         15.2921         14.6827         15.4355 
       0.478662         14.9624         14.3226         15.0638 
       0.484765         14.5655         13.9715         14.7174 
       0.490885         14.2108         13.6251         14.4147 
       0.497035          13.976         13.2831         14.0777 
       0.503198         13.6018         12.9492         13.6932 
       0.509342         13.2877         12.6278          13.392 
       0.515458         12.9447         12.3208         13.1163 
       0.521598         12.6741         12.0257         12.7699 
       0.527764         12.3604         11.7427         12.4822 
       0.533884         12.1394         11.4742         12.2181 
           0.54         11.8675         11.2162         11.9493 
       0.546137         11.6363         10.9652         11.7135 
       0.552299         11.3913         10.7194         11.4294 
       0.558452         11.0734         10.4799         11.1964 
       0.564573         10.8967         10.2475         11.0085 
       0.570708          10.676         10.0205         10.7696 
       0.576825         10.4071         9.80047         10.5401 
       0.582926         10.2314         9.58761         10.3381 
       0.589034         9.93581          9.3815         10.1468 
       0.595184         9.77035         9.18143         9.89358 
       0.601379         9.56765         8.98726         9.73895 
       0.607522         9.41875         8.80112         9.54106 
       0.613639         9.28037         8.62129         9.35295 
       0.619772         9.03869         8.44579         9.19574 
       0.625918         8.90934         8.27426         9.00414 
       0.632068         8.76555         8.10699         8.82806 
       0.638161         8.55852         7.94558           8.662 
         0.6443         8.38718         7.78735         8.49407 
       0.650464         8.20613         7.63293         8.36248 
       0.656582         8.10844         7.48395         8.20435 
       0.662703         7.96054         7.33907         8.05205 
       0.668861           7.827         7.19737         7.92638 
       0.675024         7.65857         7.05949         7.77054 
       0.681124         7.51543         6.92679         7.63257 
       0.687237          7.4072         6.79741         7.48188 
       0.693381         7.28661         6.67083         7.34549 
       0.699536         7.09447         6.54732         7.22574 
       0.705665         6.99285         6.42749         7.13744 
       0.711789         6.88611         6.31073           7.009 
       0.717957         6.75842         6.19602          6.8762 
        0.72409         6.64587         6.08477         6.76759 
       0.730186         6.54382          5.9769         6.64459 
       0.736317         6.46944         5.87107         6.53448 
       0.742472         6.36097         5.76745            6.46 
       0.748622         6.24236         5.66648         6.35129 
        0.75476         6.10286         5.56823         6.23144 
       0.760888          6.0256         5.47252         6.14063 
       0.767043         5.95555         5.37876         6.05312 
       0.773185         5.83124         5.28745         5.96569 
       0.779291         5.76077         5.19882         5.87275 
       0.785407         5.66756         5.11213         5.77632 
       0.791564         5.57652         5.02691         5.69117 
       0.797719         5.49995         4.94368         5.58782 
       0.803834         5.42531         4.86289         5.51135 
       0.809972          5.3502         4.78363         5.44847 
       0.816124         5.24603         4.70598         5.35066 
       0.822261         5.15825         4.63028         5.27244 
       0.828378          5.0983         4.55649         5.19672 
       0.834502         5.03945         4.48427         5.11595 
       0.840667          4.9371         4.41316         5.04719 
       0.846816         4.86388         4.34382         4.99019 
       0.852925         4.81619         4.27643         4.91517 
       0.859047         4.74627         4.21035         4.85625 
       0.865192         4.68439         4.14546         4.78126 
       0.871341         4.61936         4.08192          4.7148 
       0.877463         4.56348         4.02002         4.64408 
       0.883569         4.47887         3.95958         4.58996 
       0.889708         4.40853         3.90008         4.52722 
       0.895864         4.36055         3.84168         4.46118 
       0.902008         4.29219         3.78461          4.4041 
       0.908149         4.23961         3.72874         4.34901 
       0.914301          4.1626         3.67393         4.28671 
       0.920448         4.11051         3.62029         4.22359 
       0.926574         4.05188         3.56792         4.17607 
       0.932687         4.00993         3.51671         4.10663 
       0.938823         3.96542         3.46634         4.07615 
       0.944975         3.90803         3.41685         4.00648 
       0.951105         3.86203         3.36851         3.95656 
       0.957225         3.83256         3.32121         3.92051 
       0.963368         3.77313         3.27466         3.86383 
       0.969511         3.71788         3.22902         3.81789 
       0.975621          3.6606          3.1845         3.75447 
       0.981748         3.62889         3.14072         3.71284 
       0.987916          3.5811         3.09749         3.68179 
        0.99406         3.52345         3.05525         3.63754 
        1.00019         3.48751         3.01389         3.59684 
        1.00632         3.44216         2.97334         3.54658 
        1.01246         3.40382         2.93349         3.50244 
        1.01859         3.36423         2.89444         3.46111 
        1.02471         3.31904         2.85615         3.41932 
        1.03085         3.28522         2.81844         3.37316 
        1.03698         3.23843          2.7815         3.33517 
        1.04314         3.20527         2.74506         3.29915 
        1.04929         3.16136         2.70938         3.26175 
        1.05541         3.12848         2.67448         3.22989 
        1.06154         3.09073         2.64011         3.19314 
        1.06769          3.0588          2.6063         3.15716 
        1.07382         3.02142         2.57321          3.1205 
        1.07993         2.97584         2.54077         3.08437 
        1.08607          2.9578         2.50876         3.05003 
        1.09222         2.91795         2.47727         3.01156 
        1.09836         2.89661         2.44637         2.98276 
        1.10449         2.86032         2.41604         2.95138 
        1.11063          2.8207          2.3862         2.91271 
        1.11677         2.78787         2.35687          2.8867 
         1.1229         2.75705          2.3281         2.85821 
        1.12903         2.72439         2.29978         2.82545 
        1.13518          2.7043         2.27192         2.79771 
        1.14131         2.66261         2.24454         2.76596 
        1.14745         2.62047         2.21763         2.73047 
        1.15359         2.60886         2.19117         2.70853 
        1.15973         2.56772         2.16513         2.68109 
        1.16584         2.55901         2.13963         2.65197 
        1.17197         2.52487         2.11451         2.62376 
        1.17811         2.49747         2.08972         2.59933 
        1.18424         2.48247         2.06541         2.56803 
        1.19038         2.44825         2.04142         2.54339 
        1.19652         2.42063         2.01782         2.52171 
        1.20267         2.40132          1.9946         2.48709 
        1.20881         2.36738         1.97175         2.46732 
        1.21495         2.35149          1.9493         2.44981 
        1.22108         2.32803          1.9272         2.42141 
         1.2272         2.30993         1.90551         2.39142 
        1.23334         2.27861          1.8841         2.37243 
        1.23949          2.2532         1.86297         2.35564 
        1.24562         2.23783         1.84223          2.3314 
        1.25174         2.21031         1.82184         2.30267 
        1.25789         2.19161          1.8017         2.27982 
        1.26402         2.16146          1.7819         2.25712 
        1.27014         2.14082         1.76245         2.23959 
        1.27628         2.13117         1.74324         2.21928 
        1.28244         2.09919         1.72427         2.19519 
        1.28858         2.08345         1.70562         2.17115 
        1.29471         2.06449         1.68729         2.15242 
        1.30084         2.04127         1.66924         2.13944 
        1.30697         2.02519         1.65144         2.11846 
        1.31312         1.99369         1.63387         2.09797 
        1.31925         1.98465         1.61661         2.08163 
        1.32537         1.96713         1.59963         2.06175 
        1.33151         1.95086         1.58283          2.0427 
        1.33765         1.92767         1.56628          2.0238 
        1.34378         1.90558            1.55         2.00871 
        1.34992         1.89762         1.53395         1.99098 
        1.35606         1.87228         1.51809         1.96661 
         1.3622         1.85986         1.50249         1.95145 
        1.36833         1.84146         1.48714         1.93863 
        1.37445         1.82061         1.47202         1.92153 
        1.38059          1.8052         1.45707         1.90364 
        1.38675         1.80046         1.44229         1.88451 
        1.39288         1.77386         1.42777         1.87052 
        1.39901         1.75832         1.41346         1.85582 
        1.40515         1.74503         1.39932         1.83644 
         1.4113         1.72758         1.38538         1.82228 
        1.41742         1.71284         1.37168         1.81326 
        1.42355         1.70583         1.35815         1.78834 
         1.4297         1.68111         1.34476         1.78148 
        1.43585         1.67077         1.33155         1.76718 
        1.44198         1.66162         1.31858         1.74311 
        1.44809         1.63718          1.3058         1.73695 
        1.45423          1.6255         1.29315         1.71588 
        1.46036         1.61236         1.28069         1.70344 
        1.46649         1.59718         1.26839         1.69451 
        1.47263         1.58161         1.25624         1.67944 
        1.47877         1.56736         1.24426          1.6628 
        1.48491         1.55503         1.23242         1.65263 
        1.49104         1.54296         1.22076         1.63686 
        1.49718         1.53323         1.20924          1.6268 
        1.50333         1.51743         1.19786         1.60943 
        1.50947         1.50725         1.18664         1.59585 
         1.5156         1.49416         1.17559         1.58657 
        1.52172         1.48072         1.16468         1.57293 
        1.52787         1.46686         1.15388         1.55963 
          1.534         1.45979         1.14324         1.54865 
        1.54013         1.44081         1.13274         1.53648 
        1.54627         1.42949         1.12236         1.52344 
        1.55241         1.41852         1.11211         1.51154 
        1.55855         1.40708           1.102         1.50077 
        1.56467         1.39839         1.09204         1.49059 
         1.5708         1.38168         1.08218         1.47646 
        1.57695         1.37658         1.07243         1.46597 
        1.58308         1.36449         1.06282         1.45886 
        1.58922         1.35366         1.05333          1.4463 
        1.59535         1.34303         1.04395         1.43402 
         1.6015          1.3324         1.03468         1.42221 
        1.60764         1.32316         1.02552         1.41339 
        1.61376         1.31026          1.0165         1.40598 
        1.61989         1.30155         1.00759         1.39431 
        1.62604         1.29096        0.998756          1.3841 
        1.63218         1.28441         0.99004         1.37489 
        1.63831          1.2696        0.981448          1.3642 
        1.64444         1.26013        0.972956         1.35268 
        1.65059         1.25203        0.964545         1.34266 
        1.65673         1.24185        0.956243         1.33458 
        1.66285         1.23088        0.948063          1.3254 
        1.66898          1.2251        0.939976         1.31392 
        1.67512         1.21197        0.931969         1.30514 
        1.68127          1.2043        0.924049         1.29742 
         1.6874         1.19745        0.916238          1.2886 
        1.69353          1.1856        0.908524         1.27821 
        1.69967         1.17708         0.90088         1.26869 
        1.70581         1.17028        0.893329         1.26135 
        1.71193         1.16039        0.885893         1.25392 
        1.71806         1.15318        0.878527          1.2434 
        1.72421         1.14405         0.87123         1.23526 
        1.73035         1.13424        0.864025         1.22691 
        1.73649         1.12836        0.856904         1.21684 
        1.74262         1.11975         0.84987         1.20846 
        1.74876         1.11075         0.84291         1.20202 
        1.75489          1.1019        0.836044         1.19456 
        1.76101         1.09298        0.829256         1.18527 
        1.76715         1.08658        0.822536         1.17743 
        1.77329         1.07873        0.815882         1.17013 
        1.77943         1.07042        0.809299          1.1624 
        1.78557          1.0625        0.802799         1.15435 
        1.79171         1.05626         0.79637         1.14598 
        1.79785         1.04844        0.790011         1.13819 
        1.80399         1.04139        0.783723         1.13106 
        1.81012         1.03528        0.777512         1.12193 
        1.81625         1.02555        0.771372         1.11459 
        1.82239         1.02041        0.765289         1.11029 
        1.82853         1.00864        0.759276         1.10485 
        1.83466         1.00447        0.753333         1.09697 
        1.84078        0.997059         0.74746         1.08837 
        1.84692        0.992109        0.741641         1.08169 
        1.85306        0.984042        0.735877         1.07437 
         1.8592        0.978641        0.730184         1.06696 
        1.86533        0.971289        0.724555         1.06109 
        1.87147        0.964616        0.718979         1.05406 
        1.87761         0.95881        0.713459         1.04755 
