# k  (h/Mpc)    Pcb(k)  (Mpc/h)^3    Pcb_linear(k) (Mpc/h)^3    Pcb_NL(k) (Mpc/h)^3   ShotnoiseSubtracted = false
     0.00783031         4099.91         4143.74          4141.4 
       0.013688         5555.69         5539.19         5517.28 
       0.019231         5984.29         5983.31          5946.9 
      0.0249154         5804.93         5876.87         5841.74 
      0.0312784         5372.61         5406.45          5373.3 
      0.0375637          4832.5            4836         4802.87 
      0.0433917         4304.37         4352.84         4318.73 
      0.0492413         3946.13         3966.27         3932.37 
      0.0555754         3593.15         3658.52         3624.02 
      0.0619321          3430.5         3429.16          3393.2 
       0.067871         3189.54         3243.65         3207.01 
      0.0738098         2995.47         3052.18         3005.42 
      0.0800417         2752.26         2827.22         2781.63 
      0.0862327         2530.95         2582.43         2547.79 
      0.0921407         2316.36         2345.84         2313.41 
      0.0982031         2085.98         2121.13         2102.23 
       0.104506         1928.26         1924.43          1916.9 
       0.110769         1777.05         1773.59         1760.92 
       0.116806         1657.39         1666.86         1654.61 
       0.122832          1588.6          1587.6         1578.91 
       0.129052         1499.71         1520.05         1511.55 
       0.135211         1433.89         1453.97         1445.78 
       0.141259         1375.43         1381.43         1377.77 
       0.147318         1302.27         1299.05         1302.07 
       0.153489         1204.03         1208.76         1204.84 
       0.159709         1128.66         1118.48          1124.1 
       0.165845          1069.6         1037.41         1058.39 
       0.171974         995.548          969.31         991.431 
       0.178125         944.848         915.369          948.53 
       0.184229         908.626         874.343         907.438 
        0.19034         855.936         841.781          874.54 
       0.196428         842.241         813.037         839.262 
       0.202534         819.986          783.71         812.138 
       0.208729          782.38         750.823         776.632 
       0.214876         740.837         714.618         750.628 
       0.220989         718.467           676.5         717.186 
       0.227147          674.01         638.442         681.245 
        0.23329         644.596         603.306         655.158 
       0.239377         626.069             573          628.91 
       0.245482         587.117         547.689         599.956 
       0.251667         579.136         526.682         583.882 
       0.257832         560.797         509.033          565.41 
       0.263955         543.059         493.094         547.989 
       0.270079         526.817          477.23         531.125 
        0.27624          519.03         460.428         512.801 
       0.282372         498.038         442.615          496.87 
        0.28843          481.75         424.351         479.349 
       0.294538         461.278         406.055         465.047 
       0.300721         455.658         388.514         451.636 
        0.30691         434.734         372.616         438.468 
       0.313033         424.339         358.787         423.464 
       0.319153         408.485         346.767         413.435 
       0.325316         398.986         336.038         405.047 
        0.33145         387.344         326.192         391.427 
       0.337538         382.427         316.693         381.398 
       0.343633         370.618         307.104         374.592 
       0.349808         359.968         297.155         366.076 
       0.355968         353.983         287.072         358.277 
       0.362074         344.924         277.167         348.485 
       0.368217         336.076          267.56         337.117 
       0.374374         325.527         258.555          330.09 
       0.380519         319.414         250.302         321.713 
       0.386598         311.919         242.871         314.975 
       0.392688         308.161          236.05          308.86 
        0.39888         300.264         229.555          301.26 
       0.405048           294.4         223.353         296.991 
       0.411186         288.172         217.287         290.505 
       0.417313         282.432         211.247         282.351 
       0.423458         277.009         205.225         277.128 
       0.429607         270.414         199.273         271.504 
       0.435692         262.909         193.547         266.352 
       0.441815         261.233         188.043         263.377 
       0.447964          256.92         182.825         257.371 
       0.454126         246.473         177.914         251.084 
       0.460267         243.852         173.325         248.443 
       0.466387          240.54         168.997         243.319 
        0.47254         236.187         164.817         239.496 
       0.478662          233.75         160.776         235.014 
       0.484765         228.018         156.834         229.666 
       0.490885         224.515         152.946         226.972 
       0.497035         221.518         149.106         224.094 
       0.503198         215.915         145.358         220.051 
       0.509342         212.899         141.751         217.005 
       0.515458         210.118         138.305         215.103 
       0.521598         207.729         134.992         210.195 
       0.527764         204.367         131.815         205.899 
       0.533884         200.977         128.802         203.419 
           0.54         198.238         125.905         200.737 
       0.546137         196.775         123.087         198.631 
       0.552299          193.73         120.329         194.767 
       0.558452         189.899          117.64         191.812 
       0.564573         186.528         115.031         190.093 
       0.570708          184.44         112.484         187.282 
       0.576825         181.784         110.013         184.144 
       0.582926         179.227         107.624         181.657 
       0.589034         175.978          105.31         179.914 
       0.595184         174.411         103.064           177.2 
       0.601379         172.945         100.885         175.885 
       0.607522         168.778         98.7952         172.577 
       0.613639         168.656         96.7764         170.901 
       0.619772         164.749         94.8063         168.225 
       0.625918         163.402          92.881         167.134 
       0.632068         161.589         91.0032         164.254 
       0.638161         159.966         89.1915         163.188 
         0.6443         157.829         87.4152         160.705 
       0.650464         155.941         85.6818         157.977 
       0.656582         154.404         84.0095         157.056 
       0.662703         151.645         82.3832         154.739 
       0.668861         150.361         80.7926         153.326 
       0.675024         148.572         79.2448         151.281 
       0.681124         147.188         77.7553         149.789 
       0.687237         144.686         76.3028         147.885 
       0.693381         143.142          74.882         146.222 
       0.699536         141.656         73.4955         145.337 
       0.705665         142.294         72.1504          144.21 
       0.711789         138.529         70.8398         141.464 
       0.717957         137.985         69.5522         140.581 
        0.72409         136.014         68.3032          139.96 
       0.730186         133.823         67.0924         138.171 
       0.736317         133.647         65.9045         136.385 
       0.742472         132.124         64.7413         135.177 
       0.748622         131.262         63.6079         133.668 
        0.75476         129.827         62.5049         132.378 
       0.760888         128.192         61.4306         130.876 
       0.767043          126.92         60.3781         130.266 
       0.773185         125.656         59.3531          129.33 
       0.779291         124.619         58.3582         128.004 
       0.785407         123.755         57.3851         126.376 
       0.791564         122.087         56.4284         125.325 
       0.797719         120.668         55.4942         124.463 
       0.803834         120.208         54.5873         122.918 
       0.809972         118.226         53.6976         122.059 
       0.816124         117.635         52.8259         121.338 
       0.822261          116.76         51.9762         119.924 
       0.828378         115.603         51.1479         118.422 
       0.834502         114.658         50.3372         118.246 
       0.840667         113.678          49.539         117.358 
       0.846816         112.577         48.7606         116.105 
       0.852925         111.344         48.0041         115.204 
       0.859047         110.071         47.2623         113.959 
       0.865192         109.882          46.534         113.366 
       0.871341         108.923         45.8207         112.249 
       0.877463         107.376         45.1258         111.633 
       0.883569         106.768         44.4474         110.801 
       0.889708         106.217         43.7795         109.839 
       0.895864         105.174         43.1239          109.08 
       0.902008          104.48         42.4833         108.147 
       0.908149          103.71         41.8562          107.33 
       0.914301         102.599          41.241         106.821 
       0.920448         101.843         40.6388         105.831 
       0.926574         101.242         40.0509         104.566 
       0.932687         100.506         39.4761         104.158 
       0.938823         99.1464         38.9106         103.251 
       0.944975         98.9396         38.3551         102.501 
       0.951105         97.9242         37.8125          101.98 
       0.957225         96.7795         37.2815         101.334 
       0.963368         96.4384          36.759         100.188 
       0.969511          95.885         36.2467         99.6077 
       0.975621         95.2486         35.7469         99.5827 
       0.981748         94.2911         35.2554         98.4784 
       0.987916         93.7555         34.7702         98.0029 
        0.99406         93.3042          34.296         97.2837 
        1.00019         91.9595         33.8317         96.5723 
        1.00632         91.7724         33.3766         96.0188 
        1.01246         90.7989         32.9292         95.2251 
        1.01859         89.8952         32.4909         94.6169 
        1.02471         90.2383         32.0611          94.193 
        1.03085         89.1712         31.6378         93.4684 
        1.03698         88.3001         31.2231         92.7667 
        1.04314         87.4645         30.8141          92.174 
        1.04929         87.2392         30.4135         91.8773 
        1.05541          86.476         30.0218         91.4499 
        1.06154         86.1179          29.636         90.6608 
        1.06769         85.3682         29.2565         90.1813 
        1.07382          84.975          28.885         89.6066 
        1.07993         84.6476         28.5208         88.9342 
        1.08607         83.8061         28.1615         88.3656 
        1.09222         83.4467         27.8081         87.7655 
        1.09836         82.7819         27.4612         87.3446 
        1.10449         82.2599         27.1207         86.7343 
        1.11063         81.3937         26.7857         86.1158 
        1.11677         81.0207         26.4565         85.6696 
         1.1229         80.7335         26.1335         85.3612 
        1.12903         79.6417         25.8157         84.7504 
        1.13518         79.6702         25.5029         84.2333 
        1.14131          79.321         25.1956         83.8255 
        1.14745         78.2813         24.8936         83.3052 
        1.15359         78.0233         24.5965          83.098 
        1.15973         77.3784         24.3041         82.4437 
        1.16584         76.8736         24.0179         81.9321 
        1.17197         76.5403          23.736         81.4494 
        1.17811         76.0402         23.4577         80.8239 
        1.18424         75.3323         23.1848         80.4078 
        1.19038         75.2375         22.9155         80.3102 
        1.19652         74.7831         22.6506         79.5574 
        1.20267         74.1983         22.3899         79.3819 
        1.20881         73.6932         22.1334         78.8058 
        1.21495            73.2         21.8814         78.4808 
        1.22108         72.7277         21.6334          77.996 
         1.2272         72.1425         21.3899         77.6882 
        1.23334         71.8665         21.1496         77.2219 
        1.23949         71.5854         20.9124         76.6957 
        1.24562         71.2167         20.6796          76.338 
        1.25174         70.7556         20.4507         76.0587 
        1.25789         70.3704         20.2246         75.5813 
        1.26402         69.8611         20.0024         75.1324 
        1.27014         69.2825          19.784         74.7919 
        1.27628         69.0608         19.5683         74.4103 
        1.28244         68.4599         19.3555         74.0731 
        1.28858         68.1924         19.1461         73.6872 
        1.29471         67.9549         18.9403         73.3952 
        1.30084         67.4735         18.7377         72.8087 
        1.30697         66.9034         18.5379         72.4145 
        1.31312         66.5072         18.3406         72.2902 
        1.31925         66.3515         18.1469          71.847 
        1.32537         65.9364         17.9563         71.4496 
        1.33151         65.5269         17.7677         71.1602 
        1.33765         65.3439         17.5819         70.8379 
        1.34378         64.9805         17.3992         70.4327 
        1.34992         64.1095          17.219         70.1155 
        1.35606         63.9303          17.041          69.899 
         1.3622         63.5067         16.8658          69.521 
        1.36833         63.3734         16.6936         69.0963 
        1.37445         63.1153         16.5239         68.8053 
        1.38059         62.7841          16.356          68.646 
        1.38675         62.3658         16.1901         68.1789 
        1.39288         61.9806         16.0271         67.9809 
        1.39901         61.5654         15.8665         67.6301 
        1.40515         61.2888         15.7078         67.2292 
         1.4113         61.1112         15.5513         66.9862 
        1.41742         60.4673         15.3975         66.8077 
        1.42355          60.436         15.2456         66.2637 
         1.4297         59.9155         15.0952         65.9551 
        1.43585         59.8044          14.947         65.7868 
        1.44198           59.41         14.8014         65.5438 
        1.44809          59.022          14.658         65.0194 
        1.45423         58.8621         14.5159         64.7583 
        1.46036         58.4584         14.3761         64.5277 
        1.46649         58.1771          14.238         64.2903 
        1.47263         57.8785         14.1017         64.0558 
        1.47877         57.6174         13.9672         63.7298 
        1.48491         57.2836         13.8343         63.3421 
        1.49104         56.9764         13.7034         63.0615 
        1.49718         56.5535         13.5741         62.7803 
        1.50333         56.3498         13.4463         62.6141 
        1.50947         55.9797         13.3204         62.4048 
         1.5156         55.7078         13.1963          62.106 
        1.52172         55.4394         13.0738          61.801 
        1.52787         55.3414         12.9527         61.5057 
          1.534         54.9309         12.8332          61.299 
        1.54013         54.5753         12.7154         60.9853 
        1.54627         54.5162         12.5988          60.661 
        1.55241          54.146         12.4837         60.4552 
        1.55855         53.7887         12.3702         60.2451 
        1.56467         53.4328         12.2585         59.9265 
         1.5708         53.2871         12.1478         59.7556 
        1.57695         52.9345         12.0383         59.5254 
        1.58308         52.9076         11.9305         59.1652 
        1.58922         52.5636         11.8239         58.9944 
        1.59535         52.2017         11.7186         58.8132 
         1.6015         51.9755         11.6145         58.4934 
        1.60764         51.8269         11.5117         58.2181 
        1.61376          51.583         11.4105         58.0319 
        1.61989         51.0332         11.3104          57.707 
        1.62604          50.946         11.2113         57.5229 
        1.63218         50.6203         11.1135         57.3734 
        1.63831         50.4258          11.017         57.0937 
        1.64444         50.2576         10.9217          56.803 
        1.65059         49.7794         10.8273         56.6131 
        1.65673         49.6614         10.7341         56.3612 
        1.66285         49.4805         10.6423         56.1412 
        1.66898         49.1087         10.5515         56.0389 
        1.67512         48.8937         10.4616         55.8192 
        1.68127         48.5706         10.3727         55.5042 
         1.6874         48.5071          10.285         55.2053 
        1.69353         48.1901         10.1984         55.0019 
        1.69967         48.0289         10.1126         54.8304 
        1.70581         47.7663         10.0279         54.7258 
        1.71193         47.4256         9.94439         54.5442 
        1.71806         47.2521          9.8617         54.1112 
        1.72421         46.9573         9.77979         53.8718 
        1.73035         46.8283         9.69892          53.798 
        1.73649         46.5829         9.61898         53.6521 
        1.74262         46.2956         9.54002         53.2923 
        1.74876         46.2333          9.4619         53.0733 
        1.75489         45.8313         9.38482          52.938 
        1.76101         45.6519         9.30863         52.7319 
        1.76715         45.4234         9.23318         52.5272 
        1.77329         45.2268         9.15849         52.3311 
        1.77943         45.0598          9.0846         52.1404 
        1.78557         44.8229         9.01164         51.9506 
        1.79171         44.5531         8.93947         51.7295 
        1.79785         44.3771         8.86808         51.5584 
        1.80399          44.164          8.7975         51.4507 
        1.81012         43.9971         8.72778         51.1075 
        1.81625         43.7186         8.65886         50.8085 
        1.82239         43.5624         8.59058         50.7182 
        1.82853         43.1963         8.52307         50.5915 
        1.83466         43.0457         8.45636          50.393 
        1.84078         42.7634         8.39044         50.1998 
        1.84692         42.6859         8.32512         50.0896 
        1.85306         42.3904         8.26042         49.8896 
         1.8592         42.2606         8.19651         49.6473 
        1.86533         41.9558         8.13332         49.5008 
        1.87147         41.8502         8.07073         49.3181 
