# k  (h/Mpc)    P(k)  (Mpc/h)^3    P_linear(k)  (Mpc/h)^3     P_NL(k)  ShotnoiseSubtracted = false
     0.00783031         9293.22         9412.48         9403.43 
       0.013688         12659.1         12579.5         12512.7 
       0.019231         13580.6         13586.8         13472.6 
      0.0249154         13079.6         13344.4         13210.2 
      0.0312784         12116.6         12275.8         12120.1 
      0.0375637         10917.9         10980.2         10817.5 
      0.0433917         9658.52         9883.08         9703.91 
      0.0492413         8879.31         9005.28         8823.69 
      0.0555754         8013.02         8306.47         8125.49 
      0.0619321         7715.54         7785.66         7598.55 
       0.067871         7102.29         7364.45         7179.14 
      0.0738098         6667.12         6929.69          6695.9 
      0.0800417         6091.97         6418.92         6191.19 
      0.0862327         5620.96         5863.14         5687.57 
      0.0921407         5175.21         5325.98         5160.41 
      0.0982031         4661.56         4815.78         4712.01 
       0.104506         4351.64          4369.2         4318.75 
       0.110769         4013.96         4026.73         3956.45 
       0.116806         3753.26         3784.39         3716.13 
       0.122832          3590.2         3604.45         3551.97 
       0.129052         3365.06         3451.07         3401.91 
       0.135211         3221.28         3301.05         3250.65 
       0.141259         3103.23         3136.36         3110.31 
       0.147318         2945.61         2949.31         2946.92 
       0.153489         2718.75         2744.33         2717.44 
       0.159709         2572.97         2539.35         2553.84 
       0.165845         2467.97          2355.3          2432.6 
       0.171974         2314.59         2200.68         2289.54 
       0.178125          2198.9         2078.22         2213.01 
       0.184229         2113.96         1985.07         2113.37 
        0.19034         1994.29         1911.14         2041.78 
       0.196428         1968.69         1845.89         1958.87 
       0.202534         1908.08          1779.3         1901.42 
       0.208729         1829.13         1704.63         1812.79 
       0.214876         1749.29         1622.44         1765.59 
       0.220989         1699.06          1535.9         1701.71 
       0.227147         1615.56         1449.49         1631.87 
        0.23329         1553.03         1369.72         1581.83 
       0.239377         1528.33         1300.92         1523.22 
       0.245482         1433.22         1243.45         1457.61 
       0.251667         1425.01         1195.76         1427.07 
       0.257832         1374.32         1155.68         1384.51 
       0.263955         1332.71          1119.5         1346.21 
       0.270079         1292.21         1083.48         1309.58 
        0.27624         1281.04         1045.33         1269.86 
       0.282372         1226.53         1004.89         1238.67 
        0.28843         1214.63         963.426         1203.92 
       0.294538         1157.14         921.887         1172.71 
       0.300721         1153.56         882.062         1140.38 
        0.30691          1104.9          845.97         1120.75 
       0.313033         1085.03          814.57         1086.71 
       0.319153         1064.09         787.284         1059.81 
       0.325316         1030.51         762.924         1044.49 
        0.33145         1007.17         740.571         1009.17 
       0.337538         995.117         719.006         991.573 
       0.343633         969.161         697.235         980.588 
       0.349808          939.28         674.644         962.365 
       0.355968         934.464         651.756         945.488 
       0.362074          921.77         629.265         924.746 
       0.368217         896.184         607.454         899.696 
       0.374374         861.757         587.011         884.409 
       0.380519         859.696         568.272         866.472 
       0.386598         840.718         551.404         854.948 
       0.392688         837.822         535.915         835.548 
        0.39888          813.82         521.171         824.819 
       0.405048          802.43          507.09         815.539 
       0.411186         790.111         493.318         796.177 
       0.417313         775.277         479.605         782.085 
       0.423458         763.746         465.933         770.782 
       0.429607         750.443          452.42         755.192 
       0.435692         735.289          439.42         742.663 
       0.441815         731.777         426.923         738.559 
       0.447964         716.024         415.077         726.035 
       0.454126         703.159         403.925         708.775 
       0.460267         691.792         393.508          706.62 
       0.466387         684.355         383.682          693.15 
        0.47254         673.359         374.193         685.614 
       0.478662          671.19         365.017         674.756 
       0.484765         653.445         356.068         663.526 
       0.490885         648.032         347.242         654.271 
       0.497035         635.499         338.524         648.291 
       0.503198         629.041         330.015           639.4 
       0.509342         622.966         321.825         631.124 
       0.515458         618.775             314         627.511 
       0.521598         606.182         306.478          618.28 
       0.527764         593.065         299.266         610.672 
       0.533884         592.844         292.425         603.823 
           0.54         585.232         285.849         596.484 
       0.546137         582.765         279.452         589.561 
       0.552299          572.66         273.187         581.828 
       0.558452         569.727         267.083         576.836 
       0.564573         560.501         261.161         571.952 
       0.570708         553.932         255.377         567.016 
       0.576825         541.361         249.768         557.601 
       0.582926         541.546         244.343         552.003 
       0.589034         536.352          239.09         544.535 
       0.595184         531.102         233.992         539.303 
       0.601379         525.314         229.043         535.546 
       0.607522         517.842         224.299         529.419 
       0.613639         517.371         219.716         525.627 
       0.619772         503.518         215.244         523.886 
       0.625918         502.732         210.872         517.301 
       0.632068         496.007         206.609         511.471 
       0.638161         494.142         202.496         505.466 
         0.6443         484.488         198.463         502.599 
       0.650464         482.413         194.528         494.577 
       0.656582         481.256         190.731         490.564 
       0.662703         477.298         187.039         488.964 
       0.668861         468.739         183.427         484.842 
       0.675024         465.183         179.913         480.615 
       0.681124         462.853         176.532         473.545 
       0.687237         458.139         173.234         469.658 
       0.693381         452.495         170.008         466.001 
       0.699536         447.276          166.86         463.041 
       0.705665          445.37         163.806         459.014 
       0.711789         441.271         160.831         454.918 
       0.717957         437.425         157.908         452.386 
        0.72409         433.916         155.072         448.919 
       0.730186         429.367         152.323         445.329 
       0.736317         425.949         149.626         440.524 
       0.742472         424.437         146.985         436.677 
       0.748622         419.698         144.412         433.211 
        0.75476         415.163         141.908         432.707 
       0.760888          410.48         139.469         427.426 
       0.767043         410.927         137.079         424.406 
       0.773185         405.207         134.752         421.264 
       0.779291         400.136         132.494         417.444 
       0.785407         398.159         130.284         414.935 
       0.791564         394.018         128.112         412.348 
       0.797719         391.607         125.991         408.987 
       0.803834         388.499         123.932         406.616 
       0.809972         386.069         121.912         403.773 
       0.816124         386.251         119.933         398.977 
       0.822261         379.616         118.004         396.922 
       0.828378         377.892         116.124         394.022 
       0.834502         375.557         114.283          392.26 
       0.840667         370.476         112.471         389.352 
       0.846816         369.266         110.704         386.818 
       0.852925         365.823         108.986         383.959 
       0.859047          365.02         107.302          381.25 
       0.865192         361.475         105.648         378.834 
       0.871341         358.329         104.029         376.357 
       0.877463         355.927         102.451         374.074 
       0.883569         353.449         100.911         371.829 
       0.889708         350.684         99.3948         368.633 
       0.895864         346.655         97.9063          366.63 
       0.902008         346.007         96.4518         364.102 
       0.908149          343.79         95.0282         360.848 
       0.914301         339.634         93.6313         359.179 
       0.920448         336.861         92.2642         355.942 
       0.926574         334.258         90.9296         353.901 
       0.932687         334.447         89.6245          351.09 
       0.938823             330         88.3407         350.634 
       0.944975         329.294         87.0794         348.429 
       0.951105         326.301         85.8476         345.568 
       0.957225         323.579          84.642         343.544 
       0.963368         319.794         83.4558         340.894 
       0.969511         318.173         82.2925         338.671 
       0.975621         315.725          81.158         337.726 
       0.981748         315.857         80.0421         335.204 
       0.987916         312.491         78.9405         333.751 
        0.99406         308.432         77.8639         331.739 
        1.00019         308.499         76.8098         328.521 
        1.00632         306.106         75.7764          326.44 
        1.01246         303.301         74.7608         324.436 
        1.01859         303.274         73.7656         322.739 
        1.02471         299.522         72.7899          321.53 
        1.03085         296.652         71.8288         319.808 
        1.03698         295.915         70.8872         318.131 
        1.04314         293.305         69.9588          315.83 
        1.04929         290.977         69.0493         313.526 
        1.05541         290.117         68.1598         311.727 
        1.06154         286.822          67.284         310.006 
        1.06769         285.754         66.4224         308.311 
        1.07382         284.021         65.5789         306.262 
        1.07993         281.851         64.7522          304.83 
        1.08607         280.965         63.9364         303.014 
        1.09222         278.617          63.134         301.113 
        1.09836         276.087         62.3465         300.221 
        1.10449         273.505         61.5735         298.146 
        1.11063         271.557         60.8129         296.208 
        1.11677         270.976         60.0655          294.54 
         1.1229         269.087         59.3322         293.245 
        1.12903         266.963         58.6106         291.772 
        1.13518         265.238         57.9006         289.869 
        1.14131         263.486         57.2028         288.342 
        1.14745         262.795         56.5171         286.715 
        1.15359         260.198         55.8425         285.075 
        1.15973         259.414         55.1789         283.382 
        1.16584         256.522         54.5291         281.129 
        1.17197         256.128         53.8889         280.109 
        1.17811         253.759         53.2572         279.122 
        1.18424         252.106         52.6376         277.627 
        1.19038         251.072         52.0261         276.103 
        1.19652         249.168         51.4247         274.928 
        1.20267         248.205         50.8328         272.588 
        1.20881         246.208         50.2506         271.868 
        1.21495          244.26         49.6784         269.684 
        1.22108         243.338         49.1153         268.477 
         1.2272         241.428         48.5624          266.34 
        1.23334          239.79         48.0168         265.378 
        1.23949         238.438         47.4784         264.737 
        1.24562         237.145         46.9499         262.877 
        1.25174         234.307         46.4302         261.873 
        1.25789         233.052         45.9169         260.366 
        1.26402         232.143         45.4123         258.686 
        1.27014         230.446         44.9166          257.81 
        1.27628         229.144         44.4269         256.943 
        1.28244         228.487         43.9436         255.143 
        1.28858         226.327         43.4682         253.656 
        1.29471         224.215          43.001         252.102 
        1.30084         223.134         42.5411         250.846 
        1.30697          221.63         42.0874         249.871 
        1.31312         220.244         41.6396         248.204 
        1.31925         219.702         41.1999         246.674 
        1.32537         218.209          40.767          245.84 
        1.33151         216.308         40.3388         244.656 
        1.33765         214.997         39.9171         243.154 
        1.34378         213.942         39.5023         241.983 
        1.34992         212.627         39.0932         240.527 
        1.35606         211.862          38.689         239.116 
         1.3622         210.337         38.2913         238.056 
        1.36833         208.447         37.9003         237.062 
        1.37445         206.812         37.5149         235.385 
        1.38059         205.664         37.1338         234.666 
        1.38675         204.558          36.757         233.472 
        1.39288         203.122         36.3871          231.59 
        1.39901         202.902         36.0225         230.992 
        1.40515         201.138         35.6621         230.044 
         1.4113          199.25         35.3068         228.567 
        1.41742         198.693         34.9577         227.497 
        1.42355         196.653         34.6128         226.734 
         1.4297         195.753         34.2715         225.416 
        1.43585         194.131         33.9349         224.288 
        1.44198         193.322         33.6043         223.083 
        1.44809         192.494         33.2787         221.946 
        1.45423         190.622         32.9562         220.729 
        1.46036         190.079         32.6387         219.654 
        1.46649         188.639         32.3252         218.951 
        1.47263         187.437         32.0157         218.222 
        1.47877         186.425         31.7104         216.734 
        1.48491         184.906         31.4086         215.644 
        1.49104         184.255         31.1114         214.812 
        1.49718         182.182         30.8179         213.356 
        1.50333         181.516         30.5277         212.484 
        1.50947         180.593         30.2419         211.612 
         1.5156         179.222         29.9602          210.44 
        1.52172          178.17         29.6821         209.353 
        1.52787         176.906         29.4071           208.4 
          1.534         176.353         29.1358         207.319 
        1.54013         174.531         28.8683         206.411 
        1.54627         174.128         28.6037         205.564 
        1.55241         172.537         28.3423         204.495 
        1.55855         171.638         28.0847          203.33 
        1.56467         170.657          27.831         202.345 
         1.5708         169.712         27.5797         201.674 
        1.57695         168.232         27.3312         200.729 
        1.58308         167.868         27.0863         199.553 
        1.58922         166.615         26.8443         198.651 
        1.59535         165.251         26.6053         197.741 
         1.6015         164.785          26.369         196.667 
        1.60764         163.418         26.1357         195.675 
        1.61376         162.245         25.9058         194.997 
        1.61989         161.325         25.6786          194.27 
        1.62604         160.561         25.4536         193.223 
        1.63218         159.521         25.2314         192.269 
        1.63831         158.465         25.0125         191.402 
        1.64444         157.668          24.796         190.307 
        1.65059          156.74         24.5817          189.61 
        1.65673         155.632         24.3701         188.734 
        1.66285         154.958         24.1616         187.743 
        1.66898         154.015         23.9555         186.938 
        1.67512         153.177         23.7515          186.13 
        1.68127         151.848         23.5496         185.285 
         1.6874         150.428         23.3506         184.545 
        1.69353          150.14          23.154         183.877 
        1.69967         149.154         22.9592         182.755 
        1.70581         148.249         22.7667         181.798 
        1.71193         147.193         22.5772         181.038 
        1.71806         146.513         22.3895         179.977 
        1.72421         145.676         22.2035         179.288 
        1.73035         144.595         22.0199         178.544 
        1.73649         144.086         21.8384         177.615 
        1.74262         142.949         21.6592         177.067 
        1.74876         142.414         21.4818         176.241 
        1.75489          140.94         21.3068         175.263 
        1.76101         140.449         21.1338         174.459 
        1.76715         139.538         20.9625         173.669 
        1.77329         138.972         20.7929         172.821 
        1.77943         137.799         20.6252         171.987 
        1.78557         137.039         20.4595         171.259 
        1.79171         136.235         20.2957          170.66 
        1.79785         135.366         20.1336         169.963 
        1.80399         134.629         19.9734         169.017 
        1.81012         133.812         19.8151         168.199 
        1.81625         133.007         19.6586         167.574 
        1.82239         132.436         19.5036         166.934 
        1.82853         131.761         19.3503         166.138 
        1.83466         130.777         19.1989         165.253 
        1.84078         130.139         19.0492         164.484 
        1.84692         129.064         18.9009         163.971 
        1.85306         128.456          18.754          163.22 
         1.8592         127.341         18.6089         162.432 
        1.86533         126.738         18.4655         161.925 
        1.87147         125.823         18.3234         161.097 
        1.87761         125.468         18.1827          160.24 
