# k  (h/Mpc)    Pcb(k)  (Mpc/h)^3    Pcb_linear(k) (Mpc/h)^3    Pcb_NL(k) (Mpc/h)^3   ShotnoiseSubtracted = false
     0.00783031         3433.91         3469.48         3467.61 
       0.013688         4649.04         4638.06         4620.47 
       0.019231         5010.86         5010.03         4980.99 
      0.0249154         4866.14         4920.96         4894.09 
      0.0312784          4502.7         4527.09         4503.14 
      0.0375637         4048.77         4049.43          4025.9 
      0.0433917         3610.15         3644.87         3621.23 
      0.0492413         3308.08         3321.18         3297.84 
      0.0555754         3016.28         3063.49         3039.59 
      0.0619321         2875.39         2871.43         2846.48 
       0.067871         2677.71          2716.1         2690.43 
      0.0738098         2515.07         2555.77         2522.87 
      0.0800417         2312.85          2367.4         2335.35 
      0.0862327         2125.67         2162.43         2138.18 
      0.0921407         1943.77         1964.32         1941.77 
      0.0982031         1750.73         1776.15          1763.3 
       0.104506         1615.61         1611.45         1606.73 
       0.110769         1488.82         1485.14         1476.69 
       0.116806         1388.52         1395.76         1387.58 
       0.122832         1330.92          1329.4         1323.75 
       0.129052         1258.06         1272.83         1267.26 
       0.135211         1202.58          1217.5         1212.18 
       0.141259         1152.72         1156.76         1154.59 
       0.147318         1091.04         1087.77         1090.55 
       0.153489         1009.13         1012.17         1009.85 
       0.159709         944.317         936.573         941.127 
       0.165845          893.27         868.691         884.417 
       0.171974         830.581         811.664         828.032 
       0.178125         788.101         766.496         790.838 
       0.184229         757.645         732.142         756.612 
        0.19034         714.539         704.876          729.01 
       0.196428         702.122         680.807          699.97 
       0.202534         683.667          656.25         676.997 
       0.208729         652.057         628.711         647.699 
       0.214876         617.014         598.395         624.918 
       0.220989         597.755         566.477           596.3 
       0.227147         559.892         534.608         565.777 
        0.23329          534.83         505.186         543.098 
       0.239377         518.141          479.81         520.878 
       0.245482         486.575         458.615         496.874 
       0.251667         479.075         441.024         482.918 
       0.257832         463.968         426.245         467.531 
       0.263955         449.121         412.899         452.982 
       0.270079         435.718         399.615         438.833 
        0.27624         428.515         385.546         423.494 
       0.282372         411.413         370.629         410.056 
        0.28843         396.825         355.336         395.329 
       0.294538         380.354         340.015         382.968 
       0.300721         374.571         325.327         371.494 
        0.30691         357.356         312.015          359.99 
       0.313033         348.181         300.435         347.519 
       0.319153         334.353          290.37         339.161 
       0.325316         327.295         281.386         331.879 
        0.33145         317.403         273.141         320.851 
       0.337538         312.928         265.188         312.319 
       0.343633          303.29         257.158          306.15 
       0.349808         294.648         248.826         298.911 
       0.355968         288.918         240.384         292.426 
       0.362074         281.049         232.089         284.107 
       0.368217         273.784         224.045         274.566 
       0.374374         265.553         216.505         268.683 
       0.380519         259.955         209.594         261.579 
       0.386598         253.651         203.372         255.776 
       0.392688         250.106         197.659         250.782 
        0.39888         243.761         192.221         244.246 
       0.405048         238.934         187.028         240.315 
       0.411186         233.904         181.949         235.449 
       0.417313          228.62         176.891         228.592 
       0.423458         224.068         171.848         224.182 
       0.429607         218.567         166.864         219.408 
       0.435692         212.169          162.07         215.148 
       0.441815         210.689          157.46         212.479 
       0.447964          207.33         153.091         207.382 
       0.454126         198.742         148.978         202.281 
       0.460267          196.45         145.136         199.854 
       0.466387         193.377         141.512         195.586 
        0.47254         190.145         138.012         192.417 
       0.478662         187.772         134.628         188.726 
       0.484765         183.214         131.327         184.393 
       0.490885         180.169         128.072         182.156 
       0.497035         177.798         124.856         179.667 
       0.503198         173.251         121.718         176.151 
       0.509342         170.271         118.698         173.585 
       0.515458          167.97         115.811         171.952 
       0.521598         166.076         113.037         167.808 
       0.527764         163.379         110.377         164.152 
       0.533884         160.529         107.854          162.05 
           0.54         158.179         105.428         159.824 
       0.546137         156.776         103.069         158.094 
       0.552299         154.524         100.759         154.868 
       0.558452         151.001         98.5073         152.331 
       0.564573         148.304         96.3229          150.87 
       0.570708         146.877         94.1896         148.531 
       0.576825         144.447         92.1211         146.113 
       0.582926         142.247         90.1201             144 
       0.589034         139.391         88.1829         142.536 
       0.595184         138.084         86.3023         140.381 
       0.601379         136.854         84.4771          139.05 
       0.607522         133.458         82.7275         136.238 
       0.613639         133.423         81.0371         134.885 
       0.619772          130.23         79.3874         132.708 
       0.625918         129.297         77.7752         131.825 
       0.632068         127.738         76.2028         129.452 
       0.638161         126.158         74.6857         128.428 
         0.6443         124.503         73.1983          126.33 
       0.650464         122.861         71.7469          124.27 
       0.656582         121.653         70.3466         123.479 
       0.662703         119.346         68.9847         121.464 
       0.668861         118.362         67.6528         120.344 
       0.675024         116.874         66.3567         118.696 
       0.681124         115.472         65.1095         117.331 
       0.687237         113.591         63.8932         115.816 
       0.693381         112.498         62.7035         114.433 
       0.699536         110.998         61.5425          113.78 
       0.705665         111.532         60.4161           112.7 
       0.711789         108.576         59.3187         110.496 
       0.717957         108.033         58.2405          109.84 
        0.72409         106.454         57.1947         109.214 
       0.730186         104.789         56.1808         107.724 
       0.736317         104.599          55.186         106.296 
       0.742472         103.143          54.212         105.315 
       0.748622         102.473         53.2629         104.059 
        0.75476         101.262         52.3394         103.061 
       0.760888         99.9931         51.4398         101.911 
       0.767043         98.9626         50.5585         101.355 
       0.773185         97.8864         49.7001         100.498 
       0.779291         97.2309         48.8671         99.4657 
       0.785407         96.4471         48.0523         98.1738 
       0.791564         95.0085         47.2511         97.2248 
       0.797719           93.85         46.4689         96.5212 
       0.803834         93.5491         45.7094         95.3681 
       0.809972         91.9757         44.9644         94.6336 
       0.816124         91.1308         44.2345         93.9403 
       0.822261         90.6741          43.523         92.7568 
       0.828378         89.7637         42.8294         91.6232 
       0.834502         88.8429         42.1505         91.4973 
       0.840667         88.1865         41.4822         90.5787 
       0.846816         87.1867         40.8304         89.7105 
       0.852925         86.3341         40.1969         89.1172 
       0.859047         85.2364         39.5758         87.9792 
       0.865192         85.0448         38.9659         87.4309 
       0.871341           84.44         38.3686         86.6418 
       0.877463         82.9799         37.7868         86.0238 
       0.883569          82.542         37.2186         85.4615 
       0.889708         82.1282         36.6594         84.5722 
       0.895864         81.2907         36.1104         83.9403 
       0.902008          80.714          35.574          83.269 
       0.908149         80.0775         35.0489         82.6342 
       0.914301         79.3866         34.5337         82.1866 
       0.920448         78.4955         34.0295         81.3451 
       0.926574         78.1107         33.5372         80.4237 
       0.932687         77.4354         33.0559         80.1108 
       0.938823         76.3835         32.5824         79.3232 
       0.944975         76.2594         32.1172          78.641 
       0.951105         75.4803         31.6628         78.3217 
       0.957225         74.6218         31.2182         77.7097 
       0.963368         74.2991         30.7807         76.9046 
       0.969511         73.8572         30.3516         76.4056 
       0.975621          73.266         29.9332         76.1957 
       0.981748         72.4673         29.5216         75.4606 
       0.987916         72.1333         29.1153         74.9571 
        0.99406          71.744         28.7183         74.4764 
        1.00019         70.6829         28.3295         73.9309 
        1.00632          70.542         27.9483         73.4661 
        1.01246         69.8265         27.5737          72.871 
        1.01859          69.153         27.2067         72.3485 
        1.02471         69.2848         26.8468         71.9586 
        1.03085         68.4748         26.4923          71.415 
        1.03698           67.74         26.1451         70.8742 
        1.04314         67.1088         25.8026         70.3064 
        1.04929         66.9605         25.4672         70.0666 
        1.05541         66.2762         25.1391         69.7744 
        1.06154         66.0534         24.8161         69.0532 
        1.06769         65.4561         24.4983         68.6659 
        1.07382         65.0744         24.1872         68.2887 
        1.07993         64.8638         23.8823         67.6933 
        1.08607         64.1655         23.5814         67.2618 
        1.09222         63.9334         23.2855         66.9128 
        1.09836         63.3239          22.995         66.5167 
        1.10449         62.9927         22.7099         65.9667 
        1.11063         62.1645         22.4294         65.6053 
        1.11677         61.9799         22.1538         65.2235 
         1.1229           61.79         21.8833         64.8426 
        1.12903         60.9455         21.6171         64.4359 
        1.13518         60.8217         21.3553         63.9543 
        1.14131         60.6723         21.0979         63.6915 
        1.14745         59.9525          20.845         63.2837 
        1.15359         59.6875         20.5962            63.1 
        1.15973          59.075         20.3514         62.6156 
        1.16584         58.6928         20.1118         62.2073 
        1.17197         58.6052         19.8757         61.7843 
        1.17811         58.0586         19.6427         61.2911 
        1.18424         57.5515         19.4141         61.0022 
        1.19038         57.5254         19.1886         60.8983 
        1.19652         57.1201         18.9668         60.3239 
        1.20267         56.6973         18.7485         60.1755 
        1.20881         56.3046         18.5337         59.7552 
        1.21495         55.9164         18.3227         59.5314 
        1.22108         55.5427          18.115         59.0617 
         1.2272         55.0045         17.9111         58.8438 
        1.23334          54.844         17.7099         58.5183 
        1.23949         54.5786         17.5113         58.0729 
        1.24562         54.3224         17.3163         57.7949 
        1.25174         53.9956         17.1247         57.5584 
        1.25789         53.7118         16.9354         57.1729 
        1.26402         53.3692         16.7493         56.8554 
        1.27014         52.8853         16.5664         56.5779 
        1.27628         52.6571         16.3858         56.2423 
        1.28244          52.301         16.2076         56.0925 
        1.28858         52.0861         16.0322         55.7177 
        1.29471         51.8141         15.8599         55.4545 
        1.30084         51.4751         15.6903         55.0967 
        1.30697         51.0702         15.5229          54.754 
        1.31312          50.698         15.3578         54.5919 
        1.31925         50.5657         15.1956         54.2933 
        1.32537         50.3193         15.0359         54.0313 
        1.33151         49.9708          14.878         53.7697 
        1.33765         49.8621         14.7225         53.5258 
        1.34378         49.6309         14.5695         53.2279 
        1.34992         48.8448         14.4186         52.9714 
        1.35606         48.7748         14.2695         52.8009 
         1.3622           48.48         14.1229         52.5363 
        1.36833         48.2783         13.9786         52.2553 
        1.37445         48.1805         13.8365         51.9464 
        1.38059         47.9616         13.6959         51.7568 
        1.38675         47.5472          13.557         51.5186 
        1.39288         47.3296         13.4205         51.3112 
        1.39901         46.9245          13.286         51.0627 
        1.40515         46.7111         13.1531         50.7518 
         1.4113         46.6189         13.0221         50.5386 
        1.41742         46.0682         12.8933         50.4046 
        1.42355         46.0861         12.7661         49.9721 
         1.4297         45.7047         12.6402         49.7529 
        1.43585         45.6317         12.5161         49.6351 
        1.44198          45.227         12.3941         49.3897 
        1.44809         45.0507         12.2741         49.0982 
        1.45423         44.8769         12.1551         48.8418 
        1.46036         44.6484          12.038         48.6276 
        1.46649         44.3749         11.9224         48.4391 
        1.47263         44.1355         11.8082         48.2745 
        1.47877         43.9131         11.6956         48.1019 
        1.48491         43.6739         11.5843         47.7419 
        1.49104         43.5245         11.4747         47.5842 
        1.49718         43.1437         11.3665         47.3599 
        1.50333         42.9897         11.2594         47.2169 
        1.50947         42.7572          11.154         47.0683 
         1.5156         42.5179         11.0501         46.8216 
        1.52172         42.2131         10.9476         46.5485 
        1.52787         42.2203         10.8461         46.3407 
          1.534         41.8889         10.7461           46.19 
        1.54013         41.6055         10.6474         45.9294 
        1.54627         41.5542         10.5498         45.6936 
        1.55241         41.2799         10.4534         45.5679 
        1.55855         41.0733         10.3584          45.418 
        1.56467         40.8438         10.2648         45.1864 
         1.5708         40.6659         10.1721         45.0199 
        1.57695         40.3315         10.0805         44.8037 
        1.58308          40.398         9.99014         44.5589 
        1.58922         40.0927         9.90088         44.4709 
        1.59535         39.7804         9.81275         44.3346 
         1.6015         39.6585         9.72558         44.0709 
        1.60764         39.5418         9.63952         43.8484 
        1.61376         39.3295         9.55475         43.7062 
        1.61989         38.9556         9.47094         43.4796 
        1.62604         38.8882         9.38795         43.4019 
        1.63218         38.5894         9.30602         43.2876 
        1.63831          38.511         9.22526         43.0203 
        1.64444         38.3228         9.14543         42.8178 
        1.65059         38.0387         9.06637          42.673 
        1.65673         37.9584         8.98834         42.5075 
        1.66285         37.7641         8.91145         42.3489 
        1.66898         37.5154         8.83544         42.2202 
        1.67512         37.3945         8.76017          42.034 
        1.68127         37.1015         8.68572         41.8336 
         1.6874         37.0282         8.61231         41.6384 
        1.69353         36.8951         8.53979         41.4459 
        1.69967         36.6417         8.46795         41.3003 
        1.70581         36.4313         8.39697         41.2117 
        1.71193         36.2051         8.32707         41.0807 
        1.71806         36.1638         8.25783         40.8099 
        1.72421         35.9388         8.18925         40.6462 
        1.73035         35.8365         8.12153         40.5404 
        1.73649         35.5838         8.05459         40.3874 
        1.74262          35.415         7.98847         40.1881 
        1.74876         35.2782         7.92305         40.0374 
        1.75489         35.0531         7.85851         39.9086 
        1.76101          34.936         7.79471         39.7547 
        1.76715          34.778         7.73154         39.5953 
        1.77329         34.6582         7.66899         39.4314 
        1.77943         34.4855         7.60712         39.2972 
        1.78557         34.2817         7.54602         39.1963 
        1.79171         34.1337         7.48559          39.032 
        1.79785         33.9966         7.42581         38.8743 
        1.80399         33.8563         7.36671         38.7874 
        1.81012          33.719         7.30833         38.5659 
        1.81625         33.5411         7.25061         38.3619 
        1.82239         33.4004         7.19344         38.2745 
        1.82853          33.126         7.13691         38.1626 
        1.83466         33.0163         7.08105         38.0293 
        1.84078         32.7918         7.02585         37.9083 
        1.84692         32.7719         6.97116         37.8066 
        1.85306         32.5057         6.91698         37.6314 
         1.8592          32.439         6.86346         37.4431 
        1.86533         32.2309         6.81055         37.3383 
        1.87147          32.132         6.75814         37.2195 
