# k  (h/Mpc)    Pcb(k)  (Mpc/h)^3    Pcb_linear(k) (Mpc/h)^3    Pcb_NL(k) (Mpc/h)^3   ShotnoiseSubtracted = false
     0.00783031         965.022         973.501         972.854 
       0.013688         1300.41         1301.75         1297.53 
       0.019231         1405.82         1406.31         1399.67 
      0.0249154         1372.59         1381.39         1376.42 
      0.0312784         1268.11         1270.88         1268.01 
      0.0375637         1138.29         1136.82         1134.57 
      0.0433917          1020.1         1023.26          1021.7 
      0.0492413         932.342         932.397         931.042 
      0.0555754         855.362         860.059         858.475 
      0.0619321         808.844         806.145          804.44 
       0.067871         759.027         762.541         760.483 
      0.0738098         713.343          717.53         714.736 
      0.0800417         658.544         664.648         661.971 
      0.0862327         603.513         607.104         605.154 
      0.0921407         549.798         551.485         549.864 
      0.0982031         495.947         498.658         497.946 
       0.104506         453.773         452.418         452.464 
       0.110769         418.071         416.957         416.673 
       0.116806         390.602         391.865         391.503 
       0.122832         373.754         373.233         373.049 
       0.129052         355.563         357.351           357.1 
       0.135211         339.632         341.818          341.56 
       0.141259         324.216         324.765         324.749 
       0.147318         306.198         305.397         305.875 
       0.153489         283.914         284.171         284.219 
       0.159709         263.596         262.947         263.627 
       0.165845         247.079         243.889         245.609 
       0.171974         229.284         227.878         229.601 
       0.178125         217.083         215.197         217.622 
       0.184229         208.162         205.552          208.04 
        0.19034         198.137         197.897         200.311 
       0.196428         192.909          191.14         193.018 
       0.202534         187.423         184.245         186.241 
       0.208729         178.718         176.514         178.417 
       0.214876         169.127         168.002         170.622 
       0.220989         162.469         159.041         161.946 
       0.227147         151.793         150.094         153.065 
        0.23329         144.007         141.834         145.471 
       0.239377         137.751         134.709         138.723 
       0.245482         130.722         128.759         132.474 
       0.251667         127.209          123.82         127.877 
       0.257832          122.89         119.671         123.661 
       0.263955         118.975         115.924         119.739 
       0.270079         115.353         112.194          115.87 
        0.27624         112.364         108.244          111.75 
       0.282372         108.018         104.056         107.776 
        0.28843         103.313         99.7624          103.58 
       0.294538         99.1343         95.4611         99.5422 
       0.300721         96.0181         91.3374         95.7563 
        0.30691          91.643            87.6         92.1176 
       0.313033          88.584         84.3487         88.7926 
       0.319153         84.6414         81.5229          86.224 
       0.325316         83.4095         79.0006         83.8522 
        0.33145         80.6772         76.6859         81.2712 
       0.337538         78.6737         74.4528         78.9177 
       0.343633         76.1871         72.1985          76.709 
       0.349808         74.0357         69.8594          74.498 
       0.355968         71.7908         67.4891         72.5309 
       0.362074         69.4486         65.1603         70.0906 
       0.368217         67.3419         62.9018         67.5599 
       0.374374         65.0735         60.7848         65.7365 
       0.380519         63.3938         58.8447         63.7035 
       0.386598         61.6878         57.0977         62.0474 
       0.392688         60.3644          55.494         60.4856 
        0.39888         58.6696         53.9671          58.837 
       0.405048         57.3555         52.5091         57.2897 
       0.411186         56.0835         51.0831         56.1889 
       0.417313         54.2173          49.663         54.5383 
       0.423458         52.9219         48.2472         53.2228 
       0.429607         51.4221         46.8481         51.7419 
       0.435692          49.919          45.502         50.5359 
       0.441815         48.9533         44.2078         49.4778 
       0.447964         48.1043         42.9811         48.1115 
       0.454126         46.3353         41.8265         46.8865 
       0.460267         45.4139         40.7477         45.9297 
       0.466387         44.1334         39.7302         44.7746 
        0.47254         43.4761         38.7476         43.8568 
       0.478662         42.6542         37.7975         42.8472 
       0.484765         41.5269         36.8708         41.8973 
       0.490885         40.5558         35.9568         41.2047 
       0.497035         39.9888         35.0541         40.3445 
       0.503198         38.9852          34.173         39.2359 
       0.509342         38.0257          33.325         38.4977 
       0.515458         37.1891         32.5146         37.8746 
       0.521598         36.5418         31.7358          36.817 
       0.527764           35.75         30.9889         35.9877 
       0.533884         35.1273         30.2806         35.3067 
           0.54         34.4276         29.5996         34.5929 
       0.546137         33.8279         28.9372         34.0332 
       0.552299         33.2559         28.2886         33.2107 
       0.558452         32.2431         27.6565         32.5707 
       0.564573          31.833         27.0432         32.1433 
       0.570708         31.2974         26.4443         31.5031 
       0.576825         30.4827         25.8635         30.8947 
       0.582926         29.9895         25.3017         30.3768 
       0.589034         29.1557         24.7579         29.8838 
       0.595184         28.7652         24.2299         29.1594 
       0.601379         28.2426         23.7174         28.7993 
       0.607522         27.7874         23.2262         28.2166 
       0.613639         27.4874         22.7516         27.7107 
       0.619772           26.78         22.2885          27.307 
       0.625918         26.5957         21.8358         26.8306 
       0.632068         26.1577         21.3944         26.3154 
       0.638161         25.5783         20.9684         25.8658 
         0.6443         25.0715         20.5509         25.3963 
       0.650464         24.6099         20.1433         25.0841 
       0.656582         24.4363         19.7502         24.6587 
       0.662703         23.9986         19.3679          24.227 
       0.668861         23.5605         18.9939         23.9152 
       0.675024         23.1272           18.63         23.4464 
       0.681124         22.7441         18.2798          23.089 
       0.687237         22.3944         17.9384         22.6599 
       0.693381         22.1475         17.6044         22.3155 
       0.699536         21.5661         17.2784         21.9941 
       0.705665         21.3914         16.9622         21.7719 
       0.711789         21.0143         16.6541          21.379 
       0.717957         20.7074         16.3513         21.0286 
        0.72409         20.3798         16.0577         20.7618 
       0.730186         20.1254         15.7731         20.4132 
       0.736317         19.9028         15.4938          20.113 
       0.742472         19.5859         15.2203         19.9495 
       0.748622         19.3112         14.9539         19.5993 
        0.75476         18.9087         14.6946         19.2839 
       0.760888         18.7228          14.442         19.0475 
       0.767043         18.4887         14.1946         18.8303 
       0.773185         18.1263         13.9536         18.5758 
       0.779291         18.0008         13.7197         18.3368 
       0.785407         17.7362         13.4909         18.0613 
       0.791564         17.4301          13.266         17.8331 
       0.797719         17.1529         13.0464         17.5424 
       0.803834         17.0422         12.8332         17.3082 
       0.809972         16.8853          12.624         17.1777 
       0.816124         16.4988         12.4191         16.8847 
       0.822261         16.3314         12.2193         16.6608 
       0.828378         16.1356         12.0246         16.4609 
       0.834502         15.9716          11.834         16.2777 
       0.840667         15.7291         11.6464         16.0477 
       0.846816         15.4663         11.4634         15.8827 
       0.852925          15.327         11.2855         15.7399 
       0.859047         15.1436         11.1111         15.5067 
       0.865192         15.0127         10.9399         15.3123 
       0.871341         14.8586         10.7722         15.1611 
       0.877463         14.6216         10.6088         14.9457 
       0.883569         14.3918         10.4493          14.804 
       0.889708         14.1676         10.2923         14.6178 
       0.895864         14.0915         10.1382         14.4252 
       0.902008         13.9406          9.9876         14.2873 
       0.908149         13.7811         9.84018         14.1231 
       0.914301          13.611         9.69553         13.9937 
       0.920448         13.3879         9.55397         13.7725 
       0.926574         13.2514         9.41576         13.6434 
       0.932687         13.1398         9.28062         13.4246 
       0.938823         12.9577         9.14769         13.3411 
       0.944975         12.7883         9.01708         13.1714 
       0.951105         12.6866         8.88953         12.9997 
       0.957225         12.6028         8.76469         12.9366 
       0.963368         12.4312         8.64185         12.7599 
       0.969511         12.3127          8.5214         12.6463 
       0.975621         12.1676         8.40392          12.462 
       0.981748         12.0383         8.28837         12.3492 
       0.987916         11.9275         8.17429         12.2415 
        0.99406         11.7493         8.06282         12.1144 
        1.00019         11.5722         7.95367         12.0157 
        1.00632         11.5585         7.84666         11.8785 
        1.01246         11.4286         7.74149         11.7861 
        1.01859         11.2624         7.63843         11.6306 
        1.02471         11.1751         7.53741         11.4847 
        1.03085         11.0715         7.43788         11.3871 
        1.03698         10.9091         7.34038         11.2929 
        1.04314         10.8336         7.24424         11.1678 
        1.04929         10.6883         7.15006         11.0705 
        1.05541         10.5792         7.05796         10.9755 
        1.06154         10.4873         6.96727         10.8649 
        1.06769         10.4416         6.87805         10.7761 
        1.07382         10.2743         6.79071         10.6728 
        1.07993         10.1862         6.70509         10.5687 
        1.08607         10.1099         6.62062         10.4492 
        1.09222         10.0095         6.53753         10.3498 
        1.09836         9.90742         6.45599         10.2481 
        1.10449         9.81167         6.37594         10.1596 
        1.11063         9.73004         6.29718         10.0702 
        1.11677          9.6492         6.21979         9.98435 
         1.1229         9.56296         6.14386         9.90533 
        1.12903         9.46973         6.06914         9.83732 
        1.13518         9.36507         5.99561         9.74783 
        1.14131         9.26151         5.92336         9.63706 
        1.14745         9.16674         5.85235         9.52582 
        1.15359         9.11601          5.7825         9.46898 
        1.15973         9.03228         5.71378         9.38967 
        1.16584         8.91829         5.64649         9.33529 
        1.17197         8.85252         5.58021         9.23329 
        1.17811         8.79393         5.51479         9.14613 
        1.18424         8.72942         5.45063         9.07324 
        1.19038         8.66854         5.38731         8.99762 
        1.19652         8.58223         5.32503         8.93948 
        1.20267         8.47499         5.26375         8.83021 
        1.20881         8.44012         5.20345         8.78795 
        1.21495         8.36912         5.14421         8.71468 
        1.22108         8.27378          5.0859         8.64563 
         1.2272         8.23441         5.02865         8.55099 
        1.23334         8.12265         4.97215         8.49601 
        1.23949         8.06418          4.9164         8.44533 
        1.24562         8.02549         4.86166         8.36921 
        1.25174         7.93347         4.80785         8.29261 
        1.25789         7.88094          4.7547         8.22769 
        1.26402         7.82355         4.70245          8.1464 
        1.27014         7.75117         4.65112         8.10003 
        1.27628         7.68839         4.60041         8.05435 
        1.28244         7.59844         4.55037         7.98866 
        1.28858         7.57958         4.50114         7.91753 
        1.29471         7.50198         4.45276         7.85642 
        1.30084         7.42954         4.40514         7.81144 
        1.30697         7.42773         4.35815         7.74528 
        1.31312         7.28494         4.31179         7.69325 
        1.31925         7.26281         4.26625         7.64316 
        1.32537         7.20069         4.22143         7.58743 
        1.33151         7.17423         4.17709         7.52926 
        1.33765         7.08218         4.13342         7.46049 
        1.34378         7.02745         4.09047         7.42365 
        1.34992         6.99524          4.0481         7.36462 
        1.35606         6.92602         4.00625         7.28852 
         1.3622         6.88905         3.96507         7.24727 
        1.36833         6.83601         3.92458         7.22266 
        1.37445         6.78906         3.88467         7.16034 
        1.38059         6.75663         3.84521         7.10488 
        1.38675         6.69685          3.8062         7.05119 
        1.39288          6.6401         3.76789         7.01067 
        1.39901         6.57584         3.73013         6.96725 
        1.40515         6.54622         3.69281          6.9132 
         1.4113         6.49997         3.65602         6.86525 
        1.41742         6.45277         3.61988         6.82529 
        1.42355         6.39773         3.58416         6.76187 
         1.4297         6.34094         3.54882         6.73375 
        1.43585         6.32281         3.51397         6.69813 
        1.44198         6.29399         3.47973         6.62931 
        1.44809         6.21886         3.44601         6.60709 
        1.45423         6.17351         3.41262         6.55034 
        1.46036         6.13234         3.37974         6.50809 
        1.46649         6.08012         3.34728         6.47624 
        1.47263         6.03634         3.31523         6.43463 
        1.47877         5.99271         3.28362         6.38578 
        1.48491         5.95729         3.25237         6.34657 
        1.49104         5.92619          3.2216         6.30154 
        1.49718         5.88223          3.1912         6.26584 
        1.50333         5.84683         3.16115          6.2317 
        1.50947         5.80277         3.13156         6.19131 
         1.5156         5.76764         3.10239         6.15195 
        1.52172         5.73481         3.07359          6.1151 
        1.52787         5.69723         3.04511         6.06798 
          1.534         5.65117         3.01702         6.02905 
        1.54013         5.62489         2.98932         5.99575 
        1.54627         5.56815         2.96192         5.96274 
        1.55241         5.53524         2.93486         5.92494 
        1.55855         5.51422         2.90817          5.8781 
        1.56467         5.47162          2.8819         5.85688 
         1.5708         5.43443         2.85588         5.82327 
        1.57695         5.39173         2.83015         5.78088 
        1.58308         5.35527         2.80479         5.75686 
        1.58922         5.33777         2.77973         5.72353 
        1.59535         5.30481         2.75499         5.68465 
         1.6015         5.26644         2.73052         5.64691 
        1.60764         5.23309         2.70635         5.62064 
        1.61376         5.19965         2.68255         5.59715 
        1.61989         5.17135         2.65902         5.55993 
        1.62604          5.1321         2.63572         5.52496 
        1.63218          5.1166         2.61272         5.49711 
        1.63831         5.07876         2.59005         5.46651 
        1.64444          5.0453         2.56763         5.42865 
        1.65059         5.00078         2.54544         5.40078 
        1.65673         4.98462         2.52353         5.37239 
        1.66285         4.93915         2.50194         5.34168 
        1.66898         4.92229          2.4806          5.3121 
        1.67512         4.88555         2.45947         5.28382 
        1.68127         4.85987         2.43857         5.26011 
         1.6874         4.83813         2.41796         5.23268 
        1.69353         4.79387          2.3976         5.19404 
        1.69967          4.7744         2.37743         5.16367 
        1.70581         4.74869          2.3575         5.14512 
        1.71193         4.72378         2.33788         5.12562 
        1.71806         4.69672         2.31844         5.09056 
        1.72421         4.66511         2.29918          5.0593 
        1.73035         4.64503         2.28017         5.03286 
        1.73649         4.61156         2.26137         5.00562 
        1.74262         4.57747         2.24281         4.97724 
        1.74876         4.57042         2.22444         4.95719 
        1.75489          4.5421         2.20632         4.93297 
        1.76101         4.50278         2.18841         4.89783 
        1.76715         4.48376         2.17067         4.86939 
        1.77329         4.46194         2.15311         4.85023 
        1.77943         4.42179         2.13574         4.82948 
        1.78557         4.41283         2.11859         4.80122 
        1.79171         4.38141         2.10162         4.77474 
        1.79785         4.35647         2.08484         4.75088 
        1.80399         4.33417         2.06825         4.72714 
        1.81012         4.31667         2.05186         4.70792 
        1.81625         4.28456         2.03565         4.68496 
        1.82239         4.26164          2.0196         4.66078 
        1.82853         4.23796         2.00373         4.64704 
        1.83466         4.22568         1.98805         4.62839 
        1.84078         4.19951         1.97255         4.59815 
        1.84692         4.18056         1.95719         4.56469 
        1.85306         4.14609         1.94198         4.54178 
         1.8592         4.12291         1.92696         4.52594 
        1.86533         4.10493          1.9121         4.50615 
        1.87147         4.08856         1.89739         4.48721 
