# k  (h/Mpc)    Pcb(k)  (Mpc/h)^3    Pcb_linear(k) (Mpc/h)^3    Pcb_NL(k) (Mpc/h)^3   ShotnoiseSubtracted = false
     0.00783031          3117.5         3149.27          3147.6 
       0.013688         4218.72          4210.1         4194.44 
       0.019231         4548.49         4547.79         4522.05 
      0.0249154         4419.62         4466.96         4443.67 
      0.0312784         4089.01         4109.44         4089.33 
      0.0375637         3676.18         3675.86         3656.31 
      0.0433917         3279.69         3308.63         3289.29 
      0.0492413         3004.52          3014.8         2995.79 
      0.0555754         2741.35         2780.88         2761.34 
      0.0619321         2611.26         2606.55         2586.13 
       0.067871          2433.7         2465.55          2444.4 
      0.0738098         2286.01         2320.01         2292.84 
      0.0800417          2103.1         2149.01         2122.57 
      0.0862327         1932.35         1962.95         1942.99 
      0.0921407         1766.24         1783.11         1764.64 
      0.0982031            1591         1612.31         1601.91 
       0.104506         1466.94          1462.8         1459.18 
       0.110769         1351.78         1348.14          1341.4 
       0.116806         1260.74         1267.01         1260.46 
       0.122832         1208.41         1206.77         1202.33 
       0.129052         1143.01         1155.42         1151.01 
       0.135211         1092.48         1105.19            1101 
       0.141259         1046.79         1050.05         1048.45 
       0.147318         990.604          987.43         990.014 
       0.153489         916.437         918.803           917.1 
       0.159709         856.823         850.177         854.214 
       0.165845         809.756         788.557         801.969 
       0.171974         752.584         736.791         750.667 
       0.178125         713.995          695.79         716.331 
       0.184229         686.271         664.605         685.322 
        0.19034         647.684         639.854         660.252 
       0.196428         635.925         618.005         634.147 
       0.202534         619.213         595.713         613.172 
       0.208729          590.49         570.715         586.765 
       0.214876         558.615         543.195         565.609 
       0.220989         540.852         514.221         539.365 
       0.227147         506.248         485.293         511.488 
        0.23329         483.276         458.585         490.497 
       0.239377         467.583         435.549         470.197 
       0.245482         439.469          416.31         448.541 
       0.251667          432.26         400.341         435.641 
       0.257832         418.612         386.926         421.709 
       0.263955         405.155         374.811         408.529 
       0.270079         393.073         362.752         395.688 
        0.27624         386.213          349.98         381.786 
       0.282372         370.896          336.44          369.54 
        0.28843         357.282         322.557         356.154 
       0.294538         342.601          308.65         344.744 
       0.300721          336.84         295.317         334.185 
        0.30691         321.359         283.233         323.543 
       0.313033         312.819         272.721         312.274 
       0.319153         300.063         263.584         304.679 
       0.325316         294.066         255.429         297.948 
        0.33145         285.031         247.945         288.116 
       0.337538          280.77         240.725         280.332 
       0.343633         272.129         233.436         274.518 
       0.349808         264.406         225.873         267.893 
       0.355968         258.898          218.21         262.022 
       0.362074          251.65          210.68         254.414 
       0.368217         245.096         203.378          245.75 
       0.374374         237.829         196.533         240.406 
       0.380519          232.58          190.26         233.917 
       0.386598         226.853         184.611         228.601 
       0.392688         223.476         179.426         224.082 
        0.39888         217.806         174.489          218.12 
       0.405048         213.467         169.775          214.37 
       0.411186         209.001         165.164         210.192 
       0.417313         203.961         160.573         203.981 
       0.423458         199.824         155.995         199.969 
       0.429607         194.847         151.472         195.578 
       0.435692         189.035         147.119         191.735 
       0.441815         187.619         142.935         189.227 
       0.447964         184.663         138.969         184.576 
       0.454126         177.007         135.236         180.026 
       0.460267         174.857         131.748         177.723 
       0.466387         171.892         128.458         173.856 
        0.47254         169.146         125.281         171.001 
       0.478662         166.874         122.209         167.665 
       0.484765         162.825         119.213         163.811 
       0.490885         160.005         116.257         161.786 
       0.497035         157.897         113.339         159.478 
       0.503198         153.872          110.49         156.214 
       0.509342         150.979         107.748         153.887 
       0.515458          148.89         105.128         152.379 
       0.521598         147.176          102.61         148.605 
       0.527764          144.76         100.195         145.288 
       0.533884         142.214         97.9047         143.358 
           0.54         140.055          95.703         141.332 
       0.546137         138.699         93.5612         139.766 
       0.552299         136.756         91.4641         136.854 
       0.558452         133.449         89.4203         134.538 
       0.564573         131.088         87.4374         133.199 
       0.570708         129.879          85.501         131.092 
       0.576825         127.579         83.6233         128.975 
       0.582926         125.576         81.8069         127.056 
       0.589034         122.932         80.0484         125.709 
       0.595184         121.748         78.3412         123.771 
       0.601379         120.614         76.6844         122.486 
       0.607522         117.623         75.0962         119.953 
       0.613639         117.568         73.5617         118.716 
       0.619772         114.709         72.0642           116.8 
       0.625918         113.968         70.6007         115.988 
       0.632068         112.517         69.1734         113.849 
       0.638161         111.012         67.7962         112.847 
         0.6443         109.518         66.4461         110.958 
       0.650464         108.017         65.1285         109.214 
       0.656582         107.006         63.8574         108.447 
       0.662703         104.941         62.6211         106.615 
       0.668861         104.028         61.4121         105.615 
       0.675024         102.675         60.2356         104.136 
       0.681124         101.318         59.1034         102.861 
       0.687237          99.701         57.9993         101.516 
       0.693381         98.7983         56.9193         100.272 
       0.699536         97.3225         55.8654         99.6847 
       0.705665         97.7659         54.8429         98.6634 
       0.711789         95.2131         53.8468         96.7307 
       0.717957         94.6579          52.868         96.1441 
        0.72409         93.2762         51.9187         95.5168 
       0.730186         91.8528         50.9983         94.1778 
       0.736317         91.6183         50.0953         92.9271 
       0.742472         90.2437         49.2112         92.0551 
       0.748622         89.6516         48.3496         90.9035 
        0.75476         88.5531         47.5113         90.0364 
       0.760888         87.4355         46.6947         89.0471 
       0.767043         86.5341         45.8946         88.5032 
       0.773185         85.5364         45.1155         87.6871 
       0.779291         85.0145         44.3593         86.7929 
       0.785407          84.282         43.6196         85.6576 
       0.791564         82.9669         42.8924         84.7785 
       0.797719         81.9041         42.1823         84.1379 
       0.803834         81.6778         41.4929          83.145 
       0.809972         80.3399         40.8166         82.4736 
       0.816124          79.397          40.154         81.7909 
       0.822261         79.0781         39.5081         80.7334 
       0.828378         78.2887         38.8785         79.7653 
       0.834502         77.4286         38.2623         79.6481 
       0.840667         76.8616         37.6556         78.7443 
       0.846816         75.9343          37.064          78.026 
       0.852925         75.2406         36.4889         77.5655 
       0.859047         74.2542         35.9251         76.4961 
       0.865192         74.0373         35.3714         75.9685 
       0.871341         73.5568         34.8293         75.3234 
       0.877463         72.2072         34.3011         74.7175 
       0.883569         71.8065         33.7853          74.251 
       0.889708         71.4277         33.2777         73.4153 
       0.895864         70.7078         32.7794         72.8406 
       0.902008         70.1889         32.2924         72.2671 
       0.908149         69.6141         31.8158         71.7213 
       0.914301         69.1026         31.3481         71.3087 
       0.920448         68.1629         30.8904         70.5433 
       0.926574         67.8771         30.4435         69.7666 
       0.932687         67.2307         30.0066         69.4575 
       0.938823         66.3438         29.5768         68.7671 
       0.944975         66.1942         29.1545         68.1296 
       0.951105          65.557         28.7421         67.8443 
       0.957225         64.8113         28.3384         67.2838 
       0.963368         64.4957         27.9413         66.6162 
       0.969511         64.1004         27.5518         66.1608 
       0.975621         63.5791          27.172         65.8939 
       0.981748         62.8524         26.7984         65.3111 
       0.987916          62.563         26.4295         64.7971 
        0.99406         62.1854         26.0691         64.4016 
        1.00019         61.2957         25.7162         63.9137 
        1.00632         61.1688         25.3702         63.5098 
        1.01246         60.5674         25.0302         63.0126 
        1.01859         59.9639          24.697         62.5337 
        1.02471         60.0201         24.3703         62.1591 
        1.03085         59.3442         24.0485         61.6934 
        1.03698         58.6464         23.7333         61.2146 
        1.04314          58.133         23.4224         60.6817 
        1.04929         57.9683         23.1179         60.4633 
        1.05541         57.3639         22.8201         60.2148 
        1.06154         57.1638         22.5269         59.5492 
        1.06769         56.6673         22.2385         59.1966 
        1.07382          56.303         21.9561         58.9009 
        1.07993         56.1121         21.6792         58.3583 
        1.08607         55.4822         21.4061         57.9821 
        1.09222         55.2797         21.1375         57.7137 
        1.09836         54.7037         20.8738         57.3332 
        1.10449         54.4725          20.615         56.8384 
        1.11063         53.7257         20.3604         56.5715 
        1.11677         53.5823         20.1102         56.2072 
         1.1229         53.4144         19.8646         55.8287 
        1.12903          52.694          19.623         55.4957 
        1.13518         52.5049         19.3853         55.0373 
        1.14131         52.4056         19.1517         54.8124 
        1.14745         51.8425         18.9221         54.4765 
        1.15359         51.5837         18.6963         54.2693 
        1.15973         51.0333         18.4741         53.8822 
        1.16584         50.6801         18.2565         53.5372 
        1.17197         50.6758         18.0422          53.154 
        1.17811         50.1129         17.8307         52.7062 
        1.18424         49.6846         17.6232          52.481 
        1.19038         49.6571         17.4185         52.3535 
        1.19652         49.3045         17.2172         51.8627 
        1.20267         48.9483          17.019         51.7022 
        1.20881         48.6226         16.8241         51.3738 
        1.21495         48.2626         16.6325          51.175 
        1.22108         47.9408          16.444         50.7428 
         1.2272         47.4568         16.2589          50.541 
        1.23334         47.3178         16.0762         50.2816 
        1.23949         47.0468         15.8959         49.8778 
        1.24562         46.8678          15.719         49.6392 
        1.25174         46.5854          15.545         49.4191 
        1.25789         46.3397         15.3731          49.083 
        1.26402         46.0698         15.2042         48.8117 
        1.27014         45.6282         15.0382         48.5705 
        1.27628         45.3837         14.8743         48.2615 
        1.28244         45.1436         14.7125         48.1613 
        1.28858          44.943         14.5533         47.7996 
        1.29471         44.6517         14.3969          47.558 
        1.30084         44.3737         14.2429         47.3015 
        1.30697         44.0429          14.091          46.983 
        1.31312         43.7025         13.9411         46.8022 
        1.31925         43.5713         13.7939         46.5758 
        1.32537         43.3891         13.6489         46.3642 
        1.33151         43.0565         13.5056         46.1142 
        1.33765         42.9565         13.3644         45.9024 
        1.34378         42.7775         13.2255         45.6532 
        1.34992         42.1008         13.0885         45.4277 
        1.35606         42.0604         12.9532         45.2499 
         1.3622         41.8157         12.8201         45.0355 
        1.36833         41.5941         12.6891         44.8067 
        1.37445          41.521         12.5601         44.5081 
        1.38059         41.3252         12.4325         44.3134 
        1.38675          40.942         12.3064         44.1435 
        1.39288         40.7826         12.1825         43.9375 
        1.39901         40.4394         12.0605         43.7342 
        1.40515         40.2497         11.9398         43.4846 
         1.4113         40.1375         11.8208         43.2916 
        1.41742         39.6935          11.704         43.1461 
        1.42355         39.6962         11.5885         42.7763 
         1.4297         39.3834         11.4742         42.6051 
        1.43585         39.2994         11.3615         42.5046 
        1.44198         38.9228         11.2508         42.2692 
        1.44809         38.8164         11.1418         42.0632 
        1.45423         38.6395         11.0339          41.822 
        1.46036         38.4733         10.9275         41.6193 
        1.46649          38.222         10.8226         41.4525 
        1.47263         37.9966          10.719         41.3158 
        1.47877         37.8079         10.6168           41.19 
        1.48491          37.606         10.5157         40.8566 
        1.49104          37.509         10.4162         40.7319 
        1.49718         37.1658         10.3179         40.5486 
        1.50333         37.0278         10.2208         40.4083 
        1.50947         36.8611         10.1251         40.2782 
         1.5156         36.6266         10.0308          40.066 
        1.52172         36.3314         9.93769          39.815 
        1.52787         36.3454         9.84559         39.6384 
          1.534         36.0805         9.75477         39.5027 
        1.54013         35.8208         9.66521         39.2728 
        1.54627         35.7629         9.57661         39.0808 
        1.55241         35.5097         9.48912         38.9795 
        1.55855         35.3654         9.40285         38.8415 
        1.56467          35.203         9.31791         38.6414 
         1.5708         35.0291         9.23378         38.4967 
        1.57695         34.7085         9.15057         38.3129 
        1.58308         34.7689         9.06859         38.1142 
        1.58922         34.5147         8.98756          38.038 
        1.59535         34.2566         8.90756         37.9092 
         1.6015         34.1383         8.82844         37.6857 
        1.60764         34.0523         8.75031         37.4916 
        1.61376         33.8628         8.67336         37.3568 
        1.61989         33.5428         8.59728         37.1845 
        1.62604         33.4987         8.52195         37.1284 
        1.63218         33.2432         8.44757         37.0132 
        1.63831         33.1768         8.37426         36.7747 
        1.64444         32.9785          8.3018         36.6202 
        1.65059         32.7926         8.23004         36.4848 
        1.65673         32.6998          8.1592         36.3505 
        1.66285         32.5214          8.0894          36.218 
        1.66898          32.336          8.0204         36.0776 
        1.67512         32.2265         7.95208         35.9086 
        1.68127         31.9644          7.8845         35.7488 
         1.6874         31.8832         7.81786          35.592 
        1.69353         31.8238         7.75203         35.4218 
        1.69967          31.537         7.68681          35.301 
        1.70581         31.3647         7.62238         35.2202 
        1.71193         31.1858         7.55893         35.1024 
        1.71806         31.1576         7.49608         34.8923 
        1.72421         30.9937         7.43382         34.7635 
        1.73035           30.89         7.37235         34.6514 
        1.73649         30.6413         7.31159         34.4961 
        1.74262         30.5516         7.25156         34.3548 
        1.74876         30.3891         7.19218         34.2305 
        1.75489         30.2254         7.13359          34.104 
        1.76101         30.1247         7.07568         33.9681 
        1.76715         30.0133         7.01833         33.8323 
        1.77329         29.8987         6.96156         33.6858 
        1.77943         29.7329         6.90539          33.575 
        1.78557         29.5589         6.84993         33.5111 
        1.79171         29.4572         6.79507         33.3693 
        1.79785           29.32         6.74081         33.2168 
        1.80399          29.205         6.68716         33.1397 
        1.81012          29.068         6.63417         32.9666 
        1.81625         28.9292         6.58177         32.8107 
        1.82239         28.8175         6.52987         32.7375 
        1.82853         28.5928         6.47856         32.6235 
        1.83466         28.5032         6.42785         32.4985 
        1.84078         28.3029         6.37774         32.3949 
        1.84692         28.2723         6.32809         32.3013 
        1.85306         28.0606         6.27891         32.1539 
         1.8592         28.0139         6.23034         31.9999 
        1.86533         27.8437          6.1823         31.9098 
        1.87147         27.7391         6.13473         31.8148 
