# k  (h/Mpc)    P(k)  (Mpc/h)^3    P_linear(k)  (Mpc/h)^3     P_NL(k)  ShotnoiseSubtracted = false
     0.00783031         462.355         466.188         465.819 
       0.013688         622.025         623.466         621.516 
       0.019231         673.089         673.578         670.567 
      0.0249154         658.322         661.663         659.527 
      0.0312784         607.791         608.739         607.724 
      0.0375637         545.209          544.53         543.887 
      0.0433917         489.374         490.139         489.882 
      0.0492413         446.859         446.619         446.456 
      0.0555754         410.711          411.97         411.693 
      0.0619321         387.245         386.147         385.811 
       0.067871         364.276         365.261         364.747 
      0.0738098         342.431         343.701         342.957 
      0.0800417         316.481          318.37         317.668 
      0.0862327         289.746         290.807         290.307 
      0.0921407         263.689         264.165         263.804 
      0.0982031         238.035         238.861         238.748 
       0.104506         217.192         216.711         216.801 
       0.110769         200.099         199.726         199.739 
       0.116806         187.199         187.706         187.661 
       0.122832         178.896         178.782         178.758 
       0.129052         170.531         171.174         171.108 
       0.135211         162.897         163.734         163.644 
       0.141259         155.264         155.565         155.529 
       0.147318         146.475         146.288         146.377 
       0.153489         135.949         136.121         136.126 
       0.159709         125.988         125.954         126.123 
       0.165845         117.717         116.825         117.252 
       0.171974         109.343         109.156         109.584 
       0.178125          103.42         103.081         103.673 
       0.184229         99.0586         98.4614         99.0646 
        0.19034         94.6275         94.7946         95.3714 
       0.196428         91.8375         91.5578         91.9953 
       0.202534         89.0525         88.2552         88.7142 
       0.208729         84.9799         84.5516         84.9904 
       0.214876         80.5186         80.4746         81.0859 
       0.220989         77.0311         76.1821         76.8671 
       0.227147         72.0869         71.8964         72.5986 
        0.23329         68.2518         67.9395         68.8051 
       0.239377         65.0601         64.5269         65.4887 
       0.245482         61.9456         61.6766         62.5659 
       0.251667         60.0241         59.3109           60.28 
       0.257832         57.9262         57.3233         58.2733 
       0.263955         56.1153         55.5284         56.4297 
       0.270079          54.371         53.7418         54.6046 
        0.27624         52.7912         51.8498         52.6691 
       0.282372         50.7424         49.8439          50.721 
        0.28843          48.495         47.7871         48.6938 
       0.294538         46.4913         45.7268         46.6951 
       0.300721         44.8156         43.7514         44.8013 
        0.30691         42.7981         41.9612         43.0329 
       0.313033         41.2983         40.4037         41.4599 
       0.319153         39.5332         39.0503         40.1723 
       0.325316         38.8574          37.842         38.9985 
        0.33145         37.6139         36.7333          37.824 
       0.337538         36.5609         35.6637         36.7219 
       0.343633         35.3946         34.5838         35.6423 
       0.349808         34.3617         33.4632         34.5557 
       0.355968         33.2595          32.328         33.5365 
       0.362074         32.1287         31.2124         32.3834 
       0.368217         31.0907         30.1306         31.2266 
       0.374374          29.965         29.1166         30.2939 
       0.380519         29.1708         28.1871         29.3356 
       0.386598          28.365         27.3504         28.5304 
       0.392688         27.6865         26.5821          27.762 
        0.39888         26.8867         25.8508         27.0091 
       0.405048         26.2344         25.1524         26.2675 
       0.411186         25.6001         24.4693          25.681 
       0.417313         24.7639         23.7891         24.9497 
       0.423458         24.1518         23.1109         24.2952 
       0.429607         23.4219         22.4407         23.5972 
       0.435692         22.7579         21.7959         22.9939 
       0.441815         22.2022          21.176         22.4355 
       0.447964         21.7594         20.5884         21.8126 
       0.454126          21.019         20.0352         21.2429 
       0.460267         20.5295         19.5186         20.7548 
       0.466387         19.9508         19.0312         20.2249 
        0.47254          19.578         18.5605         19.7677 
       0.478662         19.1662         18.1054          19.295 
       0.484765         18.6561         17.6615         18.8561 
       0.490885         18.2029         17.2237         18.4846 
       0.497035         17.9161         16.7913         18.0604 
       0.503198         17.4416         16.3692         17.5629 
       0.509342         17.0345          15.963         17.1877 
       0.515458         16.6033         15.5748         16.8485 
       0.521598         16.2672         15.2018         16.3965 
       0.527764         15.8724          14.844         16.0287 
       0.533884         15.5909         14.5047         15.6961 
           0.54         15.2483         14.1785         15.3544 
       0.546137         14.9564         13.8612         15.0617 
       0.552299         14.6531         13.5505         14.6941 
       0.558452         14.2328         13.2477          14.399 
       0.564573         14.0204          12.954         14.1704 
       0.570708         13.7431         12.6671         13.8664 
       0.576825         13.3909         12.3889         13.5751 
       0.582926         13.1692         12.1198         13.3224 
       0.589034         12.7877         11.8592         13.0824 
       0.595184         12.5841         11.6063         12.7525 
       0.601379         12.3253         11.3609          12.565 
       0.607522         12.1378         11.1256         12.3103 
       0.613639         11.9678         10.8983         12.0706 
       0.619772         11.6554         10.6764         11.8752 
       0.625918         11.5067         10.4596         11.6313 
       0.632068         11.3217         10.2481         11.4056 
       0.638161         11.0527         10.0441          11.194 
         0.6443          10.831         9.84406         10.9794 
       0.650464         10.6021         9.64886         10.8181 
       0.656582          10.489         9.46054         10.6162 
       0.662703         10.2989         9.27739         10.4219 
       0.668861         10.1218         9.09827         10.2657 
       0.675024         9.90825         8.92396         10.0628 
       0.681124          9.7299         8.75623          9.8889 
       0.687237         9.58851         8.59266         9.69365 
       0.693381         9.44033         8.43266         9.52163 
       0.699536         9.18807         8.27653          9.3692 
       0.705665         9.06485         8.12504         9.26245 
       0.711789         8.92491         7.97746          9.0958 
       0.717957          8.7655         7.83245         8.92486 
        0.72409         8.61911         7.69181         8.78954 
       0.730186         8.49456         7.55546         8.63121 
       0.736317         8.39941         7.42168         8.49104 
       0.742472         8.26213         7.29069         8.40236 
       0.748622         8.11153         7.16305         8.25975 
        0.75476         7.92861         7.03885         8.10588 
       0.760888         7.83706         6.91787         7.99189 
       0.767043         7.74301         6.79934         7.88329 
       0.773185         7.58206         6.68391         7.77191 
       0.779291         7.49944         6.57188         7.65384 
       0.785407         7.37802          6.4623         7.52941 
       0.791564         7.25842         6.35456         7.42188 
       0.797719          7.1575         6.24936         7.28768 
       0.803834         7.06892         6.14722         7.18972 
       0.809972         6.97871         6.04703         7.11503 
       0.816124         6.83818         5.94887         6.98697 
       0.822261         6.72852         5.85318          6.8874 
       0.828378         6.65078          5.7599         6.79139 
       0.834502         6.57747          5.6686         6.68951 
       0.840667         6.44754         5.57872         6.60015 
       0.846816         6.34972         5.49107         6.52714 
       0.852925          6.2892         5.40587         6.43493 
       0.859047          6.2005         5.32234         6.35703 
       0.865192         6.12822         5.24032         6.26168 
       0.871341         6.04676         5.15999         6.17972 
       0.877463         5.96834         5.08174         6.08704 
       0.883569         5.85922         5.00534         6.01921 
       0.889708          5.7658         4.93013         5.93864 
       0.895864         5.71062          4.8563         5.85287 
       0.902008         5.62498         4.78416         5.78223 
       0.908149          5.5581         4.71354         5.71067 
       0.914301          5.4607         4.64425         5.63399 
       0.920448         5.38957         4.57644         5.54923 
       0.926574         5.31534         4.51024         5.49061 
       0.932687         5.26555         4.44551         5.39729 
       0.938823         5.20233         4.38183         5.36085 
       0.944975         5.12837         4.31927         5.27246 
       0.951105         5.07173         4.25817          5.2072 
       0.957225         5.03794         4.19837         5.16389 
       0.963368         4.95951         4.13953         5.09057 
       0.969511         4.89104         4.08183         5.03269 
       0.975621         4.81771         4.02556         4.94927 
       0.981748         4.77414         3.97021         4.89609 
       0.987916         4.71493         3.91557         4.85709 
        0.99406         4.63783         3.86217         4.79965 
        1.00019         4.58628         3.80988         4.74991 
        1.00632         4.53802         3.75863         4.68498 
        1.01246         4.48891         3.70825         4.62975 
        1.01859         4.43387         3.65888         4.57331 
        1.02471         4.37773         3.61049         4.51727 
        1.03085         4.33219         3.56282         4.46087 
        1.03698         4.27197         3.51612         4.41419 
        1.04314         4.23006         3.47006         4.36637 
        1.04929         4.17293         3.42495         4.31899 
        1.05541         4.12903         3.38083         4.27804 
        1.06154         4.08351         3.33739         4.23086 
        1.06769         4.04736         3.29465         4.18666 
        1.07382         3.99233         3.25282         4.13894 
        1.07993         3.93576         3.21181         4.09189 
        1.08607         3.91233         3.17134         4.04625 
        1.09222          3.8629         3.13154          3.9968 
        1.09836         3.83301         3.09248         3.95924 
        1.10449         3.78554         3.05414         3.91951 
        1.11063         3.73815         3.01641         3.87011 
        1.11677         3.69681         2.97934         3.83672 
         1.1229         3.65579         2.94297         3.80118 
        1.12903         3.61447         2.90718         3.75964 
        1.13518         3.58655         2.87196         3.72415 
        1.14131         3.53152         2.83735          3.6809 
        1.14745         3.47924         2.80333         3.63468 
        1.15359         3.46436         2.76988         3.60843 
        1.15973         3.41265         2.73696         3.57194 
        1.16584         3.39724         2.70473         3.53684 
        1.17197         3.35565         2.67297         3.49885 
        1.17811         3.31972         2.64164         3.46612 
        1.18424         3.30024          2.6109         3.42683 
        1.19038         3.25867         2.58057          3.3951 
        1.19652         3.22439         2.55074         3.36865 
        1.20267         3.19532         2.52139         3.32224 
        1.20881         3.15408          2.4925          3.2971 
        1.21495         3.13241         2.46413         3.27407 
        1.22108         3.10131          2.4362         3.23888 
         1.2272         3.07985         2.40877         3.19885 
        1.23334         3.03727         2.38171         3.17479 
        1.23949         3.00462           2.355         3.15416 
        1.24562         2.98685         2.32879         3.12302 
        1.25174         2.94782         2.30301         3.08445 
        1.25789         2.92472         2.27755         3.05513 
        1.26402         2.88681         2.25252         3.02446 
        1.27014         2.85904         2.22793         3.00397 
        1.27628           2.847         2.20364         2.97946 
        1.28244         2.80578         2.17967         2.94678 
        1.28858         2.78684         2.15609         2.91594 
        1.29471         2.75969         2.13292         2.89048 
        1.30084         2.73046         2.11011         2.87396 
        1.30697          2.7132          2.0876         2.84733 
        1.31312         2.66823         2.06539          2.8208 
        1.31925         2.65798         2.04358         2.79958 
        1.32537         2.63428          2.0221         2.77386 
        1.33151         2.61419         2.00087         2.74923 
        1.33765         2.58146         1.97995         2.72399 
        1.34378         2.55492         1.95938         2.70565 
        1.34992         2.54557         1.93908         2.68208 
        1.35606         2.51065         1.91903         2.64961 
         1.3622          2.4961         1.89931         2.63063 
        1.36833          2.4721         1.87991         2.61548 
        1.37445         2.44663          1.8608         2.59243 
        1.38059         2.42752         1.84189         2.56966 
        1.38675           2.418         1.82321          2.5434 
        1.39288         2.38401         1.80486         2.52707 
        1.39901         2.36304         1.78677         2.50784 
        1.40515         2.34654         1.76889         2.48206 
         1.4113          2.3251         1.75127          2.4638 
        1.41742          2.3063         1.73396         2.45218 
        1.42355          2.2953         1.71685         2.41873 
         1.4297          2.2633         1.69992          2.4114 
        1.43585         2.25177         1.68323         2.39386 
        1.44198         2.23794         1.66682         2.36133 
        1.44809         2.20601         1.65067         2.35339 
        1.45423         2.19077         1.63468         2.32635 
        1.46036         2.17361         1.61893         2.30965 
        1.46649         2.15299         1.60338         2.29815 
        1.47263         2.13322         1.58803          2.2792 
        1.47877         2.11387         1.57289         2.25667 
        1.48491         2.09831         1.55792         2.24298 
        1.49104         2.08484         1.54318         2.22337 
        1.49718         2.07059         1.52862         2.20947 
        1.50333          2.0503         1.51422         2.18868 
        1.50947         2.03694         1.50005         2.17088 
         1.5156         2.02041         1.48607         2.15779 
        1.52172         2.00326         1.47228         2.14132 
        1.52787         1.98482         1.45864         2.12307 
          1.534         1.97529         1.44518         2.10808 
        1.54013         1.95191         1.43191         2.09223 
        1.54627         1.93504         1.41879         2.07537 
        1.55241         1.92112         1.40583         2.06008 
        1.55855         1.90858         1.39304         2.04563 
        1.56467         1.89463         1.38046         2.03267 
         1.5708          1.8723           1.368         2.01411 
        1.57695         1.86626         1.35567           2.001 
        1.58308         1.85058         1.34352         1.99253 
        1.58922          1.8371         1.33152         1.97531 
        1.59535         1.82307         1.31967         1.95942 
         1.6015         1.80932         1.30794         1.94423 
        1.60764         1.79766         1.29637         1.93264 
        1.61376         1.78203         1.28497         1.92292 
        1.61989         1.76844          1.2737         1.90728 
        1.62604         1.75455         1.26254         1.89435 
        1.63218         1.74692         1.25152          1.8824 
        1.63831         1.72606         1.24066         1.86796 
        1.64444         1.71397         1.22992         1.85319 
        1.65059         1.70458         1.21929         1.84016 
        1.65673         1.69112          1.2088         1.82972 
        1.66285         1.67597         1.19846         1.81758 
        1.66898         1.66866         1.18823         1.80216 
        1.67512         1.65143         1.17811          1.7911 
        1.68127         1.64153          1.1681         1.78157 
         1.6874         1.63254         1.15823         1.76989 
        1.69353          1.6154         1.14847         1.75544 
        1.69967         1.60466         1.13881         1.74311 
        1.70581           1.598         1.12927          1.7342 
        1.71193          1.5838         1.11987         1.72477 
        1.71806         1.57527         1.11055         1.71044 
        1.72421          1.5626         1.10133         1.69928 
        1.73035          1.5499         1.09222         1.68872 
        1.73649         1.54117         1.08322         1.67617 
        1.74262         1.53033         1.07433         1.66466 
        1.74876         1.51964         1.06553           1.656 
        1.75489         1.50656         1.05685         1.64632 
        1.76101         1.49593         1.04827         1.63392 
        1.76715         1.48707         1.03977         1.62324 
        1.77329         1.47648         1.03136         1.61345 
        1.77943         1.46552         1.02304         1.60347 
        1.78557         1.45533         1.01483         1.59342 
        1.79171           1.448          1.0067         1.58302 
        1.79785         1.43659         0.99866         1.57269 
        1.80399         1.42825        0.990711         1.56259 
        1.81012         1.42066         0.98286          1.5513 
        1.81625         1.40689        0.975098         1.54199 
        1.82239         1.39911        0.967409         1.53574 
        1.82853         1.38425        0.959807         1.52912 
        1.83466         1.37923        0.952295         1.51922 
        1.84078         1.36966        0.944871         1.50753 
        1.84692         1.36266        0.937515         1.49805 
        1.85306         1.35157        0.930229         1.48847 
         1.8592         1.34505        0.923032         1.47922 
        1.86533         1.33486        0.915916         1.47149 
        1.87147          1.3269        0.908868         1.46212 
        1.87761         1.31854        0.901891         1.45347 
