# k  (h/Mpc)    P(k)  (Mpc/h)^3    P_linear(k)  (Mpc/h)^3     P_NL(k)  ShotnoiseSubtracted = false
     0.00783031         10386.8           10524         10512.8 
       0.013688         14160.9         14064.7         13985.8 
       0.019231         15180.7         15190.7         15055.6 
      0.0249154           14602         14919.5           14757 
      0.0312784         13528.1         13724.6         13532.3 
      0.0375637         12193.2         12276.2         12074.6 
      0.0433917         10773.8         11049.5         10826.4 
      0.0492413         9909.13         10068.1         9841.73 
      0.0555754         8927.95         9286.77         9061.72 
      0.0619321         8607.96         8704.48         8472.17 
       0.067871          7910.1         8233.56         8004.05 
      0.0738098         7425.29         7747.49         7458.23 
      0.0800417         6778.21         7176.44         6894.99 
      0.0862327         6257.73         6555.07         6337.86 
      0.0921407         5767.77         5954.51         5750.09 
      0.0982031         5196.76          5384.1         5255.14 
       0.104506         4858.74         4884.82         4821.44 
       0.110769         4482.95         4501.93         4415.49 
       0.116806         4195.09         4230.99         4146.87 
       0.122832         4010.58         4029.81         3964.82 
       0.129052          3755.2         3858.33         3797.91 
       0.135211          3594.8         3690.61         3628.02 
       0.141259         3465.81         3506.49         3474.35 
       0.147318         3291.75         3297.36         3292.78 
       0.153489         3037.77         3068.19         3035.32 
       0.159709         2878.66         2839.02          2856.2 
       0.165845         2767.48         2633.25         2725.71 
       0.171974          2598.5         2460.39         2568.08 
       0.178125         2469.53         2323.47         2486.16 
       0.184229          2372.6         2219.33         2373.22 
        0.19034         2242.64         2136.68         2294.01 
       0.196428         2212.96         2063.72         2201.85 
       0.202534         2142.17         1989.28         2138.38 
       0.208729         2056.04          1905.8         2038.06 
       0.214876         1970.85          1813.9         1986.29 
       0.220989         1913.64         1717.15         1917.45 
       0.227147         1824.42         1620.54         1842.32 
        0.23329         1754.88         1531.36         1786.99 
       0.239377         1730.02         1454.44         1721.28 
       0.245482         1624.03         1390.19         1648.66 
       0.251667         1616.08         1336.87          1615.1 
       0.257832         1557.72         1292.07         1567.76 
       0.263955          1510.4         1251.61         1525.61 
       0.270079         1464.76         1211.34         1484.78 
        0.27624         1452.05         1168.69         1440.74 
       0.282372         1390.66         1123.48         1408.03 
        0.28843         1382.51         1077.12         1370.93 
       0.294538         1317.46         1030.68         1335.19 
       0.300721         1312.96         986.154         1297.98 
        0.30691         1259.75         945.803         1277.88 
       0.313033            1237         910.697         1240.17 
       0.319153         1217.01          880.19         1208.94 
       0.325316         1177.65         852.956         1192.59 
        0.33145         1152.22         827.965         1152.54 
       0.337538         1137.39         803.856         1134.04 
       0.343633            1110         779.515         1121.71 
       0.349808         1076.07         754.258         1101.59 
       0.355968         1070.35         728.669         1083.07 
       0.362074         1057.75         703.524         1060.19 
       0.368217         1027.69         679.139         1032.73 
       0.374374         989.435         656.284          1015.7 
       0.380519         989.065         635.334         995.947 
       0.386598         966.577         616.475         983.004 
       0.392688         963.007         599.158         961.197 
        0.39888         935.978         582.674         949.627 
       0.405048          924.24         566.932         938.298 
       0.411186         910.846         551.534         917.409 
       0.417313         893.142         536.203         903.034 
       0.423458          879.95         520.917         889.561 
       0.429607         865.899          505.81          872.13 
       0.435692         849.169         491.276         857.642 
       0.441815         845.169         477.304         853.972 
       0.447964          826.49          464.06         840.228 
       0.454126         815.436         451.591         819.733 
       0.460267          800.51         439.946         818.158 
       0.466387         791.437          428.96         802.612 
        0.47254         781.367         418.351         793.985 
       0.478662         777.342         408.092          782.53 
       0.484765         757.671         398.087         770.932 
       0.490885         752.049         388.219         759.198 
       0.497035         736.715         378.472         752.554 
       0.503198          731.31          368.96         742.998 
       0.509342         723.385         359.803         732.393 
       0.515458         719.501         351.054         728.608 
       0.521598         704.215         342.646         719.506 
       0.527764         688.862         334.582         711.152 
       0.533884         689.658         326.933         703.181 
           0.54             681         319.581         695.085 
       0.546137         677.355          312.43         686.907 
       0.552299         666.759         305.426          677.83 
       0.558452         663.367         298.602         672.508 
       0.564573           652.9          291.98          666.72 
       0.570708         646.348         285.514         660.823 
       0.576825         629.797         279.243         650.587 
       0.582926         631.914         273.178         644.578 
       0.589034         626.071         267.305         635.321 
       0.595184          619.58         261.605         630.257 
       0.601379         612.424         256.072          625.49 
       0.607522         604.181         250.769          617.92 
       0.613639         604.711         245.645         614.431 
       0.619772         588.743         240.644         612.924 
       0.625918         587.238         235.757         604.948 
       0.632068         579.797         230.991         599.382 
       0.638161         577.776         226.392         590.873 
         0.6443         566.335         221.883          588.14 
       0.650464         564.616         217.484         579.051 
       0.656582         562.901         213.239         574.686 
       0.662703         558.549         209.111         572.412 
       0.668861         548.483         205.073         568.397 
       0.675024         544.637         201.145         563.979 
       0.681124          541.79         197.364         555.131 
       0.687237         536.723         193.677         550.792 
       0.693381         530.486         190.071         546.466 
       0.699536         522.903         186.551         542.937 
       0.705665         522.028         183.137         537.973 
       0.711789         517.324         179.811         533.419 
       0.717957         512.598         176.542         531.079 
        0.72409           509.3         173.372         526.689 
       0.730186         503.172         170.299          522.41 
       0.736317         499.607         167.283             517 
       0.742472           497.7         164.331         512.667 
       0.748622         492.004         161.454         508.737 
        0.75476         485.767         158.654         508.697 
       0.760888         480.805         155.928           502.4 
       0.767043           481.4         153.256         498.168 
       0.773185         475.093         150.654         494.789 
       0.779291         470.246         148.129         490.388 
       0.785407         466.953         145.659         487.654 
       0.791564         461.967         143.231         485.108 
       0.797719         459.574         140.859         480.557 
       0.803834         455.904         138.557         478.156 
       0.809972         453.154         136.299         475.158 
       0.816124         452.968         134.086         468.781 
       0.822261          445.58          131.93         466.615 
       0.828378          443.45         129.827         463.471 
       0.834502         439.709         127.769         461.645 
       0.840667          434.83         125.743         458.137 
       0.846816         433.199         123.768         455.093 
       0.852925         428.781         121.847         451.994 
       0.859047         428.736         119.965           448.5 
       0.865192         424.013         118.116         445.565 
       0.871341         420.528         116.305         443.078 
       0.877463         418.181         114.542         440.234 
       0.883569         414.803         112.819         437.465 
       0.889708         411.925         111.124         433.743 
       0.895864         407.874          109.46         431.453 
       0.902008         406.228         107.834         428.762 
       0.908149         403.275         106.242         424.844 
       0.914301         398.944         104.681         422.458 
       0.920448         395.982         103.152         419.247 
       0.926574         391.719          101.66         416.634 
       0.932687         392.126         100.201         413.717 
       0.938823         386.949         98.7657         413.035 
       0.944975         387.025         97.3555         410.022 
       0.951105         382.282         95.9784         406.472 
       0.957225         379.548         94.6305         404.819 
       0.963368         375.573         93.3043         401.934 
       0.969511         373.799         92.0038         399.044 
       0.975621         370.855         90.7353         397.364 
       0.981748          370.35         89.4878         394.528 
       0.987916         367.095         88.2561         393.178 
        0.99406         361.421         87.0526          390.57 
        1.00019         361.273         85.8741         386.493 
        1.00632         358.884         84.7187         384.445 
        1.01246         355.721         83.5832         382.087 
        1.01859         355.851         82.4705         379.599 
        1.02471         351.055         81.3798         378.399 
        1.03085         348.272         80.3052         376.761 
        1.03698         347.433         79.2526         374.706 
        1.04314         344.102         78.2145         372.016 
        1.04929         341.024         77.1977         369.195 
        1.05541         340.343         76.2033         366.945 
        1.06154         335.913         75.2241         364.856 
        1.06769         334.249         74.2609         362.663 
        1.07382         332.489         73.3178         360.475 
        1.07993          330.16         72.3935         358.795 
        1.08607         329.253         71.4814         356.278 
        1.09222         326.225         70.5844         354.069 
        1.09836         323.621         69.7039         353.146 
        1.10449         320.381         68.8397         350.714 
        1.11063         317.958         67.9893          348.29 
        1.11677         317.335         67.1538         346.576 
         1.1229         315.464         66.3339         344.907 
        1.12903         312.479         65.5272         343.136 
        1.13518         310.095         64.7333         340.872 
        1.14131          308.47         63.9532          339.05 
        1.14745         307.022         63.1866         337.168 
        1.15359         304.358         62.4324         335.316 
        1.15973          302.96         61.6905         333.391 
        1.16584         300.211          60.964         330.916 
        1.17197         299.579         60.2483         329.593 
        1.17811         296.712          59.542         328.262 
        1.18424         294.325         58.8492         326.686 
        1.19038         292.974         58.1656         324.816 
        1.19652          290.63         57.4932         323.201 
        1.20267         289.869         56.8315         320.489 
        1.20881         287.755         56.1806         319.439 
        1.21495         285.194         55.5409         317.114 
        1.22108         283.846         54.9114         315.362 
         1.2272         281.887         54.2932          313.06 
        1.23334         279.749         53.6833         311.667 
        1.23949         278.586         53.0813         310.903 
        1.24562         276.713         52.4903         308.998 
        1.25174         273.662         51.9094         307.568 
        1.25789         271.864         51.3355         305.881 
        1.26402         270.822         50.7714         304.185 
        1.27014         268.693         50.2172         302.479 
        1.27628         267.168         49.6697         301.654 
        1.28244         266.293         49.1294          300.02 
        1.28858         263.645         48.5979         298.036 
        1.29471         261.242         48.0755         295.837 
        1.30084         260.273         47.5614         294.523 
        1.30697         258.383         47.0541           293.5 
        1.31312          256.27         46.5535         291.736 
        1.31925         256.196         46.0618         289.701 
        1.32537         254.478         45.5778          288.38 
        1.33151         251.891         45.0991         287.181 
        1.33765         250.204         44.6276         285.482 
        1.34378         249.228         44.1639         284.114 
        1.34992         247.552         43.7065         282.141 
        1.35606         246.972         43.2546         280.618 
         1.3622           244.9           42.81         279.424 
        1.36833         242.699         42.3728         278.393 
        1.37445         241.182          41.942         276.194 
        1.38059         239.152         41.5159          275.42 
        1.38675         238.398         41.0947         274.259 
        1.39288         236.164         40.6811         271.606 
        1.39901         235.806         40.2734         270.822 
        1.40515         233.813         39.8705         269.615 
         1.4113         232.032         39.4733         267.828 
        1.41742          231.08          39.083         266.645 
        1.42355         228.679         38.6974         265.481 
         1.4297         227.611         38.3158          264.08 
        1.43585         225.993         37.9396         263.033 
        1.44198         224.638         37.5699         261.342 
        1.44809         223.763         37.2059         260.272 
        1.45423         221.567         36.8454         258.433 
        1.46036         220.991         36.4903         257.185 
        1.46649           218.9         36.1399         256.419 
        1.47263         217.409         35.7938         255.339 
        1.47877         216.436         35.4525         253.562 
        1.48491         214.771         35.1151         252.253 
        1.49104         213.849         34.7829         251.222 
        1.49718         211.631         34.4547         249.891 
        1.50333         210.711         34.1303         248.898 
        1.50947         209.505         33.8107         247.812 
         1.5156         207.691         33.4958         246.278 
        1.52172         206.723         33.1849         244.667 
        1.52787         205.202         32.8773         243.767 
          1.534         204.448         32.5741         242.643 
        1.54013         202.508          32.275         241.418 
        1.54627          201.96         31.9791         240.385 
        1.55241         199.964          31.687         239.213 
        1.55855         198.851         31.3989         237.875 
        1.56467         197.584         31.1153         236.632 
         1.5708         197.079         30.8343         235.567 
        1.57695         194.854         30.5565         234.522 
        1.58308          194.31         30.2827         233.347 
        1.58922         192.494         30.0121         232.156 
        1.59535         191.189          29.745         231.144 
         1.6015         190.719         29.4808          229.84 
        1.60764         189.088         29.2199         228.536 
        1.61376         187.385         28.9629         227.725 
        1.61989         186.607         28.7089         226.812 
        1.62604         185.618         28.4573         225.642 
        1.63218         184.336         28.2089         224.632 
        1.63831         183.295         27.9641         223.642 
        1.64444         182.194         27.7222         222.292 
        1.65059         180.712         27.4825         221.414 
        1.65673         179.848          27.246         220.373 
        1.66285          178.84         27.0129         219.142 
        1.66898         177.657         26.7825          218.06 
        1.67512         177.046         26.5544         217.136 
        1.68127          174.98         26.3287         216.165 
         1.6874         173.871         26.1061         215.279 
        1.69353         173.283         25.8863         214.516 
        1.69967         171.964         25.6685         213.199 
        1.70581         170.901         25.4534         212.072 
        1.71193         169.609         25.2415         211.169 
        1.71806         169.013         25.0316         209.894 
        1.72421         167.674         24.8237         209.119 
        1.73035         166.835         24.6184         208.205 
        1.73649         166.008         24.4156         207.006 
        1.74262         164.553         24.2151         206.407 
        1.74876         163.908         24.0168         205.491 
        1.75489         162.393         23.8212         204.368 
        1.76101         161.513         23.6278          203.46 
        1.76715         160.886         23.4363         202.568 
        1.77329         160.048         23.2467         201.524 
        1.77943         158.753         23.0591          200.46 
        1.78557         157.766         22.8739         199.559 
        1.79171         156.751         22.6908         198.793 
        1.79785          155.68         22.5096         197.941 
        1.80399         154.824         22.3304         196.892 
        1.81012         153.782         22.1534         196.038 
        1.81625         153.085         21.9785         195.265 
        1.82239         151.992         21.8052         194.383 
        1.82853         151.364         21.6338         193.458 
        1.83466         150.257         21.4645         192.432 
        1.84078         149.438         21.2972         191.491 
        1.84692         148.142         21.1314         190.868 
        1.85306         147.656         20.9671         189.951 
         1.8592         146.312         20.8049         188.997 
        1.86533         145.479         20.6445         188.482 
        1.87147         144.548         20.4857         187.717 
        1.87761          144.14         20.3284         186.726 
