# k  (h/Mpc)    Pcb(k)  (Mpc/h)^3    Pcb_linear(k) (Mpc/h)^3    Pcb_NL(k) (Mpc/h)^3   ShotnoiseSubtracted = false
     0.00783031         1828.98         1846.23         1845.19 
       0.013688         2469.59         2468.43         2459.97 
       0.019231          2666.5         2666.56         2652.95 
      0.0249154         2597.69         2619.24         2608.13 
      0.0312784         2401.73         2409.65         2401.69 
      0.0375637         2157.52         2155.43         2148.29 
      0.0433917         1929.54         1940.11         1933.81 
      0.0492413         1765.51         1767.83         1761.85 
      0.0555754         1615.76         1630.67         1624.31 
      0.0619321         1533.27         1528.44         1521.76 
       0.067871         1434.31         1445.77          1438.5 
      0.0738098         1347.64         1360.43         1350.92 
      0.0800417          1242.2         1260.16         1250.96 
      0.0862327         1139.79         1151.06         1144.22 
      0.0921407         1039.87          1045.6         1039.49 
      0.0982031         937.304         945.442           942.3 
       0.104506         860.678         857.772         857.116 
       0.110769         793.025         790.539         788.734 
       0.116806         740.066         742.965         741.137 
       0.122832         708.935         707.639         706.541 
       0.129052          672.65         677.527         676.359 
       0.135211         642.639         648.076         646.984 
       0.141259         614.599         615.745         615.528 
       0.147318         581.074         579.023         580.422 
       0.153489         538.179          538.78         538.605 
       0.159709         501.177         498.539         500.472 
       0.165845         471.602         462.405         467.829 
       0.171974         437.671          432.05         437.539 
       0.178125         414.852         408.007         415.927 
       0.184229         398.295          389.72         397.808 
        0.19034         377.465         375.207         383.113 
       0.196428         369.036         362.395          368.59 
       0.202534         359.107         349.323         355.972 
       0.208729         342.325         334.664         340.913 
       0.214876         323.724         318.526         327.189 
       0.220989         312.313         301.536         311.162 
       0.227147         291.748         284.573         294.481 
        0.23329         277.596         268.911         281.026 
       0.239377         266.917         255.404         268.681 
       0.245482         252.097         244.122         256.426 
       0.251667         246.638         234.758         248.223 
       0.257832         238.613         226.891         240.151 
       0.263955         230.902         219.787         232.547 
       0.270079         223.986         212.716         225.085 
        0.27624          219.08         205.227          217.08 
       0.282372          210.57         197.287          209.74 
        0.28843         201.891         189.146          201.85 
       0.294538         193.801         180.991         194.622 
       0.300721         189.012         173.172         187.921 
        0.30691         180.343         166.086         181.248 
       0.313033         174.836         159.922         174.808 
       0.319153         167.108         154.564         170.199 
       0.325316         164.527         149.782         165.941 
        0.33145         159.174         145.394         160.665 
       0.337538         156.009          141.16           156.1 
       0.343633         151.164         136.886          152.18 
       0.349808         146.935         132.451         148.132 
       0.355968          143.02         127.957         144.643 
       0.362074         138.618         123.542         140.046 
       0.368217         134.755          119.26         135.041 
       0.374374         130.668         115.246         131.812 
       0.380519         127.399         111.567         127.939 
       0.386598         124.087         108.255         124.795 
       0.392688         121.792         105.215         122.015 
        0.39888         118.564          102.32         118.647 
       0.405048         116.093         99.5554         115.958 
       0.411186         113.698         96.8516         113.923 
       0.417313         110.204         94.1593         110.475 
       0.423458         107.742         91.4749         108.082 
       0.429607         104.902         88.8223         105.325 
       0.435692           101.7         86.2701         103.102 
       0.441815         100.443         83.8164         101.367 
       0.447964         98.8565         81.4907         98.6486 
       0.454126         94.9329         79.3016         96.1933 
       0.460267         93.4258         77.2562         94.5758 
       0.466387         91.1775         75.3271          92.331 
        0.47254         89.9475         73.4641         90.6669 
       0.478662         88.4507         71.6627         88.7228 
       0.484765         86.2192         69.9058         86.7278 
       0.490885         84.4228         68.1728         85.5237 
       0.497035          83.283         66.4613         84.0067 
       0.503198         81.2382         64.7908         81.9098 
       0.509342         79.2686          63.183         80.5611 
       0.515458         77.9149         61.6466         79.5579 
       0.521598         76.8215           60.17         77.3771 
       0.527764         75.3966         58.7539         75.5876 
       0.533884         74.0884         57.4109         74.3625 
           0.54         72.7869         56.1198         73.0888 
       0.546137          71.769         54.8638         72.1291 
       0.552299         70.7511         53.6341         70.4907 
       0.558452         68.6931         52.4357         69.1811 
       0.564573         67.6776         51.2729         68.3862 
       0.570708         66.8849         50.1374          67.183 
       0.576825          65.343         49.0363         66.0363 
       0.582926         64.2554         47.9712          64.995 
       0.589034         62.6585           46.94         64.1108 
       0.595184         61.9455         45.9389         62.8493 
       0.601379         61.1368         44.9674           62.09 
       0.607522         59.8407         44.0361         60.7987 
       0.613639         59.5373         43.1362          59.929 
       0.619772         58.0235         42.2581         59.0318 
       0.625918         57.7879         41.3999         58.3738 
       0.632068         56.8844         40.5629         57.2306 
       0.638161         55.8757         39.7554         56.4477 
         0.6443         54.9012         38.9637         55.4634 
       0.650464         54.0443          38.191         54.7717 
       0.656582         53.7019         37.4457         54.0813 
       0.662703         52.6864         36.7207         53.1307 
       0.668861         51.9131         36.0117         52.5536 
       0.675024         51.1153         35.3218         51.6518 
       0.681124         50.2757         34.6579         50.9314 
       0.687237         49.4933         34.0105         50.1503 
       0.693381         49.1065         33.3772         49.4866 
       0.699536         48.0278         32.7592         48.9937 
       0.705665         48.0207         32.1596         48.4446 
       0.711789         46.9495         31.5755         47.5379 
       0.717957         46.4584         31.0015         47.0478 
        0.72409           45.79         30.4449         46.5608 
       0.730186         45.1795         29.9052         45.8536 
       0.736317         44.8136         29.3757         45.2439 
       0.742472         44.0396         28.8572         44.8506 
       0.748622          43.677          28.352         44.1306 
        0.75476         42.9862         27.8604          43.616 
       0.760888         42.4667         27.3815         43.1486 
       0.767043         42.0052         26.9124         42.7382 
       0.773185         41.3276         26.4555         42.2008 
       0.779291          41.128         26.0121         41.7697 
       0.785407         40.6594         25.5783         41.2058 
       0.791564         39.9358         25.1519         40.7246 
       0.797719         39.2703         24.7355          40.253 
       0.803834         39.2008         24.3313         39.7362 
       0.809972         38.7868         23.9347         39.4205 
       0.816124         37.9071         23.5461         38.8919 
       0.822261          37.801         23.1674         38.3803 
       0.828378         37.3884         22.7982         37.9559 
       0.834502          36.963         22.4368         37.7668 
       0.840667         36.5893         22.0811         37.2065 
       0.846816         36.0287         21.7341         36.8749 
       0.852925         35.7417         21.3969         36.7142 
       0.859047         35.3186         21.0663         36.0867 
       0.865192         35.0422         20.7416         35.7338 
       0.871341         34.8194         20.4237         35.4618 
       0.877463         34.1833          20.114         35.0503 
       0.883569         33.8235         19.8116         34.7888 
       0.889708         33.4606         19.5139         34.3319 
       0.895864         33.2457         19.2217         33.9806 
       0.902008         32.9851         18.9361         33.7006 
       0.908149         32.6506         18.6566         33.4152 
       0.914301         32.4719         18.3824         33.1924 
       0.920448         31.8109          18.114          32.732 
       0.926574         31.6593         17.8519         32.3966 
       0.932687          31.331         17.5957          32.062 
       0.938823         30.9621         17.3437         31.8063 
       0.944975           30.67         17.0961          31.474 
       0.951105         30.4695         16.8542         31.1336 
       0.957225         30.1293         16.6175         30.9772 
       0.963368         29.8753         16.3846         30.6218 
       0.969511         29.6653         16.1563         30.3919 
       0.975621         29.4467         15.9335         30.0938 
       0.981748         29.0695         15.7144          29.899 
       0.987916         28.8818         15.4982           29.56 
        0.99406         28.5611         15.2868         29.3257 
        1.00019         28.1989         15.0799         29.0881 
        1.00632         28.1689          14.877         28.8802 
        1.01246         27.8727         14.6776         28.7097 
        1.01859         27.5079         14.4822         28.3905 
        1.02471         27.4346         14.2906         28.1175 
        1.03085         27.1719         14.1019         27.9148 
        1.03698         26.7629         13.9171         27.6811 
        1.04314         26.6214         13.7348         27.3946 
        1.04929         26.3335         13.5563         27.2345 
        1.05541         26.1036         13.3816         27.0686 
        1.06154         25.9217         13.2097         26.7648 
        1.06769         25.7891         13.0405         26.5612 
        1.07382         25.5015         12.8749         26.4024 
        1.07993           25.39         12.7126         26.1736 
        1.08607         25.0949         12.5525         25.9493 
        1.09222          24.919         12.3949         25.7792 
        1.09836         24.6284         12.2403         25.5493 
        1.10449         24.5525         12.0885         25.3436 
        1.11063         24.2875         11.9392         25.2099 
        1.11677         24.1863         11.7925         24.9666 
         1.1229          24.049         11.6485         24.8032 
        1.12903         23.7596         11.5069          24.675 
        1.13518         23.5237         11.3675         24.4349 
        1.14131         23.4221         11.2305         24.2523 
        1.14745         23.2591         11.0958         24.0678 
        1.15359         23.1005         10.9634         23.9148 
        1.15973         22.9021         10.8331         23.7424 
        1.16584         22.6273         10.7055         23.6415 
        1.17197         22.5898         10.5799         23.4608 
        1.17811         22.3759         10.4558          23.224 
        1.18424         22.1785         10.3342         23.1078 
        1.19038         22.1012         10.2141         22.9427 
        1.19652         21.9063         10.0961         22.7597 
        1.20267         21.7018         9.97987         22.6018 
        1.20881          21.666         9.86555         22.5321 
        1.21495         21.4917         9.75322          22.356 
        1.22108         21.2737         9.64268         22.1901 
         1.2272            21.1         9.53413         22.0101 
        1.23334          20.938         9.42702         21.9181 
        1.23949         20.7851         9.32131         21.7495 
        1.24562         20.7442         9.21754         21.5814 
        1.25174         20.5915         9.11551          21.475 
        1.25789         20.4725         9.01473         21.3222 
        1.26402         20.3548         8.91568         21.1505 
        1.27014         20.1828         8.81836         21.0433 
        1.27628         19.9569         8.72221         20.9081 
        1.28244         19.8911         8.62733         20.8358 
        1.28858         19.8223           8.534          20.643 
        1.29471         19.6176         8.44227          20.512 
        1.30084         19.4619         8.35199         20.4598 
        1.30697         19.3935          8.2629          20.286 
        1.31312         19.1786         8.17499         20.1505 
        1.31925         19.0674         8.08866         20.0817 
        1.32537         19.0107         8.00367          19.975 
        1.33151         18.8517         7.91961         19.8147 
        1.33765         18.7331         7.83681         19.6848 
        1.34378         18.6302         7.75538         19.5982 
        1.34992         18.4504         7.67505          19.477 
        1.35606         18.4043         7.59571         19.3292 
         1.3622         18.3064         7.51763         19.2289 
        1.36833          18.159         7.44085         19.1689 
        1.37445         18.0711          7.3652         19.0172 
        1.38059         17.9902         7.29037         18.8793 
        1.38675         17.8114         7.21641         18.8107 
        1.39288         17.7184         7.14378         18.6857 
        1.39901         17.5626         7.07219         18.5992 
        1.40515         17.5179         7.00144         18.5058 
         1.4113         17.4195         6.93168         18.4032 
        1.41742         17.2998         6.86315         18.2969 
        1.42355         17.1994         6.79543         18.1646 
         1.4297         17.0727         6.72842         18.1061 
        1.43585         17.0281         6.66236         18.0224 
        1.44198         16.9034         6.59744         17.8987 
        1.44809         16.8097         6.53351         17.8249 
        1.45423         16.6927         6.47021         17.7242 
        1.46036          16.632         6.40786         17.6091 
        1.46649          16.538         6.34633         17.5136 
        1.47263         16.3969         6.28556         17.4461 
        1.47877         16.3303         6.22562         17.3743 
        1.48491         16.2277         6.16637         17.2319 
        1.49104           16.16         6.10803         17.1668 
        1.49718         16.0593          6.0504         17.0868 
        1.50333         15.9668         5.99343         16.9995 
        1.50947         15.8787         5.93732          16.922 
         1.5156         15.7855         5.88201         16.8329 
        1.52172         15.6821         5.82741         16.7291 
        1.52787         15.5924         5.77341         16.6327 
          1.534         15.5236         5.72015         16.5581 
        1.54013         15.4361         5.66763          16.451 
        1.54627         15.3288         5.61568         16.3699 
        1.55241         15.2668         5.56438         16.3266 
        1.55855          15.201         5.51379         16.2451 
        1.56467         15.0949         5.46398         16.1515 
         1.5708         15.0635         5.41465         16.1004 
        1.57695         14.9205         5.36585         16.0285 
        1.58308         14.8659         5.31778         15.9377 
        1.58922          14.797         5.27026         15.8817 
        1.59535         14.7345         5.22335         15.7908 
         1.6015         14.6222         5.17695         15.7062 
        1.60764          14.556         5.13114         15.6381 
        1.61376         14.5228         5.08602         15.5642 
        1.61989         14.3956         5.04141         15.5043 
        1.62604         14.3567         4.99723         15.4425 
        1.63218         14.2796         4.95362         15.3597 
        1.63831          14.221         4.91063         15.2812 
        1.64444         14.1266         4.86814         15.2265 
        1.65059         14.0359         4.82606         15.1362 
        1.65673          13.988         4.78452         15.0783 
        1.66285         13.8686         4.74359         15.0279 
        1.66898         13.8329         4.70313         14.9462 
        1.67512          13.781         4.66306         14.8816 
        1.68127         13.6885         4.62343         14.8017 
         1.6874         13.6368         4.58436         14.7267 
        1.69353         13.5747         4.54576         14.6895 
        1.69967          13.479         4.50751         14.6269 
        1.70581         13.3985         4.46973         14.5641 
        1.71193         13.3567         4.43252          14.505 
        1.71806         13.3294         4.39567         14.4284 
        1.72421         13.2206         4.35916         14.3787 
        1.73035          13.188         4.32311         14.3082 
        1.73649         13.1322         4.28748         14.2227 
        1.74262           13.04         4.25228         14.2026 
        1.74876         12.9918         4.21746         14.1425 
        1.75489          12.948         4.18311         14.0511 
        1.76101         12.8473         4.14915         13.9847 
        1.76715         12.8221         4.11552         13.9481 
        1.77329         12.7552         4.08223         13.8895 
        1.77943         12.6686         4.04929         13.8253 
        1.78557          12.639         4.01677         13.7837 
        1.79171         12.5778          3.9846         13.7187 
        1.79785         12.5117         3.95278         13.6463 
        1.80399         12.4431         3.92132         13.6021 
        1.81012         12.3912         3.89025         13.5604 
        1.81625         12.3166         3.85952         13.5145 
        1.82239         12.2807         3.82909         13.4591 
        1.82853         12.1926           3.799         13.3878 
        1.83466          12.159         3.76926         13.3406 
        1.84078         12.0781         3.73988         13.3028 
        1.84692         12.0673         3.71077         13.2258 
        1.85306         11.9925         3.68193         13.1777 
         1.8592         11.9314         3.65344         13.1479 
        1.86533         11.8877         3.62528         13.0824 
        1.87147         11.8318         3.59738         13.0233 
