# k  (h/Mpc)    Pcb(k)  (Mpc/h)^3    Pcb_linear(k) (Mpc/h)^3    Pcb_NL(k) (Mpc/h)^3   ShotnoiseSubtracted = false
     0.00783031         10814.1         10958.4         10946.3 
       0.013688         14747.5           14645         14561.5 
       0.019231           15806         15817.4         15674.2 
      0.0249154         15197.2           15535         15361.5 
      0.0312784         14079.9         14290.8         14084.3 
      0.0375637         12691.7         12782.5           12566 
      0.0433917         11209.9         11505.3         11265.3 
      0.0492413         10311.7         10483.4         10239.8 
      0.0555754         9285.92         9669.82         9427.85 
      0.0619321         8956.82         9063.52         8813.85 
       0.067871         8226.16         8573.17         8326.69 
      0.0738098         7721.97         8067.04         7756.49 
      0.0800417         7046.87         7472.44         7170.41 
      0.0862327         6506.97         6825.44         6592.28 
      0.0921407         5999.59         6200.11         5980.85 
      0.0982031         5406.19         5606.17          5467.6 
       0.104506         5056.97         5086.29         5018.02 
       0.110769         4666.28         4687.61         4595.08 
       0.116806         4367.82         4405.51          4315.4 
       0.122832         4174.95         4196.03         4126.31 
       0.129052         3907.89         4017.47         3952.83 
       0.135211         3740.92         3842.83         3775.64 
       0.141259         3607.59         3651.11         3616.76 
       0.147318          3427.1         3433.36         3428.02 
       0.153489         3162.56         3194.74          3159.7 
       0.159709         2998.11         2956.12         2974.43 
       0.165845         2884.43         2741.86          2840.2 
       0.171974         2709.25         2561.87         2676.86 
       0.178125         2575.13          2419.3         2592.73 
       0.184229         2473.46         2310.87         2474.61 
        0.19034         2339.65         2224.81         2392.41 
       0.196428         2308.27         2148.84          2296.7 
       0.202534         2233.51         2071.33         2230.84 
       0.208729         2144.57          1984.4         2126.04 
       0.214876         2057.24         1888.72         2072.37 
       0.220989         1997.33         1787.97         2001.55 
       0.227147         1905.76         1687.38         1924.32 
        0.23329         1833.47         1594.52         1866.84 
       0.239377         1808.47         1514.42         1798.36 
       0.245482         1698.29         1447.53         1723.02 
       0.251667         1690.37            1392         1688.23 
       0.257832         1629.09         1345.36         1639.06 
       0.263955         1579.53         1303.23         1595.41 
       0.270079          1531.9          1261.3         1552.91 
        0.27624         1518.49          1216.9         1507.15 
       0.282372         1454.53         1169.82         1473.89 
        0.28843         1447.67         1121.54         1435.87 
       0.294538         1379.79         1073.19         1398.32 
       0.300721         1374.82         1026.83         1359.25 
        0.30691         1319.92         984.812         1338.88 
       0.313033         1295.95         948.261         1299.73 
       0.319153         1276.31         916.493         1266.83 
       0.325316         1234.74         888.136         1250.07 
        0.33145         1208.45         862.115          1208.2 
       0.337538         1192.53          837.01          1189.3 
       0.343633         1164.63         811.666         1176.41 
       0.349808         1129.18         785.369         1155.56 
       0.355968         1123.02         758.722         1136.39 
       0.362074         1110.39         732.542         1112.68 
       0.368217          1078.6         707.151         1084.28 
       0.374374            1039         683.351         1066.55 
       0.380519          1039.2          661.54         1046.11 
       0.386598         1015.31           641.9         1032.53 
       0.392688         1011.37         623.871         1009.91 
        0.39888         983.271         606.706         997.915 
       0.405048         971.399         590.315         985.765 
       0.411186         957.489         574.283         964.328 
       0.417313         938.748         558.319         949.831 
       0.423458         924.857         542.401         935.416 
       0.429607         910.499         526.672         917.365 
       0.435692         893.225         511.539         902.068 
       0.441815         888.997          496.99         898.592 
       0.447964         869.223         483.199         884.401 
       0.454126         858.712         470.219          862.63 
       0.460267          842.52         458.091         861.256 
       0.466387         832.708         446.652         844.906 
        0.47254         823.141         435.606         835.807 
       0.478662         818.262         424.924         824.145 
       0.484765         797.923         414.506         812.406 
       0.490885         792.191         404.231         799.717 
       0.497035         775.771         394.083         792.818 
       0.503198         770.676         384.177         783.013 
       0.509342         762.032         374.644         771.493 
       0.515458         758.289         365.534         767.615 
       0.521598         742.013         356.778         758.559 
       0.527764         725.889         348.381         749.907 
       0.533884         726.948         340.418         741.524 
           0.54         717.991         332.762         733.169 
       0.546137         713.731         325.315         724.541 
       0.552299         703.059         318.024         714.921 
       0.558452         699.323         310.917          709.44 
       0.564573           688.4         304.023         703.273 
       0.570708         681.814          297.29         696.936 
       0.576825         663.939         290.761         686.418 
       0.582926          666.66         284.445         680.286 
       0.589034         660.511         278.331         670.401 
       0.595184         653.598         272.395         665.299 
       0.601379         645.931         266.634         660.203 
       0.607522         637.321         261.112          652.05 
       0.613639         638.194         255.776         648.647 
       0.619772         621.558         250.569         647.127 
       0.625918         619.606         245.481          638.72 
       0.632068         611.971         240.518         633.226 
       0.638161         609.895          235.73         623.795 
         0.6443         597.819         231.035         621.049 
       0.650464         596.246         226.454         611.619 
       0.656582         594.241         222.034          607.13 
       0.662703         589.717         217.736         604.508 
       0.668861         579.129         213.532         600.543 
       0.675024         575.075         209.441         596.091 
       0.681124         572.085         205.504         586.588 
       0.687237         566.851         201.665         582.079 
       0.693381         560.371          197.91         577.434 
       0.699536         551.908         194.246         573.669 
       0.705665         551.472         190.691         568.395 
       0.711789         546.465         187.227         563.599 
       0.717957         541.435         183.824         561.362 
        0.72409           538.2         180.523          556.65 
       0.730186         531.412         177.323         552.061 
       0.736317         527.844         174.183         546.447 
       0.742472         525.744         171.109         541.957 
       0.748622         519.782         168.113         537.804 
        0.75476         512.872         165.198         537.892 
       0.760888         507.823         162.359         531.233 
       0.767043          508.29         159.577         526.485 
       0.773185         501.915         156.868         523.047 
       0.779291         497.102         154.238         518.415 
       0.785407         493.292         151.667         515.548 
       0.791564         488.038         149.138         513.084 
       0.797719         485.599         146.669         508.098 
       0.803834          481.75         144.272         505.604 
       0.809972         478.789         141.921         502.581 
       0.816124         478.468         139.617         495.693 
       0.822261         470.798         137.371         493.412 
       0.828378          468.49         135.182         490.154 
       0.834502         464.275         133.039          488.33 
       0.840667          459.47          130.93         484.598 
       0.846816         457.629         128.872         481.324 
       0.852925         452.913         126.873         478.124 
       0.859047         453.072         124.912         474.294 
       0.865192         447.927         122.987         471.195 
       0.871341         444.211         121.102          468.69 
       0.877463         442.019         119.266         465.661 
       0.883569         438.165         117.473         462.654 
       0.889708         435.328         115.708         458.741 
       0.895864         431.318         113.975         456.353 
       0.902008         429.281         112.282         453.562 
       0.908149         425.954         110.624         449.413 
       0.914301         421.686         108.998         446.748 
       0.920448         418.654         107.407         443.597 
       0.926574         413.728         105.853         440.716 
       0.932687         414.108         104.334         437.776 
       0.938823          408.75         102.839         436.965 
       0.944975         409.054         101.371         433.683 
       0.951105         403.669          99.937         429.869 
       0.957225         400.892         98.5335         428.352 
       0.963368         396.894         97.1526         425.343 
       0.969511         395.115         95.7985         422.246 
       0.975621          391.97         94.4777         420.268 
       0.981748         391.116         93.1787         417.277 
       0.987916         387.876         91.8963         415.995 
        0.99406         381.716          90.643         413.141 
        1.00019         381.425          89.416         408.761 
        1.00632         378.997          88.213         406.681 
        1.01246          375.75         87.0306         404.193 
        1.01859         375.832          85.872         401.445 
        1.02471          370.72         84.7363         400.239 
        1.03085         368.019         83.6174         398.614 
        1.03698         367.069         82.5213         396.404 
        1.04314         363.528         81.4405           393.6 
        1.04929         360.041         80.3817         390.558 
        1.05541         359.481         79.3463          388.13 
        1.06154         354.757         78.3267         385.902 
        1.06769         352.789         77.3237         383.512 
        1.07382         351.009         76.3418         381.288 
        1.07993         348.612         75.3793         379.483 
        1.08607         347.645         74.4297         376.753 
        1.09222         344.412         73.4956         374.425 
        1.09836         341.796         72.5788         373.465 
        1.10449         338.306          71.679         370.898 
        1.11063         335.661         70.7935         368.237 
        1.11677         335.105         69.9236         366.554 
         1.1229         333.164         69.0699         364.703 
        1.12903         329.919         68.2299         362.816 
        1.13518         327.236         67.4033         360.431 
        1.14131         325.721          66.591         358.462 
        1.14745         323.825         65.7927         356.501 
        1.15359         321.269         65.0075         354.594 
        1.15973         319.567         64.2349         352.552 
        1.16584         316.909         63.4785         350.067 
        1.17197          316.14         62.7332         348.543 
        1.17811         313.132         61.9978         347.073 
        1.18424         310.433         61.2765         345.472 
        1.19038         308.958         60.5647         343.465 
        1.19652         306.557         59.8645         341.689 
        1.20267         305.718         59.1756         338.898 
        1.20881         303.663         58.4977         337.662 
        1.21495         300.888         57.8317          335.28 
        1.22108         299.391         57.1762         333.398 
         1.2272         297.326         56.5325          331.02 
        1.23334         295.048         55.8974         329.445 
        1.23949          293.87         55.2706         328.575 
        1.24562         291.839         54.6553         326.667 
        1.25174         288.706         54.0504         325.065 
        1.25789         286.709         53.4528         323.314 
        1.26402         285.553         52.8654         321.619 
        1.27014         283.261         52.2884         319.607 
        1.27628         281.664         51.7183         318.803 
        1.28244         280.752         51.1557         317.201 
        1.28858         277.862         50.6023         315.037 
        1.29471         275.374         50.0584         312.661 
        1.30084         274.434          49.523         311.297 
        1.30697         272.388         48.9948         310.217 
        1.31312         270.061         48.4736         308.418 
        1.31925         269.997         47.9616         306.241 
        1.32537         268.272         47.4577         304.697 
        1.33151         265.405         46.9592         303.495 
        1.33765         263.654         46.4683         301.767 
        1.34378         262.619         45.9854         300.253 
        1.34992         260.781         45.5092         298.136 
        1.35606         260.141         45.0387          296.56 
         1.3622         257.953         44.5757         295.324 
        1.36833         255.715         44.1205         294.245 
        1.37445         254.224         43.6719         291.873 
        1.38059         251.888         43.2282         291.087 
        1.38675         251.198         42.7896         289.921 
        1.39288         248.848          42.359         287.047 
        1.39901         248.316         41.9345         286.133 
        1.40515         246.279          41.515         284.804 
         1.4113         244.549         41.1013         282.944 
        1.41742         243.371          40.695         281.742 
        1.42355         240.902         40.2934         280.403 
         1.4297         239.735         39.8961          278.95 
        1.43585         238.113         39.5044         277.944 
        1.44198         236.666         39.1194         276.073 
        1.44809         235.636         38.7404         275.041 
        1.45423         233.353         38.3651         272.953 
        1.46036         232.694         37.9954         271.654 
        1.46649         230.445         37.6305         270.838 
        1.47263          228.93         37.2702         269.574 
        1.47877         227.869         36.9147         267.736 
        1.48491         226.121         36.5634         266.351 
        1.49104         225.184         36.2175         265.215 
        1.49718         222.894         35.8758          263.94 
        1.50333          221.86          35.538         262.909 
        1.50947         220.509         35.2053         261.716 
         1.5156         218.575         34.8773         260.054 
        1.52172         217.681         34.5536           258.3 
        1.52787         216.064         34.2334         257.373 
          1.534         215.154         33.9176         256.242 
        1.54013         213.144         33.6062         254.891 
        1.54627         212.557         33.2981          253.77 
        1.55241         210.483         32.9939         252.601 
        1.55855         209.303          32.694         251.219 
        1.56467          207.93         32.3986         249.825 
         1.5708         207.531         32.1061         248.627 
        1.57695         205.143         31.8168         247.556 
        1.58308         204.409         31.5317         246.323 
        1.58922         202.414           31.25         245.032 
        1.59535         201.099         30.9718         244.015 
         1.6015         200.668         30.6967         242.657 
        1.60764         198.935         30.4251         241.227 
        1.61376         197.165         30.1575         240.329 
        1.61989         196.297          29.893          239.34 
        1.62604         195.222          29.631         238.108 
        1.63218         193.898         29.3724         237.076 
        1.63831         192.779         29.1175         236.058 
        1.64444         191.675         28.8656         234.614 
        1.65059         190.007          28.616         233.654 
        1.65673         189.188         28.3697          232.57 
        1.66285         188.063         28.1271         231.261 
        1.66898         186.719         27.8871         230.058 
        1.67512         186.168         27.6496         229.112 
        1.68127         183.923         27.4146         228.061 
         1.6874         182.878         27.1829         227.077 
        1.69353          182.13          26.954         226.313 
        1.69967         180.743         26.7272          224.93 
        1.70581         179.644         26.5032         223.739 
        1.71193         178.306         26.2826         222.798 
        1.71806         177.663         26.0641         221.451 
        1.72421         176.174         25.8476         220.618 
        1.73035         175.401         25.6338         219.629 
        1.73649         174.405         25.4226         218.349 
        1.74262         172.965         25.2139         217.725 
        1.74876         172.232         25.0074         216.747 
        1.75489         170.649         24.8037         215.555 
        1.76101         169.698         24.6023         214.618 
        1.76715         169.037         24.4029         213.701 
        1.77329         168.132         24.2055          212.61 
        1.77943         166.883         24.0102         211.481 
        1.78557         165.775         23.8174         210.505 
        1.79171         164.681         23.6266         209.665 
        1.79785         163.499          23.438         208.748 
        1.80399         162.592         23.2514         207.662 
        1.81012         161.507         23.0672         206.811 
        1.81625         160.828          22.885         205.966 
        1.82239         159.566         22.7045         204.957 
        1.82853         158.954         22.5261         203.986 
        1.83466         157.753         22.3498         202.924 
        1.84078         156.921         22.1756         201.932 
        1.84692           155.5         22.0029         201.289 
        1.85306         155.019         21.8319           200.3 
         1.8592         153.653          21.663         199.267 
        1.86533          152.77          21.496         198.749 
        1.87147         151.726         21.3306         197.977 
