# k  (h/Mpc)    Pcb(k)  (Mpc/h)^3    Pcb_linear(k) (Mpc/h)^3    Pcb_NL(k) (Mpc/h)^3   ShotnoiseSubtracted = false
     0.00783031         144.326         145.453         145.313 
       0.013688         193.856         194.566         193.966 
       0.019231         209.968         210.221         209.315 
      0.0249154         205.712          206.51         205.885 
      0.0312784          189.78         189.996         189.737 
      0.0375637         170.123         169.958         169.839 
      0.0433917         152.933         152.983         152.988 
      0.0492413         139.518           139.4         139.431 
      0.0555754         128.448         128.586         128.584 
      0.0619321         120.754         120.526         120.499 
       0.067871         113.857         114.007         113.926 
      0.0738098          107.06         107.278         107.149 
      0.0800417         99.0493         99.3721         99.2539 
      0.0862327         90.5959         90.7688         90.6881 
      0.0921407         82.3808         82.4534         82.4105 
      0.0982031         74.4298         74.5552          74.557 
       0.104506         67.7376         67.6419         67.6744 
       0.110769         62.4109         62.3401         62.3647 
       0.116806         58.4856         58.5886          58.592 
       0.122832         55.8069         55.8029         55.8008 
       0.129052         53.2982         53.4284         53.4102 
       0.135211         50.9273          51.106         51.0764 
       0.141259         48.4677         48.5565         48.5314 
       0.147318         45.6656         45.6607         45.6528 
       0.153489         42.4316         42.4873         42.4774 
       0.159709         39.2794         39.3139         39.3292 
       0.165845         36.5835         36.4645         36.5132 
       0.171974         34.0494         34.0708         34.1211 
       0.178125         32.1762         32.1748         32.2433 
       0.184229         30.7818         30.7328         30.7998 
        0.19034         29.5078         29.5882         29.6486 
       0.196428         28.5611         28.5779         28.6185 
       0.202534         27.6272         27.5471         27.5876 
       0.208729         26.3989         26.3911         26.4289 
       0.214876         25.0575         25.1185         25.1768 
       0.220989         23.8644         23.7787         23.8481 
       0.227147         22.4007          22.441         22.5144 
        0.23329         21.1803          21.206         21.2997 
       0.239377          20.141         20.1408         20.2468 
       0.245482         19.2233         19.2511         19.3489 
       0.251667         18.5555         18.5127         18.6188 
       0.257832         17.9032         17.8923         17.9948 
       0.263955         17.3505         17.3321         17.4274 
       0.270079            16.8         16.7745          16.864 
        0.27624         16.2626         16.1839         16.2679 
       0.282372         15.6297         15.5578         15.6493 
        0.28843         14.9451         14.9158         15.0119 
       0.294538         14.3142         14.2727         14.3766 
       0.300721         13.7459         13.6562         13.7701 
        0.30691         13.1439         13.0974         13.2141 
       0.313033         12.6685         12.6113         12.7266 
       0.319153         12.1701         12.1888         12.3118 
       0.325316         11.8985         11.8116         11.9383 
        0.33145         11.5325         11.4656         11.5839 
       0.337538         11.1914         11.1317         11.2456 
       0.343633         10.8378         10.7946         10.9076 
       0.349808         10.5061         10.4449         10.5621 
       0.355968         10.1589         10.0905         10.2232 
       0.362074         9.80407         9.74235         9.87002 
       0.368217         9.47299         9.40466         9.52287 
       0.374374         9.12557         9.08815         9.21686 
       0.380519         8.86861         8.79807         8.92311 
       0.386598         8.61618         8.53687          8.6664 
       0.392688         8.39083          8.2971         8.42561 
        0.39888         8.14877         8.06881         8.19542 
       0.405048         7.93641         7.85082         7.97058 
       0.411186         7.73103         7.63761         7.76985 
       0.417313         7.49478         7.42529         7.55224 
       0.423458         7.30149          7.2136         7.34313 
       0.429607         7.07522         7.00442          7.1302 
       0.435692          6.8745         6.80316         6.93461 
       0.441815         6.68729         6.60966         6.74895 
       0.447964         6.53094         6.42626          6.5614 
       0.454126         6.32827         6.25363         6.38674 
       0.460267         6.16467         6.09233         6.22872 
       0.466387           6.003          5.9402         6.07084 
        0.47254         5.86666          5.7933         5.92512 
       0.478662         5.73195         5.65124         5.78064 
       0.484765         5.58329         5.51269         5.64366 
       0.490885         5.44735         5.37603         5.51595 
       0.497035         5.34125         5.24106          5.3819 
       0.503198         5.19659         5.10932         5.23951 
       0.509342         5.07754         4.98254         5.11668 
       0.515458         4.94399         4.86138         5.00163 
       0.521598         4.83224         4.74494          4.8751 
       0.527764         4.70967         4.63327         4.76323 
       0.533884         4.62119         4.52735         4.65825 
           0.54         4.51427         4.42554         4.55404 
       0.546137         4.42198          4.3265         4.45766 
       0.552299         4.32169         4.22953         4.35248 
       0.558452         4.21226         4.13502            4.26 
       0.564573         4.13134         4.04332         4.17802 
       0.570708         4.04356         3.95378         4.08579 
       0.576825         3.94814         3.86695         3.99671 
       0.582926         3.87549         3.78295          3.9149 
       0.589034         3.76949         3.70163         3.83731 
       0.595184         3.69827         3.62269         3.74644 
       0.601379         3.62182         3.54607         3.67847 
       0.607522         3.55868         3.47263         3.60306 
       0.613639         3.49914         3.40167         3.53038 
       0.619772         3.41166         3.33243         3.46519 
       0.625918         3.35011         3.26475         3.39268 
       0.632068         3.29247         3.19875         3.32497 
       0.638161         3.21947         3.13507         3.26062 
         0.6443         3.15553         3.07263         3.19609 
       0.650464         3.08645          3.0117         3.14006 
       0.656582          3.0377         2.95292         3.07933 
       0.662703          2.9813         2.89576         3.02052 
       0.668861         2.93274         2.83985         2.96839 
       0.675024         2.86926         2.78544          2.9108 
       0.681124         2.81011         2.73309         2.85671 
       0.687237         2.76864         2.68203         2.80125 
       0.693381         2.72007         2.63209          2.7484 
       0.699536         2.65388         2.58336          2.7012 
       0.705665         2.61074         2.53607         2.66115 
       0.711789         2.57031         2.49001         2.61315 
       0.717957         2.51962         2.44475         2.56389 
        0.72409         2.47839         2.40085         2.52007 
       0.730186           2.434         2.35829         2.47408 
       0.736317         2.40252         2.31653         2.43144 
       0.742472         2.35928         2.27565         2.39711 
       0.748622         2.31545         2.23581         2.35679 
        0.75476         2.26819         2.19704         2.31266 
       0.760888         2.23127         2.15928         2.27597 
       0.767043         2.20667         2.12228            2.24 
       0.773185         2.16147         2.08625         2.20532 
       0.779291          2.1283         2.05128         2.16949 
       0.785407         2.09462         2.01708         2.13339 
       0.791564         2.06098         1.98345         2.09968 
       0.797719         2.03158         1.95061         2.06234 
       0.803834         1.99971         1.91874         2.03198 
       0.809972         1.96699         1.88746          2.0037 
       0.816124         1.93258         1.85682         1.96876 
       0.822261         1.89917         1.82695         1.93821 
       0.828378         1.87512         1.79784         1.90878 
       0.834502         1.84984         1.76934         1.87799 
       0.840667         1.81322         1.74129          1.8513 
       0.846816         1.78658         1.71393         1.82814 
       0.852925         1.76652         1.68734         1.79855 
       0.859047          1.7394         1.66126         1.77538 
       0.865192         1.71108         1.63566         1.74701 
       0.871341         1.68491         1.61059         1.72022 
       0.877463         1.66686         1.58617         1.69445 
       0.883569         1.63686         1.56232         1.67228 
       0.889708         1.61214         1.53884         1.64831 
       0.895864          1.5898          1.5158         1.62387 
       0.902008         1.56425         1.49328         1.60076 
       0.908149          1.5424         1.47124         1.57969 
       0.914301         1.51424         1.44961         1.55517 
       0.920448         1.49607         1.42845         1.53305 
       0.926574          1.4741         1.40778           1.513 
       0.932687         1.45411         1.38758          1.4897 
       0.938823         1.43983          1.3677          1.4748 
       0.944975         1.41781         1.34818         1.44945 
       0.951105         1.39954          1.3291          1.4304 
       0.957225         1.38432         1.31044         1.41458 
       0.963368         1.36365         1.29207         1.39366 
       0.969511          1.3421         1.27406         1.37558 
       0.975621         1.32184          1.2565         1.35372 
       0.981748         1.31015         1.23922         1.33724 
       0.987916         1.29136         1.22217         1.32358 
        0.99406         1.27218          1.2055         1.30708 
        1.00019         1.25932         1.18918         1.29003 
        1.00632         1.23814         1.17318         1.27174 
        1.01246          1.2225         1.15746         1.25486 
        1.01859          1.2093         1.14205         1.24036 
        1.02471         1.19215         1.12694         1.22542 
        1.03085         1.18097         1.11206         1.20723 
        1.03698         1.16273         1.09749         1.19165 
        1.04314         1.14945         1.08311         1.17822 
        1.04929         1.13323         1.06903         1.16374 
        1.05541         1.12159         1.05526         1.15104 
        1.06154         1.10548          1.0417          1.1369 
        1.06769         1.09074         1.02836         1.12247 
        1.07382         1.07948          1.0153         1.10911 
        1.07993         1.06318          1.0025         1.09572 
        1.08607          1.0555        0.989873         1.08304 
        1.09222         1.03963         0.97745         1.06899 
        1.09836         1.03137        0.965258         1.05761 
        1.10449         1.01828         0.95329         1.04507 
        1.11063         1.00276        0.941514         1.03144 
        1.11677        0.989795        0.929944         1.02102 
         1.1229        0.979949         0.91859         1.00927 
        1.12903        0.966917        0.907418        0.997351 
        1.13518         0.95851        0.896425        0.986159 
        1.14131        0.945107        0.885622        0.975369 
        1.14745        0.929685        0.875006        0.962542 
        1.15359         0.92333        0.864563        0.952663 
        1.15973        0.909259        0.854288        0.943025 
        1.16584        0.904433        0.844228        0.931288 
        1.17197        0.892138        0.834317        0.921076 
        1.17811        0.883029        0.824536        0.912035 
        1.18424        0.876032        0.814943        0.900304 
        1.19038        0.863022        0.805476        0.890958 
        1.19652        0.851268        0.796164        0.881842 
        1.20267        0.845626        0.787002        0.870051 
        1.20881        0.833937        0.777987         0.86253 
        1.21495        0.827504        0.769129        0.855094 
        1.22108        0.817844        0.760411        0.844078 
         1.2272        0.810156        0.751851        0.833998 
        1.23334        0.799921        0.743404        0.826112 
        1.23949        0.791212        0.735068        0.818662 
        1.24562          0.7833        0.726885        0.809878 
        1.25174        0.775291        0.718839        0.800314 
        1.25789        0.768091        0.710892        0.791831 
        1.26402        0.756967        0.703081        0.783936 
        1.27014        0.749854        0.695406        0.775619 
        1.27628        0.744151        0.687824        0.767477 
        1.28244        0.732996        0.680342        0.759921 
        1.28858        0.726907        0.672982        0.750954 
        1.29471        0.721448        0.665748        0.744406 
        1.30084        0.711947        0.658629        0.738489 
        1.30697         0.70497        0.651603          0.7304 
        1.31312        0.694981        0.644671         0.72275 
        1.31925        0.689846        0.637863        0.716356 
        1.32537        0.683973        0.631161        0.709526 
        1.33151        0.677995        0.624532        0.702356 
        1.33765        0.670696        0.618003        0.695468 
        1.34378         0.66208        0.611581        0.688889 
        1.34992         0.65723        0.605247        0.682445 
        1.35606        0.650011        0.598989        0.674658 
         1.3622        0.643962        0.592833         0.66838 
        1.36833        0.637283        0.586778        0.662637 
        1.37445        0.629262        0.580812        0.656772 
        1.38059        0.623463        0.574911         0.64982 
        1.38675        0.621732        0.569078         0.64369 
        1.39288        0.613259        0.563351         0.63724 
        1.39901        0.607726        0.557706        0.631746 
        1.40515        0.602479        0.552126        0.625609 
         1.4113        0.595109        0.546625        0.620332 
        1.41742        0.589671        0.541221        0.615884 
        1.42355        0.586404         0.53588        0.607916 
         1.4297        0.578793        0.530596        0.603711 
        1.43585        0.574165        0.525386         0.59801 
        1.44198        0.570606        0.520267         0.59059 
        1.44809        0.563182        0.515226        0.587635 
        1.45423        0.558616        0.510234        0.580216 
        1.46036        0.553097        0.505317        0.575818 
        1.46649        0.549046        0.500465        0.572043 
        1.47263        0.543104        0.495672        0.566312 
        1.47877        0.537294        0.490946        0.561302 
        1.48491        0.533297        0.486273        0.556945 
        1.49104        0.527066        0.481672         0.55064 
        1.49718        0.523297        0.477128        0.547248 
        1.50333        0.519386        0.472636        0.540765 
        1.50947        0.514326        0.468211        0.535852 
         1.5156        0.509365        0.463849        0.532479 
        1.52172        0.505089        0.459544        0.527112 
        1.52787        0.500375        0.455285        0.522466 
          1.534        0.496068        0.451085        0.518682 
        1.54013        0.490671        0.446944        0.514125 
        1.54627        0.487637        0.442847        0.509378 
        1.55241        0.482563        0.438801        0.505042 
        1.55855        0.477541        0.434812        0.500845 
        1.56467        0.475989        0.430884        0.497194 
         1.5708        0.470639        0.426993        0.492263 
        1.57695        0.466921        0.423146        0.487623 
        1.58308        0.462461        0.419354        0.484497 
        1.58922        0.458954        0.415608         0.48066 
        1.59535        0.454732        0.411908        0.476277 
         1.6015        0.450686        0.408249        0.471761 
        1.60764        0.447301        0.404637        0.468565 
        1.61376          0.4423        0.401078        0.465965 
        1.61989         0.43969         0.39756        0.461673 
        1.62604        0.436286        0.394076        0.457633 
        1.63218        0.432883        0.390637        0.454092 
        1.63831        0.429138        0.387247        0.450428 
        1.64444         0.42539        0.383896        0.446483 
        1.65059        0.421966        0.380578        0.442767 
        1.65673        0.418531        0.377302        0.439511 
        1.66285        0.415494        0.374074         0.43618 
        1.66898        0.412114        0.370884        0.432409 
        1.67512        0.407925        0.367724        0.428959 
        1.68127        0.404457        0.364599        0.425887 
         1.6874        0.402375        0.361518        0.422885 
        1.69353         0.39819        0.358474        0.419501 
        1.69967         0.39613        0.355458        0.415672 
        1.70581        0.391723        0.352478        0.412384 
        1.71193        0.388987        0.349544        0.409553 
        1.71806        0.385395        0.346638        0.406348 
        1.72421        0.383438        0.343759        0.403719 
        1.73035        0.379741        0.340916        0.400515 
        1.73649        0.377488        0.338106        0.396568 
        1.74262        0.374183        0.335331        0.393622 
        1.74876        0.371132        0.332585        0.391325 
        1.75489        0.368727        0.329875        0.388537 
        1.76101        0.364806        0.327197         0.38519 
        1.76715        0.362437        0.324545        0.382639 
        1.77329        0.359281         0.32192        0.380136 
        1.77943        0.356737        0.319323         0.37716 
        1.78557          0.3546        0.316758        0.373953 
        1.79171        0.351679        0.314221        0.370861 
        1.79785        0.348974        0.311712        0.368334 
        1.80399        0.346183        0.309231        0.366159 
        1.81012        0.343935        0.306781        0.362594 
        1.81625        0.341007        0.304358        0.359659 
        1.82239        0.338818        0.301958        0.358075 
        1.82853        0.335456        0.299585        0.355744 
        1.83466         0.33367         0.29724        0.352805 
        1.84078        0.330851        0.294923        0.350057 
        1.84692        0.328436        0.292627        0.347984 
        1.85306        0.326466        0.290353        0.345158 
         1.8592         0.32351        0.288107        0.342133 
        1.86533        0.321683        0.285886        0.340143 
        1.87147          0.3191        0.283685        0.337983 
