# k  (h/Mpc)    P(k)  (Mpc/h)^3    P_linear(k)  (Mpc/h)^3     P_NL(k)  ShotnoiseSubtracted = false
     0.00783031          818.47         825.559         824.987 
       0.013688         1102.47         1103.96         1100.41 
       0.019231         1192.13         1192.64         1187.09 
      0.0249154         1164.46         1171.52         1167.42 
      0.0312784         1075.64          1077.8         1075.55 
      0.0375637         965.369         964.109         962.418 
      0.0433917         865.485         867.804         866.728 
      0.0492413         790.844         790.747         789.843 
      0.0555754         725.887         729.399         728.298 
      0.0619321         685.915         683.677         682.476 
       0.067871         644.065         646.697         645.191 
      0.0738098         605.333         608.524         606.456 
      0.0800417         558.993         563.676           561.7 
      0.0862327         512.153         514.874         513.442 
      0.0921407         466.444         467.705         466.543 
      0.0982031          420.83         422.903         422.419 
       0.104506         384.773         383.687         383.767 
       0.110769         354.496         353.614         353.454 
       0.116806         331.302         332.334         332.097 
       0.122832          316.92         316.532         316.416 
       0.129052          301.65         303.064         302.885 
       0.135211         288.132          289.89         289.697 
       0.141259         274.948         275.428         275.409 
       0.147318         259.602         259.002         259.348 
       0.153489         240.766         241.001         241.042 
       0.159709          223.42         223.001          223.51 
       0.165845         209.255         206.838         208.111 
       0.171974         194.212          193.26         194.534 
       0.178125         183.832         182.505          184.29 
       0.184229         176.229         174.325         176.156 
        0.19034         167.893         167.833         169.605 
       0.196428         163.328         162.103         163.476 
       0.202534         158.615         156.255         157.712 
       0.208729         151.269         149.698         151.089 
       0.214876         143.188          142.48         144.396 
       0.220989         137.416          134.88         137.006 
       0.227147         128.422         127.292         129.466 
        0.23329         121.768         120.287          122.95 
       0.239377         116.369         114.245         117.189 
       0.245482         110.529         109.198         111.922 
       0.251667         107.442          105.01         107.983 
       0.257832         103.763         101.491         104.414 
       0.263955         100.472         98.3128         101.103 
       0.270079         97.3992         95.1496         97.8346 
        0.27624         94.7982         91.7998         94.3583 
       0.282372         91.1298         88.2483         90.9683 
        0.28843         87.1344         84.6068         87.4029 
       0.294538         83.5934         80.9589         83.9459 
       0.300721         80.8627         77.4616          80.696 
        0.30691         77.1859         74.2921         77.5965 
       0.313033         74.5733         71.5346         74.7865 
       0.319153         71.2748         69.1383         72.5825 
       0.325316         70.2124         66.9991         70.5523 
        0.33145          67.921          65.036         68.3934 
       0.337538          66.173         63.1423         66.4089 
       0.343633         64.0744         61.2304         64.5219 
       0.349808         62.2541         59.2464          62.634 
       0.355968         60.3333         57.2365         60.9345 
       0.362074         58.3435         55.2614          58.869 
       0.368217         56.5434          53.346         56.7465 
       0.374374         54.5972         51.5507         55.1747 
       0.380519         53.1814         49.9051         53.4558 
       0.386598         51.7412         48.4237         52.0483 
       0.392688         50.5993         47.0635         50.7114 
        0.39888         49.1653         45.7687         49.3328 
       0.405048         48.0431         44.5321         48.0137 
       0.411186         46.9545         43.3227         47.0583 
       0.417313         45.3899         42.1184         45.6874 
       0.423458         44.2951         40.9177         44.5606 
       0.429607         43.0181         39.7311         43.3072 
       0.435692          41.773         38.5894         42.2741 
       0.441815         40.9059         37.4919          41.353 
       0.447964         40.1745         36.4516         40.2085 
       0.454126         38.7237         35.4723         39.1782 
       0.460267         37.9203         34.5575         38.3522 
       0.466387         36.8404         33.6945         37.3813 
        0.47254         36.2629         32.8612         36.5944 
       0.478662         35.5587         32.0554         35.7426 
       0.484765         34.6145         31.2696         34.9478 
       0.490885         33.7933         30.4944         34.3449 
       0.497035         33.3118         29.7288         33.6084 
       0.503198          32.465         28.9816         32.6787 
       0.509342         31.6754         28.2623         32.0439 
       0.515458         30.9478         27.5752         31.4973 
       0.521598         30.3868         26.9146         30.6228 
       0.527764         29.7073         26.2812         29.9359 
       0.533884          29.188         25.6805         29.3547 
           0.54         28.5911         25.1029          28.747 
       0.546137         28.0786         24.5412         28.2613 
       0.552299          27.581         23.9911         27.5733 
       0.558452         26.7466          23.455         27.0378 
       0.564573         26.4013         22.9349         26.6684 
       0.570708         25.9335          22.427         26.1252 
       0.576825         25.2546         21.9344         25.6083 
       0.582926         24.8467          21.458         25.1693 
       0.589034         24.1446         20.9967         24.7495 
       0.595184         23.8079         20.5489         24.1361 
       0.601379         23.3551         20.1144         23.8295 
       0.607522         22.9926         19.6978          23.348 
       0.613639         22.7233         19.2953         22.9179 
       0.619772         22.1358         18.9025         22.5785 
       0.625918         21.9553         18.5186         22.1609 
       0.632068         21.5958         18.1442          21.736 
       0.638161         21.1025          17.783         21.3546 
         0.6443          20.681         17.4288         20.9617 
       0.650464          20.285         17.0832          20.695 
       0.656582         20.1286         16.7498         20.3326 
       0.662703         19.7685         16.4256         19.9739 
       0.668861          19.408         16.1084         19.7073 
       0.675024         19.0367         15.7998         19.3177 
       0.681124         18.7188         15.5028         19.0141 
       0.687237         18.4347         15.2133         18.6519 
       0.693381         18.2105           14.93         18.3564 
       0.699536          17.725         14.6535         18.0821 
       0.705665          17.554         14.3853          17.899 
       0.711789          17.258          14.124         17.5766 
       0.717957         16.9914         13.8673         17.2729 
        0.72409         16.7164         13.6183         17.0442 
       0.730186         16.5046         13.3769         16.7517 
       0.736317         16.3204           13.14         16.4989 
       0.742472         16.0627         12.9081         16.3595 
       0.748622         15.8157         12.6821         16.0733 
        0.75476         15.4742         12.4622         15.8015 
       0.760888         15.3224          12.248         15.6012 
       0.767043         15.1297         12.0382         15.4163 
       0.773185         14.8267         11.8338         15.2067 
       0.779291         14.7119         11.6355         15.0009 
       0.785407         14.4869         11.4415         14.7699 
       0.791564         14.2408         11.2507          14.578 
       0.797719         14.0228         11.0644         14.3308 
       0.803834         13.9113         10.8836         14.1402 
       0.809972         13.7745         10.7062         14.0274 
       0.816124         13.4683         10.5324         13.7823 
       0.822261          13.307          10.363         13.5974 
       0.828378         13.1489         10.1979         13.4279 
       0.834502          13.015         10.0362         13.2628 
       0.840667         12.8005         9.87709         13.0793 
       0.846816         12.5899          9.7219         12.9414 
       0.852925         12.4751         9.57107         12.8074 
       0.859047         12.3193         9.42316         12.6287 
       0.865192         12.2096         9.27795         12.4621 
       0.871341         12.0737         9.13573         12.3302 
       0.877463         11.8882         8.99719         12.1507 
       0.883569         11.6917         8.86191          12.031 
       0.889708         11.5051         8.72877         11.8784 
       0.895864         11.4354         8.59805         11.7167 
       0.902008         11.3002         8.47032         11.5989 
       0.908149           11.17         8.34529         11.4614 
       0.914301         11.0144         8.22262         11.3449 
       0.920448         10.8452         8.10256         11.1659 
       0.926574          10.723         7.98536         11.0609 
       0.932687         10.6347         7.87075         10.8762 
       0.938823         10.4873           7.758           10.81 
       0.944975         10.3464         7.64724         10.6622 
       0.951105         10.2572         7.53906         10.5255 
       0.957225         10.1959         7.43319         10.4658 
       0.963368         10.0485         7.32902         10.3223 
       0.969511          9.9423         7.22686          10.224 
       0.975621         9.81553         7.12722         10.0674 
       0.981748         9.71473         7.02923         9.97077 
       0.987916         9.61868         6.93249         9.88897 
        0.99406         9.46839         6.83795         9.78186 
        1.00019         9.33107         6.74538         9.69882 
        1.00632         9.30426         6.65462         9.58125 
        1.01246         9.20193         6.56543         9.49686 
        1.01859         9.07151         6.47803         9.37172 
        1.02471         8.98884         6.39235         9.25299 
        1.03085         8.90202         6.30794         9.16711 
        1.03698         8.77475         6.22526         9.08853 
        1.04314         8.70663         6.14372         8.98781 
        1.04929         8.59023         6.06385          8.9046 
        1.05541         8.50039         5.98574         8.82566 
        1.06154         8.42421         5.90883         8.73565 
        1.06769          8.3818         5.83316         8.66162 
        1.07382         8.24575         5.75909          8.5735 
        1.07993         8.16386         5.68648         8.48556 
        1.08607         8.10849         5.61484         8.38887 
        1.09222         8.02341         5.54438         8.30274 
        1.09836         7.94582         5.47522         8.22235 
        1.10449         7.86057         5.40733         8.14897 
        1.11063          7.7912         5.34054          8.0691 
        1.11677         7.72057         5.27491         8.00171 
         1.1229         7.64584         5.21051         7.93609 
        1.12903          7.5697         5.14714          7.8731 
        1.13518         7.49181         5.08478          7.8017 
        1.14131         7.39751          5.0235         7.71014 
        1.14745         7.31463         4.96328         7.61913 
        1.15359         7.27728         4.90405         7.57337 
        1.15973          7.2006         4.84576         7.50583 
        1.16584         7.12265          4.7887         7.45613 
        1.17197          7.0628         4.73248         7.37283 
        1.17811         7.00749         4.67701          7.3029 
        1.18424         6.95977         4.62259         7.23899 
        1.19038         6.90284         4.56889         7.17818 
        1.19652         6.83505         4.51607         7.13161 
        1.20267         6.75234          4.4641         7.03881 
        1.20881         6.70974         4.41296         6.99957 
        1.21495         6.65542         4.36272         6.94419 
        1.22108          6.5824         4.31327         6.88559 
         1.2272         6.55028         4.26471         6.80703 
        1.23334          6.4584          4.2168         6.76105 
        1.23949          6.4065         4.16952         6.72163 
        1.24562         6.37531          4.1231         6.66102 
        1.25174         6.29519         4.07746         6.59175 
        1.25789         6.25314         4.03238         6.53816 
        1.26402         6.19888         3.98807         6.47235 
        1.27014         6.13973         3.94454         6.43536 
        1.27628         6.09919         3.90154         6.39766 
        1.28244         6.02203         3.85909         6.33881 
        1.28858         6.00132         3.81735         6.28083 
        1.29471         5.93955         3.77632         6.22943 
        1.30084         5.88185         3.73593         6.19307 
        1.30697         5.87471         3.69608         6.14083 
        1.31312         5.76089         3.65676         6.09502 
        1.31925         5.74434         3.61814         6.05301 
        1.32537         5.69326         3.58012          6.0071 
        1.33151         5.66872         3.54252         5.95991 
        1.33765         5.59247         3.50549         5.90447 
        1.34378         5.54903         3.46906         5.87342 
        1.34992          5.5264         3.43313         5.82486 
        1.35606         5.46249         3.39764         5.76178 
         1.3622         5.43467         3.36272          5.7279 
        1.36833         5.39049         3.32837         5.70601 
        1.37445         5.35045         3.29453         5.65634 
        1.38059         5.32128         3.26106         5.61177 
        1.38675          5.2785         3.22798         5.56301 
        1.39288         5.22636         3.19549         5.53296 
        1.39901         5.17763         3.16347         5.49645 
        1.40515         5.15003         3.13181         5.44987 
         1.4113         5.11171         3.10061         5.41234 
        1.41742         5.07492         3.06996          5.3824 
        1.42355         5.03444         3.03966         5.32446 
         1.4297         4.98406         3.00969         5.30567 
        1.43585         4.96909         2.98014          5.2763 
        1.44198         4.94122          2.9511         5.21696 
        1.44809         4.88055         2.92251         5.19943 
        1.45423         4.84529         2.89419         5.15064 
        1.46036         4.81008          2.8663         5.11653 
        1.46649         4.76819         2.83878         5.09178 
        1.47263         4.73281          2.8116         5.05706 
        1.47877         4.69404         2.78478         5.01565 
        1.48491         4.66595         2.75828         4.98434 
        1.49104         4.64218         2.73218         4.94727 
        1.49718         4.60555         2.70641         4.91821 
        1.50333         4.57624         2.68092         4.88872 
        1.50947         4.54158         2.65582         4.85483 
         1.5156          4.5122         2.63108          4.8235 
        1.52172         4.48478         2.60666         4.79438 
        1.52787          4.4524         2.58251         4.75574 
          1.534         4.41823         2.55868         4.72387 
        1.54013         4.39193         2.53519         4.69526 
        1.54627         4.34757         2.51195         4.66649 
        1.55241            4.32           2.489         4.63586 
        1.55855         4.30341         2.46638         4.59931 
        1.56467         4.27006         2.44409         4.58067 
         1.5708         4.23347         2.42203         4.55007 
        1.57695         4.20563          2.4002         4.51771 
        1.58308         4.17494          2.3787         4.50049 
        1.58922          4.1588         2.35744         4.47087 
        1.59535         4.13023         2.33646         4.43959 
         1.6015         4.10176         2.31571         4.40918 
        1.60764         4.07601         2.29521         4.38733 
        1.61376         4.04852         2.27503           4.368 
        1.61989         4.02159         2.25507          4.3363 
        1.62604          3.9919         2.23531         4.30924 
        1.63218         3.97885          2.2158         4.28651 
        1.63831         3.94333         2.19658         4.25983 
        1.64444         3.91612         2.17757         4.23018 
        1.65059         3.88905         2.15874         4.20662 
        1.65673         3.87081         2.14016         4.18412 
        1.66285         3.83572         2.12186           4.159 
        1.66898         3.82116         2.10376         4.13225 
        1.67512         3.78904         2.08584          4.1097 
        1.68127         3.76867         2.06811         4.09169 
         1.6874         3.75243         2.05063         4.06968 
        1.69353         3.71297         2.03336         4.03777 
        1.69967         3.69814         2.01626          4.0127 
        1.70581         3.68203         1.99936         3.99775 
        1.71193         3.65737         1.98271         3.98161 
        1.71806         3.63645         1.96623         3.95155 
        1.72421         3.61248          1.9499         3.92642 
        1.73035         3.59282         1.93377           3.906 
        1.73649         3.56578         1.91783         3.88403 
        1.74262         3.54196         1.90209         3.86008 
        1.74876         3.53349         1.88652         3.84341 
        1.75489         3.50665         1.87115         3.82402 
        1.76101         3.47907         1.85596          3.7959 
        1.76715         3.46208         1.84091         3.77286 
        1.77329         3.44319         1.82602         3.75615 
        1.77943         3.41456         1.81129         3.73853 
        1.78557         3.40405         1.79674         3.71655 
        1.79171         3.38288         1.78235         3.69585 
        1.79785         3.35875         1.76812         3.67638 
        1.80399         3.34327         1.75405         3.65622 
        1.81012         3.32924         1.74015         3.63904 
        1.81625         3.30252          1.7264         3.62022 
        1.82239         3.28213         1.71279         3.60197 
        1.82853          3.2605         1.69933          3.5915 
        1.83466         3.25198         1.68603         3.57546 
        1.84078         3.23097         1.67289         3.55027 
        1.84692         3.21436         1.65986          3.5251 
        1.85306         3.18852         1.64696         3.50641 
         1.8592         3.17175         1.63422         3.49178 
        1.86533         3.15523         1.62162         3.47588 
        1.87147         3.14232         1.60914         3.46067 
        1.87761         3.12368         1.59679         3.44477 
