# k  (h/Mpc)    P(k)  (Mpc/h)^3    P_linear(k)  (Mpc/h)^3     P_NL(k)  ShotnoiseSubtracted = false
     0.00783031         10024.6         10155.9         10145.4 
       0.013688         13663.4         13572.8           13498 
       0.019231         14650.9         14659.5         14531.4 
      0.0249154         14098.2         14397.8           14245 
      0.0312784           13061         13244.8           13065 
      0.0375637         11771.1         11846.9         11658.6 
      0.0433917         10404.9         10663.2         10455.1 
      0.0492413         9568.43         9716.06         9505.04 
      0.0555754         8625.53         8962.08         8752.11 
      0.0619321         8312.81         8400.16         8183.29 
       0.067871         7643.17          7945.7         7731.29 
      0.0738098         7174.75         7476.62         7206.31 
      0.0800417         6551.55         6925.54         6662.42 
      0.0862327         6047.34          6325.9         6122.89 
      0.0921407         5571.87         5746.33         5555.14 
      0.0982031         5019.76         5195.86         5075.49 
       0.104506         4690.93         4714.04         4655.07 
       0.110769          4327.7         4344.54         4263.56 
       0.116806         4048.73         4083.08         4004.31 
       0.122832         3871.39         3888.93         3828.17 
       0.129052         3626.06         3723.44         3666.81 
       0.135211         3471.19         3561.59         3503.12 
       0.141259         3345.77          3383.9         3353.78 
       0.147318          3177.1         3182.09         3178.24 
       0.153489         2932.09         2960.92         2930.04 
       0.159709         2777.36         2739.77            2756 
       0.165845          2668.1         2541.19          2628.5 
       0.171974         2504.27         2374.37         2475.64 
       0.178125         2379.67         2242.24         2395.46 
       0.184229         2286.79         2141.74         2286.94 
        0.19034         2160.05         2061.98         2210.24 
       0.196428          2131.8         1991.57          2121.1 
       0.202534         2064.46         1919.73         2059.62 
       0.208729         1980.65         1839.17         1963.17 
       0.214876         1897.15         1750.49         1912.94 
       0.220989         1842.27         1657.12         1845.69 
       0.227147         1754.89         1563.89         1772.25 
        0.23329         1687.66         1477.82          1718.7 
       0.239377         1662.82         1403.59         1655.35 
       0.245482         1560.39         1341.59         1585.02 
       0.251667         1552.36         1290.13         1552.46 
       0.257832         1496.55          1246.9         1506.69 
       0.263955         1451.15         1207.85         1465.78 
       0.270079          1407.2         1168.99         1426.35 
        0.27624         1395.06         1127.83         1383.75 
       0.282372         1335.91          1084.2         1351.46 
        0.28843         1326.45         1039.46          1315.1 
       0.294538         1263.87         994.645          1280.9 
       0.300721         1259.74         951.678         1245.32 
        0.30691         1207.96         912.737         1225.36 
       0.313033         1186.22         878.859         1188.86 
       0.319153         1165.84         849.419         1159.09 
       0.325316         1128.43         823.137         1143.06 
        0.33145         1103.68         799.019         1104.58 
       0.337538         1089.81         775.753         1086.37 
       0.343633         1062.83         752.263          1074.5 
       0.349808         1030.22         727.889            1055 
       0.355968         1024.87         703.195         1037.02 
       0.362074         1012.22         678.929         1014.84 
       0.368217         983.671         655.397         988.153 
       0.374374           946.6          633.34         971.715 
       0.380519          945.66         613.122         952.541 
       0.386598         924.389         594.923         940.109 
       0.392688         921.103         578.212          919.04 
        0.39888         895.026         562.303         907.787 
       0.405048         883.377         547.112         897.174 
       0.411186          870.37         532.253         876.743 
       0.417313         853.608         517.457         862.428 
       0.423458         841.003         502.705         849.743 
       0.429607         827.184         488.127         832.874 
       0.435692         810.931         474.101         819.068 
       0.441815         807.116         460.617         815.215 
       0.447964         789.412         447.836         801.855 
       0.454126         777.741         435.804         782.476 
       0.460267             764         424.565         780.694 
       0.466387         755.538         413.963         765.846 
        0.47254         745.028         403.725         757.608 
       0.478662         741.729         393.825         746.318 
       0.484765         722.649          384.17         734.812 
       0.490885         717.097         374.647         723.934 
       0.497035         702.724         365.241         717.508 
       0.503198         696.966         356.061         708.153 
       0.509342         689.683         347.224         698.364 
       0.515458         685.663         338.782         694.639 
       0.521598         671.275         330.667         685.459 
       0.527764          656.63         322.885         677.352 
       0.533884         657.124         315.504         669.748 
           0.54         648.772         308.409         661.881 
       0.546137         645.607         301.507         654.114 
       0.552299         635.103         294.748         645.508 
       0.558452         631.946         288.162           640.3 
       0.564573         621.876         281.772         634.832 
       0.570708         615.312         275.532         629.295 
       0.576825         600.048         269.481         619.303 
       0.582926         601.535         263.628         613.404 
       0.589034         595.933          257.96         604.734 
       0.595184         589.846         252.459         599.638 
       0.601379         583.153          247.12         595.189 
       0.607522         575.197         242.002         588.129 
       0.613639         575.378         237.057         584.531 
       0.619772         560.046         232.231         582.986 
       0.625918         558.879         227.515         575.434 
       0.632068         551.632         222.915         569.764 
       0.638161         549.652         218.477         562.112 
         0.6443         538.796         214.126         559.352 
       0.650464         536.939          209.88         550.586 
       0.656582         535.456         205.784         546.322 
       0.662703         531.242           201.8         544.331 
       0.668861         521.655         197.904         540.257 
       0.675024         517.942         194.113         535.877 
       0.681124         515.246         190.464         527.621 
       0.687237         510.302         186.906         523.431 
       0.693381         504.268         183.426         519.359 
       0.699536         497.499          180.03         516.035 
       0.705665         496.218         176.735         511.363 
       0.711789         491.759         173.524         506.996 
       0.717957         487.313          170.37         504.561 
        0.72409         483.929         167.311         500.473 
       0.730186         478.384         164.345          496.45 
       0.736317         474.837         161.435         491.225 
       0.742472         473.089         158.586         487.039 
       0.748622         467.659          155.81         483.283 
        0.75476         462.031         153.108         483.098 
       0.760888         457.147         150.476         477.136 
       0.767043         457.777         147.898         473.351 
       0.773185         451.578         145.387         470.025 
       0.779291         446.653          142.95         465.821 
       0.785407         443.834         140.567         463.182 
       0.791564         439.109         138.223         460.579 
       0.797719         436.729         135.935         456.434 
       0.803834         433.222         133.713         454.073 
       0.809972         430.626         131.534         451.102 
       0.816124         430.567         129.399         445.232 
       0.822261         423.414         127.317          443.13 
       0.828378          421.44         125.288         440.076 
       0.834502         418.166         123.302         438.249 
       0.840667         413.197         121.347         434.942 
       0.846816         411.728         119.441         432.094 
       0.852925         407.613         117.588         429.072 
       0.859047         407.337         115.771         425.864 
       0.865192         403.005         113.986         423.093 
       0.871341         399.678         112.239         420.603 
       0.877463         397.235         110.537         417.939 
       0.883569         394.236         108.875         415.366 
       0.889708         391.351         107.239         411.812 
       0.895864         387.256         105.633         409.611 
       0.902008         385.985         104.064         406.989 
       0.908149         383.329         102.528         403.285 
       0.914301          378.98         101.021         401.154 
       0.920448         376.074          99.546         397.894 
       0.926574         372.404          98.106          395.51 
       0.932687         372.799         96.6979         392.602 
       0.938823         367.816         95.3128         392.021 
       0.944975         367.635          93.952         389.275 
       0.951105          363.51          92.623         385.962 
       0.957225         360.784         91.3222         384.166 
       0.963368         356.831         90.0424          381.37 
       0.969511         355.072         88.7873         378.688 
       0.975621         352.313         87.5632         377.278 
       0.981748         352.082         86.3593         374.565 
       0.987916         348.788         85.1707         373.155 
        0.99406         343.609         84.0092         370.762 
        1.00019         343.576         82.8719         366.972 
        1.00632         341.202          81.757         364.923 
        1.01246         338.111         80.6611         362.684 
        1.01859         338.249         79.5874         360.453 
        1.02471         333.765         78.5347         359.243 
        1.03085         330.915         77.4977         357.579 
        1.03698         330.151         76.4819         355.662 
        1.04314         327.024         75.4801         353.083 
        1.04929         324.273         74.4989         350.446 
        1.05541         323.504         73.5392         348.352 
        1.06154         319.397         72.5943         346.386 
        1.06769         317.969         71.6647          344.37 
        1.07382         316.225         70.7546         342.217 
        1.07993         313.947         69.8626         340.634 
        1.08607         313.073         68.9824         338.334 
        1.09222         310.248         68.1167         336.227 
        1.09836          307.65         67.2671          335.33 
        1.10449         304.642          66.433         333.022 
        1.11063         302.396         65.6124         330.785 
        1.11677         301.754         64.8061         329.051 
         1.1229         299.904         64.0149         327.534 
        1.12903         297.186         63.2364         325.864 
        1.13518          295.05         62.4703         323.712 
        1.14131         293.345         61.7174         322.011 
        1.14745         292.255         60.9776         320.199 
        1.15359         289.534         60.2498         318.409 
        1.15973         288.387         59.5338         316.571 
        1.16584         285.551         58.8327         314.125 
        1.17197         285.024          58.142         312.955 
        1.17811         282.298         57.4604         311.743 
        1.18424         280.192         56.7919         310.187 
        1.19038         278.947         56.1321         308.436 
        1.19652         276.715         55.4832         306.974 
        1.20267         275.943         54.8447         304.352 
        1.20881         273.813         54.2165         303.449 
        1.21495         271.456         53.5992         301.168 
        1.22108         270.247         52.9917         299.567 
         1.2272          268.33         52.3951         297.319 
        1.23334         266.348         51.8065         296.086 
        1.23949         265.159         51.2256         295.396 
        1.24562         263.466         50.6553         293.489 
        1.25174         260.484         50.0946         292.218 
        1.25789          258.86         49.5408         290.584 
        1.26402         257.897         48.9964         288.878 
        1.27014         255.928         48.4616         287.463 
        1.27628         254.458         47.9332         286.616 
        1.28244         253.652         47.4118         284.927 
        1.28858         251.188         46.8989         283.115 
        1.29471         248.878         46.3948         281.113 
        1.30084         247.862         45.8986         279.821 
        1.30697         246.099          45.409         278.829 
        1.31312         244.216          44.926          277.09 
        1.31925         244.052         44.4515         275.206 
        1.32537         242.366         43.9844         274.083 
        1.33151         240.033         43.5225         272.883 
        1.33765         238.433         43.0675          271.22 
        1.34378          237.47         42.6199         269.953 
        1.34992         235.927         42.1785         268.135 
        1.35606         235.332         41.7425         266.652 
         1.3622         233.406         41.3134         265.497 
        1.36833         231.266         40.8915         264.488 
        1.37445         229.702         40.4757          262.46 
        1.38059         227.965         40.0645         261.696 
        1.38675         227.096          39.658         260.522 
        1.39288         225.074         39.2589          258.11 
        1.39901         224.838         38.8655         257.416 
        1.40515         222.882         38.4766         256.309 
         1.4113         221.055         38.0933         254.606 
        1.41742         220.281         37.7167         253.443 
        1.42355         217.957         37.3445          252.44 
         1.4297         216.964         36.9763         251.071 
        1.43585         215.345         36.6132         249.978 
        1.44198         214.122         36.2564         248.463 
        1.44809         213.327         35.9051         247.348 
        1.45423         211.221         35.5573         245.741 
        1.46036         210.696         35.2146         244.544 
        1.46649         208.784         34.8765         243.807 
        1.47263         207.346         34.5425         242.878 
        1.47877         206.408         34.2131         241.177 
        1.48491         204.805         33.8875         239.935 
        1.49104          203.95         33.5669         238.985 
        1.49718         201.769         33.2502         237.599 
        1.50333         200.944         32.9371         236.639 
        1.50947         199.865         32.6287         235.636 
         1.5156         198.174         32.3248         234.224 
        1.52172         197.157         32.0248         232.773 
        1.52787         195.714          31.728         231.869 
          1.534          195.08         31.4353         230.749 
        1.54013         193.175         31.1467         229.641 
        1.54627         192.671         30.8612         228.678 
        1.55241         190.786         30.5792         227.517 
        1.55855         189.728         30.3012         226.231 
        1.56467          188.56         30.0275         225.099 
         1.5708         187.914         29.7564         224.165 
        1.57695         185.895         29.4882         223.145 
        1.58308         185.496          29.224         221.987 
        1.58922         183.842         28.9629         220.896 
        1.59535         182.523         28.7051           219.9 
         1.6015         182.042         28.4501         218.658 
        1.60764         180.495         28.1984         217.464 
        1.61376         178.922         27.9504         216.713 
        1.61989         178.139         27.7052         215.872 
        1.62604          177.24         27.4624          214.75 
        1.63218         176.015         27.2228         213.751 
        1.63831         174.989         26.9865         212.784 
        1.64444         173.976          26.753         211.521 
        1.65059         172.673         26.5217         210.718 
        1.65673         171.737         26.2935         209.725 
        1.66285         170.822         26.0685         208.567 
        1.66898         169.777         25.8462          207.59 
        1.67512         169.067          25.626         206.696 
        1.68127         167.237         25.4082         205.784 
         1.6874         166.019         25.1935         204.968 
        1.69353         165.577         24.9813         204.217 
        1.69967         164.329         24.7712         202.958 
        1.70581         163.318         24.5635         201.889 
        1.71193         162.089         24.3591         201.029 
        1.71806         161.504         24.1565         199.818 
        1.72421         160.316         23.9559         199.081 
        1.73035         159.383         23.7578         198.231 
        1.73649         158.709          23.562         197.117 
        1.74262          157.29         23.3686         196.536 
        1.74876         156.701         23.1772          195.66 
        1.75489         155.213         22.9884         194.593 
        1.76101         154.452         22.8018         193.716 
        1.76715         153.788          22.617         192.849 
        1.77329         153.025          22.434         191.855 
        1.77943         151.709          22.253         190.857 
        1.78557         150.826         22.0743         190.017 
        1.79171         149.881         21.8975         189.319 
        1.79785          148.89         21.7226         188.526 
        1.80399         148.098         21.5497         187.505 
        1.81012         147.109          21.379         186.649 
        1.81625         146.374         21.2101         185.934 
        1.82239         145.457         21.0429         185.156 
        1.82853         144.801         20.8775         184.272 
        1.83466         143.764         20.7141         183.284 
        1.84078         142.977         20.5526         182.392 
        1.84692         141.789         20.3926         181.799 
        1.85306         141.276         20.2341         180.944 
         1.8592          139.97         20.0776         180.054 
        1.86533         139.194         19.9228         179.537 
        1.87147         138.333         19.7695          178.76 
        1.87761         137.917         19.6177         177.816 
