# k  (h/Mpc)    Pcb(k)  (Mpc/h)^3    Pcb_linear(k) (Mpc/h)^3    Pcb_NL(k) (Mpc/h)^3   ShotnoiseSubtracted = false
     0.00783031         4447.82          4496.1         4493.48 
       0.013688         6029.77         6010.09          5985.8 
       0.019231          6492.9         6491.91         6451.42 
      0.0249154         6294.79          6376.4         6336.54 
      0.0312784         5826.59         5865.97         5827.42 
      0.0375637         5241.63         5247.02         5208.23 
      0.0433917          4666.3         4722.79         4682.47 
      0.0492413         4278.95         4303.36         4263.17 
      0.0555754         3893.53         3969.45         3928.66 
      0.0619321         3720.01          3720.6          3678.1 
       0.067871         3455.97         3519.33          3476.2 
      0.0738098         3245.52         3311.57         3256.63 
      0.0800417         2980.73          3067.5          3013.9 
      0.0862327          2741.8         2801.91          2761.1 
      0.0921407         2510.43         2545.21         2506.92 
      0.0982031         2260.61          2301.4         2278.87 
       0.104506         2091.42         2087.99         2078.72 
       0.110769         1927.48         1924.32         1909.12 
       0.116806         1797.81         1808.52         1793.83 
       0.122832         1723.11         1722.53         1711.97 
       0.129052         1625.68         1649.23         1638.96 
       0.135211          1554.5         1577.54         1567.58 
       0.141259         1491.64         1498.84         1494.25 
       0.147318         1412.54         1409.45          1412.5 
       0.153489         1305.74         1311.49         1306.58 
       0.159709         1225.05         1213.53         1219.71 
       0.165845            1162         1125.58          1149.5 
       0.171974         1082.14         1051.69         1077.08 
       0.178125         1027.12         993.162         1031.35 
       0.184229         987.877         948.649         986.617 
        0.19034         930.174          913.32         950.979 
       0.196428         915.843         882.134          912.42 
       0.202534         891.522         850.314         883.154 
       0.208729         850.833         814.632         844.341 
       0.214876         806.007          775.35         816.742 
       0.220989         782.013         733.993          780.87 
       0.227147         734.255         692.701         742.185 
        0.23329         702.584         654.578         714.386 
       0.239377         683.227         621.697         686.034 
       0.245482         640.378         594.235         654.496 
       0.251667         632.209         571.442         637.364 
       0.257832         612.085         552.293         617.272 
       0.263955         592.854             535          598.36 
       0.270079         575.091         517.787         580.101 
        0.27624         567.058         499.558         560.241 
       0.282372          543.97         480.231         543.022 
        0.28843         527.003         460.414         524.066 
       0.294538         504.315         440.563          508.77 
       0.300721         498.871         421.532         494.326 
        0.30691         475.985         404.283         480.374 
       0.313033         465.001         389.278         464.047 
       0.319153         448.219         376.237         453.102 
       0.325316         437.352         364.596         444.163 
        0.33145         424.819         353.914         429.157 
       0.337538          419.66         343.608         418.391 
       0.343633         406.695         333.204         411.297 
       0.349808         394.948         322.408         402.123 
       0.355968         388.938         311.469         393.635 
       0.362074         379.324         300.722         383.083 
       0.368217           369.6         290.298         370.765 
       0.374374         357.683         280.528         363.142 
       0.380519         351.423         271.574         354.109 
       0.386598         343.316         263.512         346.931 
       0.392688         339.521          256.11         340.156 
        0.39888         330.737         249.064          332.09 
       0.405048         324.334         242.335         327.651 
       0.411186         317.495         235.754         320.245 
       0.417313         311.511           229.2         311.451 
       0.423458         305.644         222.666         305.822 
       0.429607         298.477         216.209         299.712 
       0.435692         290.466         209.996         294.089 
       0.441815         288.652         204.023         290.968 
       0.447964         283.782         198.362           284.5 
       0.454126         272.452         193.034         277.585 
       0.460267         269.637         188.055         274.856 
       0.466387         266.175         183.359         269.272 
        0.47254         261.197         178.824         265.126 
       0.478662         258.802         174.439         260.204 
       0.484765         252.403         170.163         254.325 
       0.490885          248.67         165.944         251.384 
       0.497035          245.29         161.778         248.301 
       0.503198         239.187         157.712         243.968 
       0.509342         236.206         153.798         240.686 
       0.515458         233.167         150.058         238.642 
       0.521598         230.438         146.464         233.337 
       0.527764         226.679         143.017         228.747 
       0.533884         223.096         139.748         226.057 
           0.54         220.139         136.605         223.119 
       0.546137         218.664         133.548         220.796 
       0.552299         215.138         130.555         216.623 
       0.558452         211.215         127.637         213.473 
       0.564573         207.516         124.807         211.607 
       0.570708         204.989         122.043         208.575 
       0.576825         202.219         119.363         205.017 
       0.582926         199.514          116.77         202.347 
       0.589034         196.076          114.26         200.434 
       0.595184         194.369         111.823         197.377 
       0.601379         192.757         109.458         196.116 
       0.607522         188.246         107.191         192.603 
       0.613639          188.01         105.001         190.713 
       0.619772         183.703         102.863         187.828 
       0.625918         182.175         100.775         186.594 
       0.632068         180.189         98.7371         183.427 
       0.638161         178.606         96.7714          182.33 
         0.6443         176.129         94.8442         179.681 
       0.650464          174.14         92.9635         176.617 
       0.656582         172.503         91.1491         175.575 
       0.662703         169.544         89.3845         173.158 
       0.668861         168.003         87.6587         171.562 
       0.675024         166.053         85.9794         169.302 
       0.681124         164.726         84.3633         167.751 
       0.687237         161.891         82.7874         165.639 
       0.693381         160.087         81.2458         163.838 
       0.699536         158.626         79.7416         162.787 
       0.705665         159.236         78.2821         161.658 
       0.711789         155.121         76.8601         158.659 
       0.717957         154.545         75.4631         157.621 
        0.72409         152.393          74.108         156.989 
       0.730186          149.93         72.7943          155.06 
       0.736317           149.7         71.5054         153.095 
       0.742472          148.19         70.2433         151.764 
       0.748622          147.21         69.0136         150.102 
        0.75476         145.668         67.8169         148.676 
       0.760888         143.813         66.6513         146.983 
       0.767043         142.447         65.5094         146.318 
       0.773185         141.072         64.3972         145.337 
       0.779291         139.759         63.3178         143.859 
       0.785407         138.873          62.262         142.056 
       0.791564         137.115          61.224         140.967 
       0.797719         135.525         60.2104         140.018 
       0.803834         134.995         59.2264          138.26 
       0.809972         132.845         58.2611         137.327 
       0.816124         132.392         57.3153         136.567 
       0.822261         131.229         56.3934         135.052 
       0.828378         129.952         55.4947         133.359 
       0.834502         129.061         54.6151         133.139 
       0.840667         127.816         53.7491         132.271 
       0.846816         126.698         52.9046         130.801 
       0.852925         125.272         52.0838         129.741 
       0.859047         123.931         51.2789         128.454 
       0.865192         123.691         50.4887         127.824 
       0.871341         122.517         49.7148         126.541 
       0.877463         121.001         48.9609         125.923 
       0.883569         120.242         48.2247         124.929 
       0.889708         119.599         47.5001         123.942 
       0.895864         118.457         46.7888         123.115 
       0.902008         117.696         46.0937         122.009 
       0.908149         116.864         45.4134         121.105 
       0.914301          115.54         44.7458         120.567 
       0.920448         114.831         44.0925         119.506 
       0.926574         114.135         43.4547         118.057 
       0.932687          113.33          42.831         117.547 
       0.938823         111.844         42.2175         116.626 
       0.944975         111.524         41.6147         115.843 
       0.951105         110.436          41.026         115.169 
       0.957225         109.122         40.4499         114.507 
       0.963368          108.75          39.883         113.181 
       0.969511         108.141         39.3271          112.56 
       0.975621          107.52         38.7849         112.646 
       0.981748         106.494         38.2516         111.338 
       0.987916         105.766         37.7252         110.863 
        0.99406         105.284         37.2107         110.009 
        1.00019         103.857         36.7069         109.179 
        1.00632         103.614         36.2131         108.585 
        1.01246         102.522         35.7277         107.696 
        1.01859         101.455         35.2521          107.06 
        1.02471         101.903         34.7859         106.613 
        1.03085         100.734         34.3265         105.791 
        1.03698         99.7352         33.8766         104.981 
        1.04314         98.8292         33.4329         104.391 
        1.04929         98.5211         32.9982         104.055 
        1.05541         97.7414         32.5732         103.541 
        1.06154          97.272         32.1546         102.735 
        1.06769         96.4938         31.7429         102.189 
        1.07382         96.0999         31.3398          101.52 
        1.07993         95.6577         30.9447         100.806 
        1.08607         94.7422         30.5548         100.167 
        1.09222         94.2896         30.1713         99.4267 
        1.09836         93.5741          29.795         98.9676 
        1.10449         92.9839         29.4256         98.3436 
        1.11063         92.1484         29.0621         97.5936 
        1.11677         91.6568         28.7049         97.0978 
         1.1229         91.2548         28.3545         96.8303 
        1.12903         90.0879         28.0097         96.0971 
        1.13518         90.1764         27.6703          95.558 
        1.14131         89.6843         27.3369         95.0524 
        1.14745         88.5159         27.0091          94.496 
        1.15359         88.2493         26.6868         94.2111 
        1.15973         87.6391         26.3696         93.5269 
        1.16584         87.0404         26.0591         92.9652 
        1.17197         86.5657         25.7532         92.4469 
        1.17811         86.0632         25.4513         91.7484 
        1.18424         85.2396         25.1552         91.2872 
        1.19038         85.0743         24.8629         91.1451 
        1.19652         84.6196         24.5755         90.3087 
        1.20267         83.9358         24.2927         90.0763 
        1.20881         83.3839         24.0144         89.4517 
        1.21495          82.816          23.741         89.0508 
        1.22108         82.3002         23.4719          88.571 
         1.2272         81.7219         23.2077         88.1928 
        1.23334         81.3521          22.947         87.6661 
        1.23949         81.0035         22.6896         87.0875 
        1.24562         80.6342          22.437          86.709 
        1.25174         80.0866         22.1887         86.3809 
        1.25789         79.6418         21.9434         85.8641 
        1.26402         79.0853         21.7023         85.3473 
        1.27014         78.4093         21.4654         84.9871 
        1.27628         78.1927         21.2313         84.5764 
        1.28244         77.4692         21.0004         84.1002 
        1.28858         77.1521         20.7732         83.6971 
        1.29471         76.9052         20.5499         83.4107 
        1.30084         76.3485         20.3302         82.7111 
        1.30697         75.7015         20.1133           82.28 
        1.31312         75.3088         19.8993         82.1588 
        1.31925         75.1361         19.6892         81.6503 
        1.32537         74.6266         19.4823         81.1785 
        1.33151         74.1521         19.2777         80.8671 
        1.33765         73.8861         19.0761          80.501 
        1.34378          73.452         18.8779         80.0358 
        1.34992         72.6331         18.6824         79.6951 
        1.35606         72.3688         18.4892         79.4138 
         1.3622         71.8464         18.2992         78.9909 
        1.36833         71.7478         18.1123         78.4692 
        1.37445         71.3528         17.9281         78.1817 
        1.38059         70.9262          17.746         78.0386 
        1.38675         70.5496          17.566         77.4374 
        1.39288         70.0494         17.3892         77.2357 
        1.39901         69.7177         17.2149          76.835 
        1.40515         69.3826         17.0427         76.4139 
         1.4113         69.0713         16.8729         76.1512 
        1.41742         68.4675         16.7061         75.8953 
        1.42355         68.3423         16.5412         75.3036 
         1.4297          67.792         16.3781         74.9598 
        1.43585          67.581         16.2173         74.7668 
        1.44198         67.2207         16.0593         74.5192 
        1.44809         66.7172         15.9037         73.8769 
        1.45423         66.5629         15.7496         73.6094 
        1.46036         66.0704         15.5978         73.3706 
        1.46649         65.7694          15.448         73.1096 
        1.47263         65.4329         15.3001          72.831 
        1.47877         65.1578         15.1542         72.4092 
        1.48491         64.7632           15.01         72.0294 
        1.49104         64.3857          14.868         71.6555 
        1.49718          63.946         14.7277         71.3507 
        1.50333         63.7034          14.589         71.1521 
        1.50947         63.2622         14.4524         70.9029 
         1.5156          62.984         14.3178          70.588 
        1.52172         62.7245         14.1849         70.2621 
        1.52787         62.5191         14.0535         69.9207 
          1.534         62.1318         13.9238         69.6768 
        1.54013         61.7204          13.796         69.3407 
        1.54627         61.6204         13.6695         68.9787 
        1.55241         61.1605         13.5446         68.7174 
        1.55855         60.7327         13.4215         68.4487 
        1.56467         60.3336         13.3002         68.0818 
         1.5708         60.2146         13.1802         67.9126 
        1.57695          59.836         13.0614         67.6899 
        1.58308         59.7385         12.9444         67.2848 
        1.58922          59.384         12.8287         67.0515 
        1.59535         59.0268         12.7145         66.8224 
         1.6015         58.6939         12.6016         66.4727 
        1.60764         58.5575         12.4901         66.1785 
        1.61376          58.258         12.3802         65.9713 
        1.61989         57.6397         12.2716         65.6034 
        1.62604         57.5342         12.1641         65.3423 
        1.63218         57.2307         12.0579         65.1477 
        1.63831         56.9542         11.9533         64.8703 
        1.64444         56.7792         11.8499         64.5538 
        1.65059         56.2155         11.7474         64.3191 
        1.65673         56.0703         11.6463         64.0207 
        1.66285         55.8889         11.5467         63.7709 
        1.66898         55.4637         11.4482         63.6605 
        1.67512         55.1833         11.3507         63.4259 
        1.68127         54.8491         11.2542         63.0549 
         1.6874          54.757         11.1591         62.6928 
        1.69353         54.3776         11.0651         62.4755 
        1.69967         54.2144          10.972         62.3062 
        1.70581         53.9644         10.8801         62.1862 
        1.71193         53.5561         10.7895         61.9619 
        1.71806         53.2746         10.6998         61.4711 
        1.72421         53.0118         10.6109          61.189 
        1.73035         52.8047         10.5232         61.1205 
        1.73649           52.53         10.4365          60.979 
        1.74262         52.2605         10.3508         60.5229 
        1.74876         52.2061          10.266         60.2608 
        1.75489         51.6938         10.1824         60.1203 
        1.76101         51.5361         10.0997           59.88 
        1.76715         51.2343         10.0179         59.6368 
        1.77329         50.9909         9.93682         59.4216 
        1.77943         50.8282         9.85665         59.2069 
        1.78557         50.5875         9.77749         58.9692 
        1.79171          50.235         9.69919         58.7144 
        1.79785         50.0258         9.62174         58.5295 
        1.80399         49.7659         9.54515         58.4035 
        1.81012         49.5856         9.46951          58.006 
        1.81625         49.2408         9.39473         57.6706 
        1.82239         49.0794         9.32065         57.5844 
        1.82853         48.6944          9.2474         57.4497 
        1.83466          48.527         9.17503         57.1941 
        1.84078         48.1895          9.1035          56.935 
        1.84692         48.0553         9.03263         56.8253 
        1.85306         47.7618         8.96243         56.6213 
         1.8592         47.5904         8.89309         56.3499 
        1.86533         47.2539         8.82453         56.1841 
        1.87147         47.1252         8.75662         55.9721 
