# k  (h/Mpc)    Pcb(k)  (Mpc/h)^3    Pcb_linear(k) (Mpc/h)^3    Pcb_NL(k) (Mpc/h)^3   ShotnoiseSubtracted = false
     0.00783031          1117.1         1127.06         1126.34 
       0.013688         1505.96         1507.04         1502.11 
       0.019231         1627.64         1628.07         1620.27 
      0.0249154         1588.46         1599.22         1593.28 
      0.0312784         1467.78         1471.27         1467.68 
      0.0375637         1317.73         1316.07         1313.16 
      0.0433917         1180.44          1184.6         1182.44 
      0.0492413         1079.13         1079.41         1077.48 
      0.0555754         989.557         995.667         993.478 
      0.0619321         936.411         933.252         930.916 
       0.067871         878.193         882.772         880.036 
      0.0738098         825.292         830.665         826.985 
      0.0800417         761.667         769.444         765.911 
      0.0862327         698.192         702.826         700.242 
      0.0921407         636.227         638.438         636.245 
      0.0982031         573.816         577.281         576.277 
       0.104506         525.393          523.75         523.738 
       0.110769         484.063         482.698         482.246 
       0.116806         452.133          453.65         453.122 
       0.122832         432.747         432.081         431.803 
       0.129052         411.472         413.695         413.345 
       0.135211         393.044         395.712         395.368 
       0.141259         375.345         375.971         375.951 
       0.147318         354.572         353.549         354.178 
       0.153489         328.691         328.977         329.022 
       0.159709         305.336         304.405         305.283 
       0.165845          286.43         282.342         284.594 
       0.171974         265.777         263.808         266.066 
       0.178125         251.696         249.127          252.32 
       0.184229         241.416         237.962         241.237 
        0.19034         229.584           229.1         232.283 
       0.196428         223.712         221.277         223.759 
       0.202534         217.436         213.295         215.939 
       0.208729         207.314         204.345          206.86 
       0.214876         196.146         194.491         197.956 
       0.220989         188.601         184.117         187.957 
       0.227147         176.174         173.759          177.69 
        0.23329         167.233         164.196         169.007 
       0.239377         160.125         155.948         161.251 
       0.245482         151.813          149.06         153.968 
       0.251667         147.895         143.342         148.705 
       0.257832         142.917         138.539         143.815 
       0.263955         138.345         134.201         139.253 
       0.270079         134.152         129.883         134.756 
        0.27624         130.784         125.311         129.962 
       0.282372         125.726         120.463         125.387 
        0.28843         120.293         115.492          120.54 
       0.294538         115.446         110.512         115.912 
       0.300721         111.965         105.738         111.585 
        0.30691         106.855         101.412         107.394 
       0.313033         103.342         97.6479          103.53 
       0.319153         98.7254         94.3765         100.592 
       0.325316         97.3045         91.4565         97.8726 
        0.33145         94.1102          88.777         94.8415 
       0.337538         91.8628         86.1918         92.1019 
       0.343633         88.9699          83.582         89.5682 
       0.349808          86.469         80.8741         87.0261 
       0.355968         83.8991         78.1301         84.7878 
       0.362074         81.1918         75.4341         81.9603 
       0.368217         78.7712         72.8195         78.9998 
       0.374374         76.1771         70.3687         76.9221 
       0.380519          74.219         68.1227         74.5627 
       0.386598         72.2342         66.1003         72.6479 
       0.392688         70.7285         64.2437          70.859 
        0.39888         68.7635         62.4761         68.9217 
       0.405048         67.2501         60.7882         67.1468 
       0.411186         65.7884         59.1373          65.896 
       0.417313         63.6121         57.4934         63.9447 
       0.423458         62.1084         55.8543         62.4366 
       0.429607         60.3776         54.2346         60.7215 
       0.435692         58.5941         52.6762         59.3376 
       0.441815         57.5459          51.178         58.1456 
       0.447964         56.5741         49.7579          56.545 
       0.454126         54.4573         48.4213         55.1138 
       0.460267         53.4206         47.1724         54.0274 
       0.466387         51.9402         45.9945         52.6802 
        0.47254          51.199          44.857         51.6291 
       0.478662         50.2562          43.757         50.4551 
       0.484765         48.9368         42.6842         49.3371 
       0.490885         47.8124         41.6261         48.5541 
       0.497035         47.1526         40.5811         47.5693 
       0.503198         45.9819          39.561         46.2765 
       0.509342         44.8405         38.5793         45.4322 
       0.515458         43.8994         37.6412         44.7352 
       0.521598         43.1667         36.7396         43.4827 
       0.527764         42.2609         35.8749          42.498 
       0.533884         41.5271         35.0549         41.7155 
           0.54         40.7213         34.2666         40.8949 
       0.546137         40.0353         33.4997         40.2616 
       0.552299         39.3881         32.7488          39.298 
       0.558452         38.1872          32.017         38.5458 
       0.564573         37.6994         31.3071         38.0571 
       0.570708         37.1019         30.6137         37.3173 
       0.576825         36.1479         29.9414         36.6147 
       0.582926         35.5603          29.291         36.0124 
       0.589034         34.5901         28.6614         35.4447 
       0.595184         34.1439         28.0502         34.6108 
       0.601379         33.5568         27.4569         34.1908 
       0.607522         32.9887         26.8883          33.497 
       0.613639         32.6658         26.3388         32.9158 
       0.619772         31.8283         25.8027           32.44 
       0.625918          31.643         25.2787         31.9127 
       0.632068         31.1209         24.7676         31.2977 
       0.638161         30.4572         24.2745         30.7795 
         0.6443         29.8616         23.7911         30.2279 
       0.650464         29.3327         23.3193         29.8647 
       0.656582           29.14         22.8642         29.3778 
       0.662703         28.6153         22.4216         28.8658 
       0.668861         28.0995         21.9887         28.5071 
       0.675024         27.6028         21.5674         27.9565 
       0.681124         27.1466          21.162         27.5415 
       0.687237         26.7252         20.7667         27.0453 
       0.693381         26.4578           20.38         26.6499 
       0.699536          25.779         20.0027          26.284 
       0.705665         25.6121         19.6366         26.0152 
       0.711789         25.1383         19.2799         25.5441 
       0.717957         24.7924         18.9294         25.1526 
        0.72409         24.4099         18.5895          24.846 
       0.730186         24.1054           18.26          24.438 
       0.736317         23.8446         17.9367         24.0878 
       0.742472         23.4588         17.6201         23.8953 
       0.748622         23.1626         17.3116         23.4771 
        0.75476         22.7008         17.0115         23.1201 
       0.760888         22.4717         16.7191         22.8457 
       0.767043         22.1952         16.4326         22.5941 
       0.773185         21.7718         16.1536         22.2905 
       0.779291         21.6359         15.8829         22.0187 
       0.785407         21.3325         15.6181         21.6964 
       0.791564         20.9591         15.3577         21.4287 
       0.797719         20.6148         15.1034         21.0963 
       0.803834         20.5101         14.8566         20.8138 
       0.809972         20.3286         14.6144         20.6617 
       0.816124         19.8519         14.3772         20.3203 
       0.822261         19.6881         14.1459         20.0529 
       0.828378         19.4517         13.9205         19.8204 
       0.834502         19.2521         13.6999         19.6242 
       0.840667         18.9835         13.4826          19.341 
       0.846816         18.6652         13.2708          19.148 
       0.852925         18.4997         13.0649         19.0008 
       0.859047         18.2861          12.863         18.7036 
       0.865192         18.1287         12.6648         18.4809 
       0.871341         17.9589         12.4707           18.31 
       0.877463         17.6636         12.2815         18.0582 
       0.883569          17.402         12.0969         17.8934 
       0.889708         17.1414         11.9151         17.6684 
       0.895864         17.0552         11.7367          17.445 
       0.902008         16.8893         11.5623         17.2848 
       0.908149         16.6986         11.3917         17.0946 
       0.914301         16.5198         11.2242         16.9526 
       0.920448          16.231         11.0603         16.6867 
       0.926574         16.0841         10.9003         16.5285 
       0.932687         15.9431         10.7439         16.2784 
       0.938823         15.7265           10.59         16.1731 
       0.944975         15.5281         10.4388         15.9806 
       0.951105         15.4134         10.2911         15.7707 
       0.957225         15.2971         10.1466         15.7039 
       0.963368         15.1042         10.0044         15.4912 
       0.969511         14.9736         9.86496         15.3615 
       0.975621         14.8124         9.72895         15.1508 
       0.981748         14.6495         9.59519         15.0232 
       0.987916         14.5233         9.46313         14.8825 
        0.99406         14.3174         9.33408         14.7348 
        1.00019         14.1007         9.20772         14.6178 
        1.00632         14.0981         9.08384         14.4626 
        1.01246         13.9371         8.96208         14.3629 
        1.01859         13.7328         8.84278         14.1756 
        1.02471         13.6442         8.72582         14.0022 
        1.03085         13.5211          8.6106         13.8915 
        1.03698         13.3186         8.49773         13.7783 
        1.04314         13.2366         8.38643         13.6265 
        1.04929         13.0596         8.27741         13.5156 
        1.05541         12.9309         8.17078         13.4044 
        1.06154         12.8211         8.06579         13.2694 
        1.06769         12.7695         7.96251         13.1629 
        1.07382         12.5733         7.86139         13.0455 
        1.07993         12.4807         7.76228         12.9245 
        1.08607         12.3763         7.66449         12.7817 
        1.09222         12.2602          7.5683         12.6693 
        1.09836         12.1299          7.4739         12.5442 
        1.10449         12.0282         7.38123          12.439 
        1.11063         11.9288         7.29005         12.3408 
        1.11677         11.8395         7.20046         12.2318 
         1.1229         11.7424         7.11255         12.1393 
        1.12903         11.6274         7.02605         12.0666 
        1.13518         11.4937         6.94093         11.9559 
        1.14131          11.385         6.85729         11.8271 
        1.14745         11.2783         6.77508         11.6951 
        1.15359         11.2109         6.69422         11.6248 
        1.15973          11.119         6.61467         11.5323 
        1.16584         10.9662         6.53677         11.4731 
        1.17197         10.8954         6.46003          11.354 
        1.17811         10.8322          6.3843          11.247 
        1.18424         10.7476         6.31002          11.165 
        1.19038         10.6825         6.23672         11.0719 
        1.19652         10.5749         6.16462         10.9988 
        1.20267         10.4436         6.09368         10.8759 
        1.20881         10.4187         6.02388         10.8315 
        1.21495         10.3296         5.95529         10.7377 
        1.22108         10.2089         5.88779         10.6567 
         1.2272         10.1579         5.82151          10.545 
        1.23334         10.0279         5.75611         10.4817 
        1.23949         9.96144         5.69156         10.4164 
        1.24562         9.91555          5.6282         10.3224 
        1.25174         9.81397          5.5659         10.2411 
        1.25789         9.74924         5.50437         10.1628 
        1.26402         9.68812         5.44388         10.0654 
        1.27014         9.60217         5.38446         10.0088 
        1.27628         9.51032         5.32576         9.95176 
        1.28244         9.41162         5.26782         9.88143 
        1.28858         9.39422         5.21084         9.79436 
        1.29471         9.29798         5.15483          9.7234 
        1.30084         9.20889          5.0997         9.67147 
        1.30697         9.20961          5.0453         9.58842 
        1.31312          9.0409         4.99163         9.52921 
        1.31925         9.00952         4.93891         9.47232 
        1.32537         8.93898         4.88702         9.40525 
        1.33151         8.90583         4.83569         9.33353 
        1.33765         8.80146         4.78513         9.25168 
        1.34378         8.73213         4.73541         9.20821 
        1.34992         8.68676         4.68636         9.13866 
        1.35606         8.61654         4.63792         9.04933 
         1.3622         8.56836         4.59024         8.99877 
        1.36833         8.50427         4.54336         8.97094 
        1.37445         8.44953         4.49717         8.89464 
        1.38059         8.41324         4.45148         8.82667 
        1.38675         8.33452         4.40632         8.77037 
        1.39288         8.27313         4.36197         8.71564 
        1.39901         8.19084         4.31826         8.66522 
        1.40515         8.16111         4.27506         8.60391 
         1.4113         8.10723         4.23246         8.54421 
        1.41742          8.0474         4.19062          8.4931 
        1.42355         7.97776         4.14927         8.42508 
         1.4297         7.91248         4.10835         8.38659 
        1.43585         7.89028         4.06801         8.34325 
        1.44198         7.86085         4.02838         8.26438 
        1.44809         7.77057         3.98934         8.23645 
        1.45423         7.71376         3.95069         8.17244 
        1.46036         7.66816         3.91262         8.12048 
        1.46649          7.6054         3.87505          8.0801 
        1.47263         7.54987         3.83794         8.03197 
        1.47877         7.50296         3.80134         7.97553 
        1.48491         7.45795         3.76517         7.92645 
        1.49104          7.4184         3.72954         7.87437 
        1.49718         7.36925         3.69436         7.83077 
        1.50333         7.32381         3.65957         7.79048 
        1.50947         7.27063         3.62531          7.7437 
         1.5156         7.22949         3.59154         7.69585 
        1.52172         7.18886          3.5582         7.64937 
        1.52787         7.14382         3.52523         7.59308 
          1.534         7.08857         3.49271         7.54709 
        1.54013         7.05991         3.46064         7.50802 
        1.54627         6.99102         3.42892         7.46993 
        1.55241         6.95348         3.39759         7.42565 
        1.55855         6.92526          3.3667         7.36955 
        1.56467         6.87144         3.33629         7.34302 
         1.5708         6.83633         3.30617         7.30669 
        1.57695         6.77673         3.27637         7.25496 
        1.58308         6.73552         3.24702         7.22157 
        1.58922         6.71421         3.21801         7.18417 
        1.59535         6.67782         3.18936         7.13673 
         1.6015         6.62694         3.16103           7.091 
        1.60764         6.58497         3.13306          7.0598 
        1.61376         6.54713         3.10551         7.03163 
        1.61989         6.51589         3.07827         6.98935 
        1.62604         6.46587         3.05129         6.94573 
        1.63218         6.44799         3.02466         6.91153 
        1.63831         6.40799         2.99842         6.87682 
        1.64444         6.36902         2.97247         6.83045 
        1.65059         6.30313         2.94678         6.79663 
        1.65673         6.28861         2.92141         6.76216 
        1.66285         6.23109         2.89642         6.72625 
        1.66898         6.21195         2.87172         6.69333 
        1.67512         6.17325         2.84725         6.65927 
        1.68127         6.14033         2.82306         6.62773 
         1.6874         6.11119         2.79919         6.59319 
        1.69353         6.06459         2.77563         6.54981 
        1.69967         6.03611         2.75227         6.51345 
        1.70581         5.99977          2.7292         6.48946 
        1.71193         5.97449         2.70649         6.46595 
        1.71806         5.94351         2.68398         6.42673 
        1.72421         5.90039         2.66169         6.38965 
        1.73035         5.88057         2.63968         6.35579 
        1.73649          5.8429         2.61792         6.32159 
        1.74262         5.79554         2.59643         6.28952 
        1.74876         5.78791         2.57517         6.26526 
        1.75489         5.75986         2.55419         6.23487 
        1.76101         5.70812         2.53346         6.19298 
        1.76715         5.68587         2.51292         6.15956 
        1.77329          5.6601         2.49259         6.13673 
        1.77943          5.6087         2.47248         6.11159 
        1.78557         5.60074         2.45263         6.07729 
        1.79171          5.5575         2.43299          6.0446 
        1.79785         5.53239         2.41356         6.01532 
        1.80399         5.50006         2.39435         5.98758 
        1.81012         5.48014         2.37537         5.96644 
        1.81625         5.44111         2.35661         5.93959 
        1.82239         5.41748         2.33803         5.90864 
        1.82853         5.39067         2.31966         5.88915 
        1.83466         5.37192          2.3015         5.86744 
        1.84078         5.34081         2.28356         5.83357 
        1.84692         5.32037         2.26578         5.79151 
        1.85306         5.27628         2.24817         5.76356 
         1.8592          5.2464         2.23078         5.74637 
        1.86533         5.22654         2.21358         5.72204 
        1.87147         5.20535         2.19655          5.6968 
