# k  (h/Mpc)    P(k)  (Mpc/h)^3    P_linear(k)  (Mpc/h)^3     P_NL(k)  ShotnoiseSubtracted = false
     0.00783031         1625.59         1640.71         1639.76 
       0.013688         2194.09         2193.69         2186.27 
       0.019231         2369.62         2369.79         2357.89 
      0.0249154          2309.5         2327.75         2318.21 
      0.0312784         2134.99         2141.49         2134.93 
      0.0375637         1917.61         1915.57          1909.8 
      0.0433917          1715.7         1724.21         1719.29 
      0.0492413         1569.51          1571.1         1566.48 
      0.0555754         1437.11         1449.21         1444.23 
      0.0619321          1362.8         1358.36         1353.12 
       0.067871         1275.66         1284.88         1279.11 
      0.0738098         1198.63         1209.04         1201.44 
      0.0800417          1105.2         1119.93         1112.59 
      0.0862327         1013.85         1022.97         1017.53 
      0.0921407          924.68         929.249         924.438 
      0.0982031         833.592         840.235         837.817 
       0.104506         764.893          762.32         761.907 
       0.110769         704.756         702.569         701.235 
       0.116806         657.814         660.289         658.912 
       0.122832          630.03         628.894         628.091 
       0.129052         598.106         602.133         601.256 
       0.135211         571.388          575.96         575.137 
       0.141259         546.263         547.226         547.098 
       0.147318         516.366          514.59         515.771 
       0.153489         478.351         478.825          478.75 
       0.159709         445.173         443.062         444.684 
       0.165845         418.581         410.949         415.383 
       0.171974          388.42         383.972         388.447 
       0.178125         368.093         362.604         369.028 
       0.184229         353.321         346.353         352.923 
        0.19034         335.124         333.454         339.868 
       0.196428         327.373         322.068         327.089 
       0.202534         318.489         310.451          315.83 
       0.208729         303.608         297.423         302.496 
       0.214876          287.13         283.081         290.101 
       0.220989         276.796         267.982         275.773 
       0.227147         258.537         252.906         260.912 
        0.23329         245.849         238.987         248.779 
       0.239377         236.137         226.983          237.73 
       0.245482         223.238         216.957         226.913 
       0.251667         218.177         208.635         219.526 
       0.257832         211.022         201.643         212.367 
       0.263955         204.213          195.33         205.636 
       0.270079         198.083         189.045         199.023 
        0.27624         193.586         182.389         191.941 
       0.282372         186.081         175.333         185.388 
        0.28843         178.302         168.098         178.366 
       0.294538         171.159         160.851          171.86 
       0.300721         166.691         153.902         165.819 
        0.30691         159.054         147.605         159.838 
       0.313033         154.096         142.126         154.141 
       0.319153         147.242         137.365         150.005 
       0.325316          145.04         133.115         146.175 
        0.33145         140.297         129.215         141.559 
       0.337538         137.369         125.452         137.516 
       0.343633         133.089         121.653          133.97 
       0.349808         129.367         117.712         130.347 
       0.355968         125.809         113.718         127.218 
       0.362074         121.888         109.794         123.119 
       0.368217         118.436         105.989         118.699 
       0.374374          114.78         102.422         115.798 
       0.380519          111.88         99.1522         112.353 
       0.386598         108.949          96.209         109.563 
       0.392688         106.871         93.5065         107.058 
        0.39888         104.005         90.9339         104.106 
       0.405048         101.813         88.4771         101.654 
       0.411186         99.6961         86.0742         99.8638 
       0.417313         96.5505         83.6815          96.851 
       0.423458         94.3586         81.2959         94.7111 
       0.429607         91.8421         78.9383         92.2414 
       0.435692         89.0544         76.6701         90.2614 
       0.441815         87.8405         74.4896         88.6721 
       0.447964         86.4373         72.4226         86.2727 
       0.454126         83.0509         70.4768         84.1185 
       0.460267         81.6702         68.6594         82.6427 
       0.466387         79.6132         66.9448         80.6532 
        0.47254         78.5436         65.2892         79.1652 
       0.478662         77.2028         63.6882         77.4405 
       0.484765         75.2335         62.1268         75.7084 
       0.490885         73.6214         60.5868         74.6268 
       0.497035         72.6237         59.0656         73.2545 
       0.503198         70.8446         57.5811         71.3761 
       0.509342         69.0985          56.152         70.1743 
       0.515458         67.8561         54.7867         69.2558 
       0.521598         66.8621         53.4744         67.3382 
       0.527764         65.5847         52.2159          65.787 
       0.533884         64.4492         51.0223         64.6834 
           0.54         63.2895         49.8749         63.5328 
       0.546137          62.355         48.7588         62.6662 
       0.552299         61.4498         47.6658         61.2222 
       0.558452         59.6282         46.6008         60.0746 
       0.564573         58.7867         45.5674         59.3695 
       0.570708         58.0398         44.5582         58.2998 
       0.576825         56.6546         43.5796          57.282 
       0.582926         55.7146         42.6331         56.3729 
       0.589034          54.295         41.7166         55.5733 
       0.595184         53.6585         40.8269         54.4229 
       0.601379         52.9054         39.9635         53.7665 
       0.607522         51.8415         39.1358         52.6561 
       0.613639          51.516         38.3362         51.8587 
       0.619772          50.203         37.5558         51.0945 
       0.625918         49.9954          36.793         50.4628 
       0.632068         49.1959         36.0492         49.4762 
       0.638161         48.2806         35.3315         48.7589 
         0.6443         47.4055         34.6279         47.9058 
       0.650464         46.6462         33.9412         47.3246 
       0.656582         46.3596         33.2788         46.6776 
       0.662703         45.4955         32.6345         45.8604 
       0.668861          44.776         32.0045          45.346 
       0.675024         44.0661         31.3913         44.5383 
       0.681124         43.3366         30.8013         43.9104 
       0.687237         42.6601         30.2259         43.2082 
       0.693381         42.3166         29.6631         42.6269 
       0.699536         41.3417         29.1139         42.1582 
       0.705665         41.2762          28.581         41.6949 
       0.711789         40.3932         28.0618         40.9229 
       0.717957          39.938         27.5518         40.4497 
        0.72409         39.3578          27.057         40.0109 
       0.730186         38.8441         26.5774         39.3933 
       0.736317         38.4939         26.1068          38.863 
       0.742472         37.8348          25.646         38.5362 
       0.748622          37.493         25.1971         37.8973 
        0.75476         36.8625         24.7601         37.4246 
       0.760888         36.4347         24.3346         37.0161 
       0.767043         36.0256         23.9177         36.6481 
       0.773185         35.4143         23.5116         36.1749 
       0.779291         35.2373         23.1175         35.7936 
       0.785407         34.8148          22.732         35.3032 
       0.791564         34.1933         22.3531         34.8871 
       0.797719          33.614          21.983         34.4472 
       0.803834         33.5395         21.6237         33.9963 
       0.809972         33.2147         21.2713         33.7362 
       0.816124         32.4343          20.926         33.2539 
       0.822261         32.3164         20.5894         32.8179 
       0.828378         31.9506         20.2613         32.4556 
       0.834502         31.5969         19.9401         32.2565 
       0.840667         31.2517         19.6239         31.7756 
       0.846816         30.7561         19.3156         31.4858 
       0.852925         30.5048         19.0159         31.3342 
       0.859047         30.1548         18.7221         30.7987 
       0.865192         29.9032         18.4336          30.483 
       0.871341         29.6963          18.151         30.2428 
       0.877463         29.1677         17.8758         29.8755 
       0.883569         28.8278          17.607         29.6388 
       0.889708         28.4821         17.3424         29.2534 
       0.895864         28.3175         17.0827         28.9369 
       0.902008         28.0901         16.8289         28.6932 
       0.908149         27.7958         16.5805         28.4331 
       0.914301         27.6181         16.3368         28.2383 
       0.920448         27.0634         16.0983         27.8294 
       0.926574         26.9092         15.8654         27.5487 
       0.932687         26.6394         15.6377         27.2294 
       0.938823         26.3165         15.4137         27.0235 
       0.944975         26.0405         15.1936         26.7378 
       0.951105         25.8718         14.9787         26.4203 
       0.957225         25.5991         14.7684         26.3057 
       0.963368         25.3591         14.5614         25.9848 
       0.969511         25.1765         14.3584         25.7887 
       0.975621         24.9765         14.1605         25.5095 
       0.981748         24.6663         13.9658         25.3383 
       0.987916         24.4933         13.7736         25.0568 
        0.99406         24.2024         13.5857         24.8445 
        1.00019         23.8808         13.4018         24.6464 
        1.00632         23.8693         13.2215          24.451 
        1.01246         23.6076         13.0443         24.3095 
        1.01859         23.2852         12.8706         24.0243 
        1.02471         23.2058         12.7004         23.7752 
        1.03085         22.9896         12.5327         23.6036 
        1.03698         22.6408         12.3684         23.4072 
        1.04314         22.5245         12.2064         23.1607 
        1.04929         22.2564         12.0477         23.0124 
        1.05541         22.0602         11.8926         22.8586 
        1.06154         21.8942         11.7397         22.6108 
        1.06769         21.7941         11.5894         22.4349 
        1.07382          21.526         11.4422          22.285 
        1.07993         21.4226          11.298         22.0938 
        1.08607         21.1864         11.1556          21.889 
        1.09222         21.0241         11.0156         21.7339 
        1.09836         20.7831         10.8782         21.5319 
        1.10449         20.6958         10.7434         21.3598 
        1.11063           20.49         10.6107         21.2351 
        1.11677         20.3901         10.4803         21.0293 
         1.1229          20.262         10.3523         20.8911 
        1.12903         20.0313         10.2264         20.7854 
        1.13518         19.8175         10.1025         20.5862 
        1.14131         19.7116         9.98077         20.4146 
        1.14745         19.5673         9.86112          20.237 
        1.15359         19.4337         9.74343         20.1097 
        1.15973         19.2789         9.62763         19.9612 
        1.16584         19.0277         9.51426         19.8773 
        1.17197         18.9687         9.40256         19.7161 
        1.17811         18.8224         9.29234         19.5206 
        1.18424          18.659         9.18422         19.4121 
        1.19038         18.5813         9.07753         19.2617 
        1.19652         18.4067         8.97259         19.1159 
        1.20267          18.218         8.86933         18.9672 
        1.20881         18.1996         8.76774         18.9098 
        1.21495         18.0513         8.66791         18.7509 
        1.22108         17.8537         8.56967         18.6153 
         1.2272          17.724         8.47319         18.4507 
        1.23334         17.5626           8.378         18.3673 
        1.23949         17.4424         8.28406         18.2332 
        1.24562         17.3948         8.19183         18.0816 
        1.25174         17.2605         8.10116         17.9861 
        1.25789         17.1564          8.0116         17.8551 
        1.26402         17.0602         7.92356         17.7043 
        1.27014         16.9189         7.83707         17.6123 
        1.27628         16.7231         7.75163         17.5015 
        1.28244         16.6413          7.6673         17.4285 
        1.28858         16.5982         7.58436         17.2686 
        1.29471         16.4249         7.50284         17.1573 
        1.30084         16.2844          7.4226         17.1041 
        1.30697         16.2468         7.34342         16.9558 
        1.31312         16.0381          7.2653         16.8473 
        1.31925         15.9506         7.18857         16.7813 
        1.32537         15.8865         7.11304          16.683 
        1.33151         15.7741         7.03833         16.5488 
        1.33765         15.6562         6.96475         16.4309 
        1.34378         15.5531         6.89238          16.359 
        1.34992         15.4245         6.82099         16.2535 
        1.35606         15.3703         6.75048         16.1234 
         1.3622         15.2846         6.68109          16.036 
        1.36833         15.1636         6.61286         15.9886 
        1.37445         15.0845         6.54562         15.8604 
        1.38059         15.0207         6.47912          15.743 
        1.38675         14.8722         6.41339         15.6808 
        1.39288         14.7875         6.34884         15.5726 
        1.39901         14.6499         6.28522         15.4974 
        1.40515         14.6148         6.22233         15.4138 
         1.4113         14.5349         6.16034         15.3209 
        1.41742         14.4322         6.09944         15.2305 
        1.42355          14.333         6.03925         15.1254 
         1.4297         14.2237          5.9797          15.069 
        1.43585         14.1858         5.92099         14.9953 
        1.44198         14.1069         5.86329         14.8839 
        1.44809         14.0011         5.80648         14.8246 
        1.45423         13.9011         5.75022         14.7373 
        1.46036         13.8451         5.69481         14.6419 
        1.46649          13.761         5.64012         14.5632 
        1.47263          13.646         5.58612         14.5004 
        1.47877         13.5866         5.53285         14.4297 
        1.48491         13.4997         5.48019         14.3203 
        1.49104          13.437         5.42834         14.2583 
        1.49718          13.362         5.37713          14.186 
        1.50333         13.2795          5.3265         14.1143 
        1.50947         13.1969         5.27663         14.0471 
         1.5156         13.1271         5.22748         13.9705 
        1.52172         13.0446         5.17896         13.8844 
        1.52787         12.9623         5.13096          13.798 
          1.534         12.8986         5.08363         13.7319 
        1.54013         12.8343         5.03695         13.6505 
        1.54627         12.7345         4.99078         13.5833 
        1.55241         12.6852         4.94519         13.5362 
        1.55855         12.6261         4.90023         13.4625 
        1.56467         12.5321         4.85596         13.3909 
         1.5708         12.5045         4.81212         13.3446 
        1.57695         12.3858         4.76875         13.2774 
        1.58308         12.3349         4.72603         13.2027 
        1.58922         12.2828          4.6838         13.1518 
        1.59535         12.2307         4.64211         13.0729 
         1.6015         12.1358         4.60088         12.9996 
        1.60764         12.0692         4.56016         12.9455 
        1.61376         12.0382         4.52006         12.8888 
        1.61989         11.9482         4.48041         12.8326 
        1.62604         11.8931         4.44115         12.7716 
        1.63218         11.8453         4.40239          12.705 
        1.63831         11.7928         4.36419          12.644 
        1.64444         11.7202         4.32643         12.5879 
        1.65059          11.623         4.28902         12.5151 
        1.65673         11.5884         4.25211         12.4635 
        1.66285         11.4866         4.21573         12.4174 
        1.66898         11.4559         4.17978         12.3545 
        1.67512         11.4133         4.14417         12.3007 
        1.68127         11.3424         4.10895         12.2343 
         1.6874         11.2948         4.07422         12.1707 
        1.69353         11.2354         4.03992         12.1327 
        1.69967         11.1591         4.00593         12.0748 
        1.70581         11.0961         3.97235         12.0218 
        1.71193         11.0574         3.93928         11.9761 
        1.71806         11.0314         3.90653         11.9148 
        1.72421         10.9394         3.87408         11.8672 
        1.73035         10.9114         3.84205         11.8071 
        1.73649         10.8652         3.81038          11.739 
        1.74262         10.7789          3.7791         11.7115 
        1.74876          10.747         3.74815         11.6635 
        1.75489         10.7131         3.71762         11.5934 
        1.76101         10.6257         3.68744         11.5332 
        1.76715         10.5935         3.65755         11.4968 
        1.77329         10.5425         3.62797         11.4506 
        1.77943         10.4695         3.59869         11.3979 
        1.78557          10.452         3.56979         11.3547 
        1.79171         10.3873          3.5412         11.3003 
        1.79785         10.3358         3.51293         11.2427 
        1.80399          10.272         3.48497         11.2011 
        1.81012         10.2382         3.45735         11.1705 
        1.81625         10.1717         3.43004          11.132 
        1.82239         10.1428           3.403         11.0789 
        1.82853         10.0803         3.37626         11.0239 
        1.83466         10.0431         3.34983         10.9872 
        1.84078         9.98232         3.32372         10.9515 
        1.84692         9.96957         3.29784         10.8838 
        1.85306         9.89887         3.27221         10.8409 
         1.8592         9.84678          3.2469         10.8159 
        1.86533         9.81266         3.22186         10.7633 
        1.87147         9.76825         3.19707         10.7111 
        1.87761         9.72353         3.17253         10.6692 
