# k  (h/Mpc)    P(k)  (Mpc/h)^3    P_linear(k)  (Mpc/h)^3     P_NL(k)  ShotnoiseSubtracted = false
     0.00783031          91.931         92.6383         92.5492 
       0.013688         123.434         123.929         123.547 
       0.019231         133.726         133.904         133.327 
      0.0249154         131.071         131.542         131.144 
      0.0312784         120.896         121.025         120.859 
      0.0375637         108.356         108.261         108.185 
      0.0433917         97.4441         97.4485         97.4516 
      0.0492413         88.8763         88.7965         88.8158 
      0.0555754         81.8582         81.9082         81.9069 
      0.0619321         76.8982         76.7742         76.7568 
       0.067871         72.5476         72.6218         72.5698 
      0.0738098         68.2225         68.3354         68.2531 
      0.0800417         63.1341         63.2993         63.2239 
      0.0862327          57.733         57.8191         57.7677 
      0.0921407         52.4892         52.5222         52.4949 
      0.0982031         47.4346         47.4912         47.4923 
       0.104506         43.1436         43.0875         43.1082 
       0.110769         39.7525         39.7103          39.726 
       0.116806         37.2702         37.3206         37.3227 
       0.122832         35.5488         35.5461         35.5447 
       0.129052         33.9663         34.0336         34.0219 
       0.135211         32.4594         32.5542         32.5353 
       0.141259         30.8808         30.9302         30.9142 
       0.147318         29.0855         29.0856         29.0806 
       0.153489         27.0341         27.0641         27.0578 
       0.159709         25.0224         25.0427         25.0525 
       0.165845         23.2866         23.2277         23.2587 
       0.171974         21.6883         21.7029          21.735 
       0.178125         20.4913         20.4951         20.5388 
       0.184229         19.5971         19.5766         19.6193 
        0.19034         18.8021         18.8475          18.886 
       0.196428         18.1887          18.204         18.2298 
       0.202534         17.5821         17.5473         17.5731 
       0.208729         16.8078          16.811          16.835 
       0.214876         15.9621         16.0004         16.0375 
       0.220989         15.1846         15.1469         15.1911 
       0.227147         14.2671         14.2948         14.3416 
        0.23329         13.4872         13.5081         13.5678 
       0.239377         12.8202         12.8296         12.8971 
       0.245482         12.2415         12.2629         12.3251 
       0.251667         11.8061         11.7925         11.8601 
       0.257832         11.3927         11.3973         11.4626 
       0.263955         11.0412         11.0405         11.1011 
       0.270079         10.6894         10.6852         10.7422 
        0.27624         10.3403          10.309         10.3626 
       0.282372         9.93801         9.91022         9.96851 
        0.28843         9.50608         9.50128         9.56249 
       0.294538         9.10303         9.09163         9.15783 
       0.300721         8.73464         8.69889         8.77149 
        0.30691         8.35612         8.34295          8.4173 
       0.313033         8.05212         8.03328         8.10677 
       0.319153         7.74394         7.76419         7.84259 
       0.325316         7.55863         7.52395         7.60465 
        0.33145         7.32861          7.3035         7.37887 
       0.337538         7.11116         7.09084         7.16338 
       0.343633         6.88783         6.87613         6.94806 
       0.349808          6.6745         6.65333         6.72801 
       0.355968         6.45275         6.42762         6.51211 
       0.362074         6.22687         6.20582         6.28715 
       0.368217         6.01505         5.99072         6.06602 
       0.374374         5.79635         5.78911          5.8711 
       0.380519         5.62966         5.60431         5.68396 
       0.386598         5.46815         5.43795         5.52046 
       0.392688         5.32258          5.2852         5.36707 
        0.39888         5.16989         5.13979         5.22044 
       0.405048         5.03345         5.00093         5.07721 
       0.411186         4.90162         4.86511         4.94935 
       0.417313         4.75485         4.72987         4.81074 
       0.423458         4.63032         4.59503         4.67754 
       0.429607         4.48744         4.46178          4.5419 
       0.435692          4.3597         4.33357         4.41731 
       0.441815         4.23949         4.21032         4.29905 
       0.447964         4.13658          4.0935         4.17958 
       0.454126         4.01151         3.98351          4.0683 
       0.460267         3.90649         3.88079         3.96767 
       0.466387         3.80597         3.78388         3.86709 
        0.47254         3.71672          3.6903         3.77427 
       0.478662         3.62997         3.59981         3.68223 
       0.484765         3.53683         3.51155         3.59498 
       0.490885         3.45075          3.4245         3.51363 
       0.497035         3.37964         3.33853         3.42824 
       0.503198         3.28863         3.25462         3.33755 
       0.509342         3.21275         3.17384         3.25929 
       0.515458         3.12877         3.09667         3.18601 
       0.521598         3.05673          3.0225         3.10541 
       0.527764         2.97952         2.95137         3.03415 
       0.533884         2.92198          2.8839         2.96728 
           0.54         2.85427         2.81905          2.9009 
       0.546137         2.79498         2.75596         2.83951 
       0.552299         2.73094         2.69418          2.7725 
       0.558452         2.66402         2.63398          2.7136 
       0.564573         2.61035         2.57558         2.66138 
       0.570708          2.5543         2.51853         2.60263 
       0.576825         2.49532         2.46322         2.54588 
       0.582926         2.44781         2.40972         2.49378 
       0.589034         2.38319         2.35792         2.44434 
       0.595184         2.33652         2.30763         2.38646 
       0.601379         2.28843         2.25883         2.34317 
       0.607522         2.24683         2.21205         2.29513 
       0.613639         2.20767         2.16685         2.24884 
       0.619772           2.154         2.12274         2.20731 
       0.625918         2.11339         2.07963         2.16112 
       0.632068         2.07574         2.03759         2.11799 
       0.638161         2.03103         1.99702           2.077 
         0.6443          1.9908         1.95725         2.03589 
       0.650464         1.94772         1.91844          2.0002 
       0.656582         1.91469           1.881         1.96152 
       0.662703         1.87896         1.84458         1.92406 
       0.668861         1.84791         1.80897         1.89085 
       0.675024         1.80852         1.77431         1.85416 
       0.681124         1.77071         1.74096         1.81971 
       0.687237         1.74378         1.70844         1.78438 
       0.693381         1.71299         1.67663         1.75071 
       0.699536         1.67297         1.64558         1.72065 
       0.705665         1.64499         1.61547         1.69514 
       0.711789         1.61904         1.58612         1.66456 
       0.717957         1.58709         1.55729         1.63319 
        0.72409         1.56104         1.52933         1.60527 
       0.730186          1.5323         1.50222         1.57598 
       0.736317         1.51117         1.47562         1.54881 
       0.742472         1.48366         1.44957         1.52694 
       0.748622         1.45648          1.4242         1.50126 
        0.75476         1.42802          1.3995         1.47315 
       0.760888         1.40353         1.37545         1.44978 
       0.767043          1.3876         1.35188         1.42687 
       0.773185         1.35974         1.32893         1.40478 
       0.779291         1.33779         1.30666         1.38196 
       0.785407         1.31667         1.28487         1.35896 
       0.791564          1.2954         1.26345         1.33749 
       0.797719         1.27635         1.24253          1.3137 
       0.803834         1.25602         1.22222         1.29436 
       0.809972         1.23496          1.2023         1.27635 
       0.816124         1.21407         1.18279         1.25409 
       0.822261         1.19322         1.16376         1.23463 
       0.828378         1.17743         1.14522         1.21588 
       0.834502         1.16079         1.12706         1.19627 
       0.840667         1.13868         1.10919         1.17927 
       0.846816         1.12172         1.09176         1.16452 
       0.852925         1.10837         1.07483         1.14567 
       0.859047         1.09119         1.05822         1.13091 
       0.865192         1.07304         1.04191         1.11283 
       0.871341         1.05632         1.02594         1.09577 
       0.877463         1.04474         1.01038         1.07936 
       0.883569          1.0265        0.995188         1.06523 
       0.889708         1.01107        0.980236         1.04997 
       0.895864        0.996506        0.965556         1.03439 
       0.902008        0.980813        0.951212         1.01968 
       0.908149        0.966578        0.937172         1.00626 
       0.914301        0.949413        0.923396        0.990634 
       0.920448        0.937778        0.909914        0.976546 
       0.926574         0.92406        0.896751         0.96377 
       0.932687        0.910928        0.883881        0.948928 
       0.938823        0.901639         0.87122         0.93944 
       0.944975        0.887751        0.858781         0.92329 
       0.951105        0.876227        0.846633        0.911157 
       0.957225        0.865965        0.834743        0.901081 
       0.963368        0.853152        0.823045        0.887756 
       0.969511        0.839732        0.811573        0.876238 
       0.975621        0.827494        0.800384        0.862316 
       0.981748        0.819609        0.789379        0.851816 
       0.987916        0.807864        0.778515        0.843114 
        0.99406        0.796122        0.767898          0.8326 
        1.00019        0.787527        0.757502        0.821744 
        1.00632        0.774348        0.747311        0.810095 
        1.01246        0.764275        0.737294        0.799338 
        1.01859        0.755882        0.727479        0.790103 
        1.02471        0.745292        0.717858        0.780583 
        1.03085        0.738131        0.708379           0.769 
        1.03698        0.726747        0.699093        0.759074 
        1.04314        0.718122        0.689937         0.75052 
        1.04929        0.708023        0.680967        0.741297 
        1.05541        0.700638        0.672195        0.733205 
        1.06154         0.69051        0.663558        0.724199 
        1.06769        0.681097        0.655061        0.715005 
        1.07382        0.673819        0.646743        0.706495 
        1.07993        0.664062        0.638589        0.697968 
        1.08607        0.658788        0.630544        0.689894 
        1.09222        0.648959        0.622631         0.68094 
        1.09836        0.643287        0.614864        0.673692 
        1.10449        0.635099        0.607241        0.665704 
        1.11063        0.625712         0.59974        0.657022 
        1.11677        0.617508        0.592369        0.650387 
         1.1229        0.611491        0.585137        0.642899 
        1.12903         0.60327        0.578021        0.635307 
        1.13518        0.597454        0.571018        0.628178 
        1.14131        0.589467        0.564137        0.621305 
        1.14745        0.580243        0.557374        0.613134 
        1.15359        0.575617        0.550722        0.606842 
        1.15973        0.567296        0.544177        0.600702 
        1.16584        0.563306        0.537769        0.593226 
        1.17197        0.556106        0.531455         0.58672 
        1.17811        0.550429        0.525225        0.580961 
        1.18424        0.545547        0.519114        0.573489 
        1.19038        0.537743        0.513084        0.567536 
        1.19652        0.530253        0.507153        0.561729 
        1.20267        0.526558        0.501316        0.554218 
        1.20881        0.519755        0.495574        0.549427 
        1.21495        0.515348        0.489931        0.544691 
        1.22108        0.509015        0.484378        0.537673 
         1.2272        0.504101        0.478925        0.531252 
        1.23334        0.497935        0.473545        0.526229 
        1.23949        0.492511        0.468235        0.521484 
        1.24562         0.48729        0.463022        0.515888 
        1.25174         0.48235        0.457897        0.509796 
        1.25789        0.477908        0.452835        0.504392 
        1.26402        0.471034        0.447859        0.499363 
        1.27014         0.46664         0.44297        0.494066 
        1.27628        0.462563        0.438141        0.488879 
        1.28244        0.455973        0.433374        0.484066 
        1.28858        0.452108        0.428686        0.478354 
        1.29471         0.44863        0.424078        0.474183 
        1.30084        0.442719        0.419543        0.470414 
        1.30697        0.438354        0.415068        0.465261 
        1.31312         0.43231        0.410652        0.460388 
        1.31925        0.428697        0.406315        0.456315 
        1.32537        0.424997        0.402046        0.451964 
        1.33151        0.421177        0.397823        0.447397 
        1.33765        0.416725        0.393664         0.44301 
        1.34378        0.411557        0.389574        0.438819 
        1.34992        0.408061        0.385539        0.434714 
        1.35606        0.403853        0.381553        0.429753 
         1.3622        0.399932        0.377631        0.425755 
        1.36833        0.395705        0.373774        0.422096 
        1.37445          0.3908        0.369974         0.41836 
        1.38059        0.387282        0.366215        0.413932 
        1.38675        0.385624          0.3625        0.410027 
        1.39288         0.38081        0.358852        0.405918 
        1.39901        0.377202        0.355256        0.402419 
        1.40515        0.374015        0.351701        0.398509 
         1.4113        0.369352        0.348197        0.395148 
        1.41742        0.365918        0.344755        0.392315 
        1.42355        0.363522        0.341353        0.387239 
         1.4297        0.359129        0.337987        0.384561 
        1.43585        0.356174        0.334668        0.380929 
        1.44198        0.353505        0.331407        0.376203 
        1.44809        0.349294        0.328196        0.374321 
        1.45423        0.346469        0.325016        0.369595 
        1.46036        0.342903        0.321885        0.366793 
        1.46649         0.34055        0.318793        0.364388 
        1.47263        0.336894        0.315741        0.360738 
        1.47877        0.332986         0.31273        0.357546 
        1.48491         0.33067        0.309754        0.354771 
        1.49104        0.326674        0.306823        0.350755 
        1.49718        0.324065        0.303928        0.348594 
        1.50333        0.321932        0.301066        0.344464 
        1.50947        0.318554        0.298248        0.341335 
         1.5156        0.315519         0.29547        0.339186 
        1.52172        0.312941        0.292727        0.335767 
        1.52787        0.310037        0.290014        0.332808 
          1.534        0.306985        0.287339        0.330398 
        1.54013        0.304099        0.284701        0.327495 
        1.54627        0.302114        0.282091        0.324471 
        1.55241        0.298799        0.279514        0.321709 
        1.55855        0.295804        0.276973        0.319036 
        1.56467        0.294687        0.274471         0.31671 
         1.5708        0.291489        0.271993        0.313569 
        1.57695        0.288933        0.269542        0.310613 
        1.58308        0.286267        0.267127        0.308622 
        1.58922        0.284038         0.26474        0.306178 
        1.59535        0.281452        0.262383        0.303386 
         1.6015        0.278791        0.260053        0.300509 
        1.60764        0.276788        0.257751        0.298473 
        1.61376        0.273787        0.255485        0.296817 
        1.61989        0.271948        0.253244        0.294083 
        1.62604        0.269922        0.251025         0.29151 
        1.63218        0.267634        0.248834        0.289254 
        1.63831        0.265401        0.246674         0.28692 
        1.64444        0.263165         0.24454        0.284407 
        1.65059        0.261061        0.242426         0.28204 
        1.65673        0.258882        0.240339        0.279966 
        1.66285        0.257078        0.238283        0.277844 
        1.66898        0.254792        0.236251        0.275442 
        1.67512        0.252291        0.234239        0.273244 
        1.68127        0.250068        0.232248        0.271288 
         1.6874        0.248684        0.230285        0.269375 
        1.69353        0.246029        0.228346         0.26722 
        1.69967        0.244908        0.226425        0.264781 
        1.70581        0.242031        0.224527        0.262686 
        1.71193        0.240374        0.222658        0.260883 
        1.71806        0.238075        0.220806        0.258841 
        1.72421        0.236982        0.218973        0.257167 
        1.73035        0.234631        0.217162        0.255126 
        1.73649        0.233151        0.215372        0.252611 
        1.74262         0.23113        0.213604        0.250735 
        1.74876        0.229254        0.211855        0.249272 
        1.75489        0.227817        0.210129        0.247496 
        1.76101        0.225451        0.208423        0.245364 
        1.76715        0.223826        0.206734        0.243739 
        1.77329        0.221766        0.205061        0.242145 
        1.77943        0.220301        0.203407        0.240249 
        1.78557        0.219017        0.201773        0.238206 
        1.79171        0.217207        0.200157        0.236237 
        1.79785        0.215543        0.198559        0.234627 
        1.80399        0.213785        0.196979        0.233241 
        1.81012        0.212397        0.195418         0.23097 
        1.81625        0.210528        0.193874        0.229101 
        1.82239           0.209        0.192346        0.228092 
        1.82853        0.207239        0.190834        0.226607 
        1.83466        0.205976        0.189341        0.224735 
        1.84078        0.204262        0.187865        0.222985 
        1.84692        0.202633        0.186402        0.221664 
        1.85306        0.201482        0.184953        0.219864 
         1.8592        0.199552        0.183522        0.217937 
        1.86533        0.198433        0.182108        0.216669 
        1.87147        0.196865        0.180706        0.215294 
        1.87761        0.195763        0.179319        0.213874 
