# k  (h/Mpc)    Pcb(k)  (Mpc/h)^3    Pcb_linear(k) (Mpc/h)^3    Pcb_NL(k) (Mpc/h)^3   ShotnoiseSubtracted = false
     0.00783031         6130.23         6201.31         6197.02 
       0.013688         8326.23         8288.83         8251.81 
       0.019231         8953.15         8953.01         8890.57 
      0.0249154         8658.44         8793.53         8727.01 
      0.0312784         8017.54          8089.5         8019.19 
      0.0375637         7217.27         7235.86          7163.6 
      0.0433917         6409.86          6512.9         6435.39 
      0.0492413         5883.69         5934.47         5856.52 
      0.0555754         5337.23         5473.98         5395.57 
      0.0619321         5115.24         5130.78         5049.32 
       0.067871         4735.53         4853.22         4771.58 
      0.0738098         4446.24         4566.72         4463.25 
      0.0800417         4075.62         4230.13         4129.16 
      0.0862327         3753.45         3863.87          3786.5 
      0.0921407         3443.63         3509.88         3436.84 
      0.0982031         3100.65         3173.65         3129.29 
       0.104506         2878.82         2879.36         2859.28 
       0.110769         2653.75         2653.66         2623.28 
       0.116806         2476.69         2493.97         2464.58 
       0.122832         2372.64         2375.38         2353.46 
       0.129052         2232.51          2274.3         2253.29 
       0.135211         2135.87         2175.44         2154.62 
       0.141259         2052.53         2066.91         2056.51 
       0.147318         1945.18         1943.64         1945.99 
       0.153489         1796.88         1808.55         1797.52 
       0.159709         1691.95         1673.47         1682.25 
       0.165845         1611.41         1552.18         1592.05 
       0.171974         1504.65         1450.28         1493.91 
       0.178125         1428.56         1369.58         1435.85 
       0.184229         1374.48         1308.19          1372.9 
        0.19034         1292.99         1259.47         1324.34 
       0.196428         1275.63         1216.47         1269.92 
       0.202534         1240.34         1172.59         1230.51 
       0.208729          1185.3         1123.38         1175.13 
       0.214876         1125.95         1069.21         1140.41 
       0.220989          1093.8         1012.18          1093.6 
       0.227147         1031.44         955.238         1042.57 
        0.23329         988.998         902.667          1006.9 
       0.239377         966.598         857.324         968.282 
       0.245482         904.998         819.453         924.424 
       0.251667         896.391         788.022         902.474 
       0.257832         866.693         761.615          874.51 
       0.263955         840.214         737.768         848.521 
       0.270079         814.792         714.031         823.727 
        0.27624         805.848         688.892         796.689 
       0.282372          772.14          662.24         773.553 
        0.28843         754.023         634.914         748.096 
       0.294538         719.673         607.539         727.904 
       0.300721         715.436         581.294         708.085 
        0.30691          683.05         557.509         691.134 
       0.313033          669.34         536.817         668.455 
       0.319153         649.361         518.832         652.647 
       0.325316         631.257          502.78         641.212 
        0.33145         614.571         488.049         619.319 
       0.337538         607.963         473.837          605.44 
       0.343633         589.505          459.49         597.204 
       0.349808         571.939         444.603         584.856 
       0.355968         566.568         429.518         573.162 
       0.362074         554.934         414.697         558.972 
       0.368217         540.479         400.323         542.053 
       0.374374         520.802          386.85         531.642 
       0.380519         514.945         374.502         519.474 
       0.386598         503.716         363.384         510.634 
       0.392688         500.326         353.178         499.903 
        0.39888         486.546          343.46         490.433 
       0.405048         477.734         334.181         484.994 
       0.411186         468.374         325.105         472.857 
       0.417313         460.616         316.068         461.414 
       0.423458         452.742         307.057          453.99 
       0.429607          442.91         298.153         444.983 
       0.435692         432.794         289.586         437.058 
       0.441815         430.201         281.349         433.309 
       0.447964         422.136         273.543         424.724 
       0.454126         407.826         266.194         414.655 
       0.460267          403.63         259.328         411.729 
       0.466387         399.115         252.853         403.734 
        0.47254         391.052           246.6         398.311 
       0.478662         389.297         240.553         391.069 
       0.484765         379.133         234.655         382.741 
       0.490885         374.479         228.838         378.397 
       0.497035         368.673         223.093         374.301 
       0.503198             361         217.485         368.355 
       0.509342         358.061         212.088         364.001 
       0.515458          354.03         206.931         361.263 
       0.521598          348.74         201.975         354.035 
       0.527764         342.442         197.221         348.309 
       0.533884         339.041         192.713         344.458 
           0.54         334.776         188.379         340.094 
       0.546137         333.261         184.163         336.505 
       0.552299         327.068         180.035         331.143 
       0.558452         323.272         176.013         327.198 
       0.564573         317.976         172.109         324.419 
       0.570708          313.09         168.298         320.679 
       0.576825         309.202         164.602           314.9 
       0.582926         306.218         161.026         311.274 
       0.589034         302.057         157.565         308.156 
       0.595184         299.429         154.205         303.426 
       0.601379         296.922         150.943         302.229 
       0.607522         291.179         147.817         298.141 
       0.613639         290.147         144.797         295.017 
       0.619772         283.299         141.849         291.835 
       0.625918         281.706         138.969         289.489 
       0.632068         278.267         136.159         284.768 
       0.638161         277.028         133.448         283.203 
         0.6443         272.321         130.791         280.067 
       0.650464         270.026         128.197          275.47 
       0.656582         268.555         125.695         273.447 
       0.662703         265.079         123.262         271.178 
       0.668861          261.41         120.882         268.412 
       0.675024         258.686         118.566         265.264 
       0.681124         257.727         116.337         262.891 
       0.687237         253.716         114.164         259.966 
       0.693381         250.395         112.038         257.533 
       0.699536         248.763         109.964         255.586 
       0.705665         248.253         107.951         254.198 
       0.711789         243.742          105.99         250.392 
       0.717957         242.471         104.064         248.569 
        0.72409         239.672         102.195         247.524 
       0.730186         236.317         100.384         245.075 
       0.736317          235.03         98.6062         242.223 
       0.742472         233.702         96.8658         240.137 
       0.748622         232.076         95.1701         237.668 
        0.75476         229.998         93.5198         236.035 
       0.760888         226.914         91.9125         233.282 
       0.767043         225.662         90.3377         232.138 
       0.773185         223.347          88.804         230.699 
       0.779291         220.013         87.3155         228.461 
       0.785407         219.291         85.8596         226.066 
       0.791564         217.228         84.4282         224.657 
       0.797719         214.782         83.0304         223.309 
       0.803834         213.859         81.6735         220.835 
       0.809972         211.237         80.3423         219.329 
       0.816124         211.407         79.0381         217.955 
       0.822261         208.354         77.7667         216.035 
       0.828378         206.687         76.5274         213.621 
       0.834502         206.399         75.3144         212.979 
       0.840667         203.183         74.1202           211.8 
       0.846816         202.214         72.9556         209.545 
       0.852925         200.335         71.8237         207.864 
       0.859047         198.605         70.7139           206.4 
       0.865192         197.599         69.6241         205.278 
       0.871341         195.457         68.5569         203.391 
       0.877463         194.261         67.5172         202.553 
       0.883569         192.463         66.5021         200.946 
       0.889708         191.308         65.5029         199.635 
       0.895864         189.348          64.522         198.515 
       0.902008         188.481         63.5634         196.459 
       0.908149          187.39         62.6252          194.99 
       0.914301         185.279         61.7047         194.329 
       0.920448          184.16         60.8037         192.725 
       0.926574         183.218         59.9242         190.715 
       0.932687          181.92         59.0641         189.435 
       0.938823         179.977         58.2181         188.729 
       0.944975         178.854         57.3868         187.748 
       0.951105         177.735         56.5751         186.249 
       0.957225         175.533         55.7806         185.065 
       0.963368         174.475         54.9988         183.109 
       0.969511         173.679         54.2322           182.3 
       0.975621         172.757         53.4845         182.531 
       0.981748         171.983         52.7492         180.443 
       0.987916         169.759         52.0231         179.764 
        0.99406         169.251         51.3137         178.476 
        1.00019         168.097          50.619          176.96 
        1.00632         166.812          49.938         175.772 
        1.01246         165.671         49.2687         174.477 
        1.01859         163.954         48.6128         173.899 
        1.02471         163.942         47.9698         173.284 
        1.03085         162.304         47.3364         171.996 
        1.03698         160.733         46.7159          170.63 
        1.04314         159.872         46.1041         169.905 
        1.04929         158.824         45.5047         169.118 
        1.05541         157.916         44.9185         168.172 
        1.06154         156.801         44.3413         167.316 
        1.06769         156.459         43.7735         166.348 
        1.07382         155.538         43.2177         165.303 
        1.07993         154.387         42.6728         164.269 
        1.08607         153.069         42.1352         163.501 
        1.09222         152.202         41.6064         162.409 
        1.09836         150.989         41.0874           161.4 
        1.10449         150.035          40.578         160.452 
        1.11063         149.186         40.0767         159.262 
        1.11677         148.489         39.5842         158.602 
         1.1229          147.04          39.101         158.022 
        1.12903         146.066         38.6254         156.925 
        1.13518         146.069         38.1575         156.117 
        1.14131          144.58         37.6976         155.112 
        1.14745         143.681         37.2457         154.349 
        1.15359         142.762         36.8012         153.472 
        1.15973          142.39         36.3638         152.861 
        1.16584          141.12         35.9356         151.928 
        1.17197         140.327         35.5138         151.011 
        1.17811         139.537         35.0974         150.376 
        1.18424         138.418         34.6891         149.571 
        1.19038         137.814         34.2861         148.948 
        1.19652          137.09         33.8897         147.943 
        1.20267         136.001         33.4997         147.229 
        1.20881         135.237          33.116         146.586 
        1.21495         134.334         32.7389         145.474 
        1.22108         133.561         32.3679         145.073 
         1.2272         132.827         32.0035         144.197 
        1.23334         131.966         31.6439         143.562 
        1.23949         130.566         31.2891         142.604 
        1.24562         130.499         30.9408         142.051 
        1.25174         129.332         30.5983         141.318 
        1.25789         128.704           30.26         140.648 
        1.26402         128.211         29.9275         139.847 
        1.27014         127.021         29.6008         139.654 
        1.27628          126.65         29.2781         139.035 
        1.28244         125.693         28.9596         137.668 
        1.28858         125.026         28.6463          137.02 
        1.29471         124.109         28.3384         136.716 
        1.30084         123.398         28.0354         135.765 
        1.30697         122.639         27.7363         135.073 
        1.31312         122.322         27.4412         134.499 
        1.31925         121.477         27.1514         133.808 
        1.32537         121.005         26.8662         133.128 
        1.33151         119.731          26.584         132.578 
        1.33765          119.19         26.3061         132.011 
        1.34378         118.348         26.0327         131.182 
        1.34992         118.168         25.7631          130.71 
        1.35606         117.335         25.4967          129.96 
         1.3622         116.349         25.2347         129.417 
        1.36833         116.001         24.9769         128.605 
        1.37445         115.053          24.723         127.925 
        1.38059         114.605         24.4718         127.704 
        1.38675         113.889         24.2235         126.763 
        1.39288         113.162         23.9797          126.42 
        1.39901         112.835         23.7394         125.783 
        1.40515         112.302         23.5019         125.212 
         1.4113         110.972         23.2678         124.765 
        1.41742         110.853         23.0377         124.143 
        1.42355         109.944         22.8104         123.299 
         1.4297         109.405         22.5855         122.729 
        1.43585         108.695         22.3637         122.319 
        1.44198         108.336         22.1458         121.893 
        1.44809         107.456         21.9312         121.004 
        1.45423         106.889         21.7187         120.433 
        1.46036         106.373         21.5095         120.005 
        1.46649         105.849         21.3029         119.646 
        1.47263         105.382         21.0989         119.162 
        1.47877         104.837         20.8977         118.315 
        1.48491         104.044         20.6988         118.021 
        1.49104         103.443          20.503         117.327 
        1.49718         102.953         20.3096         116.657 
        1.50333         102.264         20.1183         116.285 
        1.50947         101.507           19.93         115.795 
         1.5156         101.419         19.7443          115.29 
        1.52172         100.507         19.5611         114.885 
        1.52787          100.31         19.3798         114.198 
          1.534         99.7882          19.201         113.772 
        1.54013         98.9248         19.0247         113.226 
        1.54627         98.3929         18.8503         112.715 
        1.55241         97.7947         18.6781         112.335 
        1.55855         97.4295         18.5083         111.616 
        1.56467         96.7199         18.3411         111.084 
         1.5708         96.2216         18.1755         110.782 
        1.57695         95.9324         18.0117         110.355 
        1.58308         95.0612         17.8503         109.838 
        1.58922         94.8548         17.6909         109.351 
        1.59535         94.3866         17.5334         108.861 
         1.6015          93.735         17.3776         108.328 
        1.60764         93.3404         17.2239         107.976 
        1.61376         92.6973         17.0724         107.682 
        1.61989         92.2633         16.9226         107.035 
        1.62604          91.571         16.7744          106.47 
        1.63218         91.4281          16.628         106.056 
        1.63831         90.8202         16.4837         105.722 
        1.64444         90.3986          16.341         105.288 
        1.65059         89.5516         16.1998         104.605 
        1.65673         89.2316         16.0603         104.231 
        1.66285         88.8418         15.9229         103.922 
        1.66898         88.3697         15.7871         103.393 
        1.67512         87.6726         15.6526         103.114 
        1.68127         87.2419         15.5196         102.622 
         1.6874         86.8201         15.3884         101.953 
        1.69353         86.4417         15.2589          101.53 
        1.69967         85.9006         15.1305         101.294 
        1.70581         85.5237         15.0037         100.883 
        1.71193         85.1631         14.8788         100.392 
        1.71806         84.4259         14.7551         100.149 
        1.72421         84.2893         14.6325         99.6149 
        1.73035           83.63         14.5115         99.1581 
        1.73649         83.1778         14.3919         98.9064 
        1.74262         82.8284         14.2738         98.3868 
        1.74876         82.3868         14.1569         97.9073 
        1.75489         81.8204         14.0416         97.5444 
        1.76101         81.5306         13.9276         97.1465 
        1.76715         81.0067         13.8147         96.6141 
        1.77329         80.6154         13.7029         96.2711 
        1.77943         80.2745         13.5924          95.938 
        1.78557         79.8556         13.4832           95.38 
        1.79171         79.3614         13.3752         94.9992 
        1.79785         79.0878         13.2684          94.746 
        1.80399          78.445         13.1628         94.3733 
        1.81012         78.2333         13.0585         93.9651 
        1.81625         77.6088         12.9554         93.5408 
        1.82239         77.2228         12.8532         93.1771 
        1.82853         76.8387         12.7522         92.9418 
        1.83466         76.4442         12.6524         92.4939 
        1.84078         75.8758         12.5538         91.9854 
        1.84692         75.6466          12.456         91.8618 
        1.85306         75.2545         12.3592         91.4987 
         1.8592         74.6702         12.2636         90.9705 
        1.86533         74.3091         12.1691         90.7002 
        1.87147         73.9261         12.0754         90.2476 
