# k  (h/Mpc)    Pcb(k)  (Mpc/h)^3    Pcb_linear(k) (Mpc/h)^3    Pcb_NL(k) (Mpc/h)^3   ShotnoiseSubtracted = false
     0.00783031         8981.52         9095.58         9087.15 
       0.013688         12230.9         12156.2         12092.8 
       0.019231         13124.5         13129.6         13021.4 
      0.0249154         12645.9         12895.4         12769.4 
      0.0312784         11714.4         11862.7         11717.7 
      0.0375637         10554.3         10610.8         10459.4 
      0.0433917         9340.87         9550.56         9384.12 
      0.0492413         8585.91          8702.3          8533.7 
      0.0555754         7752.58         8027.01         7858.83 
      0.0619321         7461.23         7523.72         7349.76 
       0.067871         6872.34         7116.69         6944.22 
      0.0738098         6451.34         6696.55         6478.89 
      0.0800417         5896.77         6202.97         5990.88 
      0.0862327         5439.78         5665.89         5502.46 
      0.0921407          5006.5          5146.8         4992.59 
      0.0982031         4509.24         4653.76         4557.35 
       0.104506         4207.12         4222.21         4175.56 
       0.110769         3880.32         3891.26         3825.78 
       0.116806         3627.39         3657.08         3593.52 
       0.122832         3470.45         3483.19         3434.41 
       0.129052         3254.05         3334.97         3289.17 
       0.135211         3114.93            3190         3143.21 
       0.141259         2999.95         3030.85         3006.65 
       0.147318         2847.03         2850.09         2848.39 
       0.153489         2627.93         2652.01         2626.96 
       0.159709         2485.81         2453.93          2467.7 
       0.165845         2382.51         2276.06         2348.99 
       0.171974         2233.49         2126.65         2210.06 
       0.178125         2121.62          2008.3         2134.99 
       0.184229         2040.05         1918.29         2039.15 
        0.19034         1923.47         1846.85         1969.73 
       0.196428         1898.94         1783.79          1889.5 
       0.202534         1841.22         1719.44         1833.75 
       0.208729         1764.34         1647.29         1748.52 
       0.214876         1685.99         1567.86         1702.52 
       0.220989         1637.75         1484.23         1640.03 
       0.227147         1555.81         1400.73         1571.68 
        0.23329         1495.26         1323.64         1523.05 
       0.239377         1470.52         1257.15         1466.46 
       0.245482         1378.58         1201.62         1402.87 
       0.251667         1370.23         1155.53         1373.15 
       0.257832         1321.78         1116.81         1331.98 
       0.263955         1281.81         1081.84          1294.8 
       0.270079          1242.8         1047.03         1259.33 
        0.27624         1231.97         1010.17         1220.83 
       0.282372         1179.51         971.086         1190.11 
        0.28843         1166.41         931.015         1156.03 
       0.294538         1111.19         890.873         1126.08 
       0.300721         1107.74         852.389         1095.15 
        0.30691         1060.48         817.511         1075.58 
       0.313033         1041.35         787.169          1042.6 
       0.319153         1020.12         760.797         1016.95 
       0.325316         988.215         737.258         1001.91 
        0.33145         965.451         715.657          967.97 
       0.337538         954.171         694.817         950.597 
       0.343633         928.676         673.779         939.955 
       0.349808         900.017         651.949         922.286 
       0.355968         895.344         629.829         905.864 
       0.362074         882.573         608.096         885.731 
       0.368217         858.275         587.019         861.392 
       0.374374         825.102         567.263         846.578 
       0.380519         822.484         549.157         829.179 
       0.386598         804.456         532.853          817.98 
       0.392688         801.652         517.887         799.387 
        0.39888          778.62         503.638         788.799 
       0.405048         767.324         490.031         780.075 
       0.411186         755.251         476.722         761.215 
       0.417313         741.299          463.47         747.199 
       0.423458         730.179         450.257         736.427 
       0.429607         717.085           437.2         721.452 
       0.435692         702.453         424.638         709.446 
       0.441815         699.037          412.56         705.244 
       0.447964         684.161         401.113          693.09 
       0.454126          670.67         390.338          676.72 
       0.460267         660.388          380.27         674.386 
       0.466387         653.337         370.774         661.516 
        0.47254         642.226         361.604         654.247 
       0.478662         640.441         352.737         643.597 
       0.484765         623.331         344.089         632.486 
       0.490885         617.953          335.56         623.934 
       0.497035         606.225         327.135         618.141 
       0.503198         599.396         318.912         609.463 
       0.509342          593.85         310.999         601.819 
       0.515458         589.584         303.436         598.242 
       0.521598         577.813         296.168         588.996 
       0.527764         565.427         289.198         581.585 
       0.533884         564.807         282.587         575.079 
           0.54         557.552         276.232         567.998 
       0.546137         555.324          270.05         561.456 
       0.552299          545.44         263.997         554.066 
       0.558452         542.493         258.098         549.149 
       0.564573         533.662         252.375         544.504 
       0.570708         527.078         246.786         539.781 
       0.576825          515.78         241.366         530.643 
       0.582926         515.338         236.123         525.196 
       0.589034         510.283         231.048         518.285 
       0.595184         505.406          226.12         512.939 
       0.601379         500.029         221.338         509.526 
       0.607522         492.714         216.754         503.774 
       0.613639         491.957         212.325         499.889 
       0.619772         478.854         208.002         497.985 
       0.625918         478.123         203.778         491.892 
       0.632068         471.677         199.658         485.986 
       0.638161         469.876         195.684         480.713 
         0.6443         460.772         191.786         477.758 
       0.650464         458.596         187.983         470.093 
       0.656582         457.528         184.315         466.219 
       0.662703         453.658         180.746         464.706 
       0.668861         445.586         177.257          460.58 
       0.675024         442.069         173.861          456.43 
       0.681124         439.938         170.593          449.92 
       0.687237         435.294         167.406         446.154 
       0.693381         429.811         164.289         442.649 
       0.699536         425.264         161.247         439.816 
       0.705665         423.167         158.296         436.115 
       0.711789         419.142          155.42         432.077 
       0.717957         415.597         152.595         429.528 
        0.72409         412.047         149.855         426.357 
       0.730186         407.854         147.199         422.929 
       0.736317         404.523         144.592         418.322 
       0.742472         403.071          142.04         414.638 
       0.748622         398.736         139.554         411.271 
        0.75476         394.635         137.134         410.601 
       0.760888         390.041         134.777         405.618 
       0.767043          390.31         132.468         402.906 
       0.773185           384.9         130.219         399.884 
       0.779291         379.773         128.036         396.224 
       0.785407         378.134         125.901         393.737 
       0.791564         374.281         123.802         391.206 
       0.797719         371.814         121.753         388.189 
       0.803834         368.936         119.763         385.768 
       0.809972         366.501         117.811         383.006 
       0.816124         366.792         115.899         378.719 
       0.822261         360.416         114.034         376.649 
       0.828378         358.761         112.217         373.797 
       0.834502          356.87         110.438         372.094 
       0.840667         351.745         108.687         369.367 
       0.846816         350.639         106.979         366.922 
       0.852925         347.504          105.32         364.141 
       0.859047         346.433         103.692         361.634 
       0.865192          343.24         102.094         359.377 
       0.871341         340.138         100.529          356.91 
       0.877463         337.839         99.0048         354.809 
       0.883569         335.496         97.5162         352.684 
       0.889708         332.838          96.051         349.667 
       0.895864         328.906         94.6126          347.76 
       0.902008         328.456          93.207         345.243 
       0.908149         326.384         91.8313         342.198 
       0.914301         322.405         90.4814         340.725 
       0.920448         319.704         89.1603         337.547 
       0.926574          317.54         87.8706         335.588 
       0.932687         317.546         86.6094         332.867 
       0.938823         313.406         85.3688         332.434 
       0.944975         312.458         84.1499         330.468 
       0.951105          309.93         82.9596         327.796 
       0.957225         307.178         81.7945         325.697 
       0.963368         303.549         80.6482         323.097 
       0.969511         302.028         79.5241         321.098 
       0.975621         299.688         78.4277         320.339 
       0.981748         299.931         77.3494         317.867 
       0.987916         296.525         76.2848         316.432 
        0.99406         293.044         75.2445         314.571 
        1.00019         293.083         74.2258         311.596 
        1.00632          290.65         73.2272         309.489 
        1.01246         288.059         72.2457         307.585 
        1.01859         287.848          71.284         306.137 
        1.02471         284.508         70.3412         304.949 
        1.03085         281.653         69.4124         303.192 
        1.03698         280.856         68.5025         301.592 
        1.04314         278.546         67.6053         299.451 
        1.04929         276.307         66.7264          297.29 
        1.05541         275.434         65.8668         295.618 
        1.06154         272.567         65.0205         294.015 
        1.06769         271.645         64.1879         292.446 
        1.07382         269.883         63.3728         290.461 
        1.07993         267.772         62.5738         289.067 
        1.08607         266.841         61.7855         287.488 
        1.09222         264.723         61.0101         285.688 
        1.09836         262.248         60.2491         284.757 
        1.10449         259.844         59.5021         282.777 
        1.11063         258.034          58.767         280.945 
        1.11677         257.486         58.0448         279.369 
         1.1229         255.551         57.3362         278.135 
        1.12903         253.714         56.6389          276.74 
        1.13518         252.176         55.9527         274.963 
        1.14131         250.402         55.2784          273.48 
        1.14745         249.779         54.6157         271.956 
        1.15359         247.312         53.9639         270.389 
        1.15973         246.666         53.3226         268.766 
        1.16584         243.799         52.6946         266.655 
        1.17197          243.42          52.076         265.633 
        1.17811         241.264         51.4656         264.755 
        1.18424         239.745         50.8668         263.281 
        1.19038         238.824         50.2758         261.864 
        1.19652         237.055         49.6947         260.804 
        1.20267         235.979         49.1227         258.636 
        1.20881         234.099         48.5601         257.947 
        1.21495         232.353         48.0072         255.809 
        1.22108         231.534          47.463         254.818 
         1.2272         229.623         46.9287         252.741 
        1.23334         228.136         46.4015         251.876 
        1.23949         226.651         45.8812           251.2 
        1.24562         225.554         45.3704         249.394 
        1.25174         222.769         44.8682         248.478 
        1.25789         221.707         44.3722         247.046 
        1.26402         220.799         43.8846         245.404 
        1.27014         219.194         43.4056          244.75 
        1.27628          218.01         42.9323         243.879 
        1.28244         217.371         42.4653         242.035 
        1.28858         215.379         42.0059         240.681 
        1.29471         213.325         41.5544         239.342 
        1.30084         212.254           41.11         238.111 
        1.30697         210.892         40.6715          237.12 
        1.31312         209.735         40.2388         235.499 
        1.31925         208.945         39.8139         234.152 
        1.32537         207.605         39.3955         233.389 
        1.33151         205.824         38.9817         232.226 
        1.33765         204.718         38.5742         230.837 
        1.34378         203.565         38.1734         229.667 
        1.34992         202.357          37.778         228.391 
        1.35606         201.493         37.3875         227.012 
         1.3622         200.164         37.0032         226.002 
        1.36833         198.446         36.6252         225.007 
        1.37445         196.803         36.2528         223.487 
        1.38059         195.942         35.8845         222.802 
        1.38675         194.722         35.5205         221.609 
        1.39288         193.568          35.163         219.972 
        1.39901         193.246         34.8106         219.385 
        1.40515         191.631         34.4623         218.489 
         1.4113          189.71          34.119         217.136 
        1.41742         189.205         33.7817         216.133 
        1.42355         187.364         33.4483         215.426 
         1.4297         186.469         33.1185         214.133 
        1.43585         184.859         32.7933          213.02 
        1.44198         184.273         32.4738         211.938 
        1.44809         183.346         32.1591         210.824 
        1.45423         181.599         31.8475         209.733 
        1.46036         181.036         31.5407         208.725 
        1.46649         179.815         31.2378         208.034 
        1.47263         178.779         30.9387         207.347 
        1.47877         177.683         30.6436         205.971 
        1.48491         176.207          30.352         204.962 
        1.49104         175.599         30.0648         204.168 
        1.49718          173.63         29.7812         202.701 
        1.50333         173.012         29.5008         201.887 
        1.50947         172.124         29.2246         201.067 
         1.5156         170.941         28.9523         199.995 
        1.52172         169.861         28.6836         199.075 
        1.52787         168.736         28.4178         198.083 
          1.534         168.142         28.1556         197.044 
        1.54013         166.385         27.8971          196.21 
        1.54627         166.023         27.6414         195.402 
        1.55241         164.572         27.3889         194.405 
        1.55855         163.773         27.1399         193.289 
        1.56467         162.851         26.8947         192.353 
         1.5708         161.795         26.6519         191.786 
        1.57695         160.588         26.4117         190.884 
        1.58308         160.111         26.1751         189.706 
        1.58922         159.098         25.9412         188.872 
        1.59535          157.73         25.7103         188.017 
         1.6015          157.25         25.4819         187.033 
        1.60764         155.993         25.2564         186.126 
        1.61376         155.009         25.0343          185.47 
        1.61989         154.059         24.8147         184.769 
        1.62604         153.297         24.5973         183.748 
        1.63218         152.339         24.3826         182.835 
        1.63831         151.298          24.171         182.048 
        1.64444         150.536         23.9619          181.03 
        1.65059         149.753         23.7547         180.337 
        1.65673         148.601         23.5503         179.518 
        1.66285         148.095         23.3488         178.617 
        1.66898         147.105         23.1496          177.87 
        1.67512         146.274         22.9524         177.107 
        1.68127         145.122         22.7574         176.277 
         1.6874         143.676          22.565         175.546 
        1.69353         143.372          22.375         174.931 
        1.69967         142.573         22.1868          173.89 
        1.70581          141.68         22.0008         172.984 
        1.71193         140.733         21.8177         172.269 
        1.71806         139.964         21.6363         171.302 
        1.72421         139.302         21.4566         170.622 
        1.73035         138.188         21.2791         169.904 
        1.73649         137.655         21.1038         169.056 
        1.74262         136.733         20.9305         168.525 
        1.74876         136.156         20.7591         167.718 
        1.75489         134.753           20.59         166.776 
        1.76101         134.348         20.4228         166.004 
        1.76715         133.293         20.2573         165.258 
        1.77329         132.828         20.0934         164.496 
        1.77943          131.79         19.9313         163.749 
        1.78557         131.049         19.7713         163.063 
        1.79171         130.297         19.6129         162.486 
        1.79785         129.488         19.4563         161.824 
        1.80399         128.752         19.3014         160.932 
        1.81012         128.028         19.1485         160.149 
        1.81625         127.193         18.9973         159.549 
        1.82239         126.765         18.8475         158.942 
        1.82853           126.1         18.6994         158.192 
        1.83466         125.101          18.553         157.366 
        1.84078         124.573         18.4084         156.653 
        1.84692         123.514         18.2651         156.176 
        1.85306         122.843         18.1231         155.465 
         1.8592         121.864         17.9829         154.719 
        1.86533         121.341         17.8443         154.219 
        1.87147         120.357         17.7069         153.357 
