# k  (h/Mpc)    P(k)  (Mpc/h)^3    P_linear(k)  (Mpc/h)^3     P_NL(k)  ShotnoiseSubtracted = false
     0.00783031         8924.89         9038.23         9029.85 
       0.013688         12153.7         12079.5         12016.5 
       0.019231         13041.7         13046.8         12939.3 
      0.0249154         12566.1         12814.1         12688.8 
      0.0312784         11640.5         11787.9         11643.8 
      0.0375637         10487.8         10543.9         10393.4 
      0.0433917         9281.97         9490.34         9324.95 
      0.0492413         8531.76         8647.43         8479.89 
      0.0555754         7703.69         7976.39         7809.27 
      0.0619321         7414.18         7476.28         7303.41 
       0.067871         6829.01         7071.81         6900.44 
      0.0738098         6410.66         6654.33         6438.04 
      0.0800417         5859.59         6163.85          5953.1 
      0.0862327         5405.48         5630.16         5467.76 
      0.0921407         4974.93         5114.34         4961.11 
      0.0982031          4480.8         4624.42         4528.62 
       0.104506         4180.59         4195.59         4149.23 
       0.110769         3855.85         3866.72         3801.65 
       0.116806         3604.51         3634.02         3570.85 
       0.122832         3448.56         3461.23         3412.76 
       0.129052         3233.53         3313.94         3268.43 
       0.135211         3095.29         3169.88         3123.39 
       0.141259         2981.03         3011.74         2987.69 
       0.147318         2829.08         2832.12         2830.43 
       0.153489         2611.36         2635.28         2610.39 
       0.159709         2470.14         2438.45         2452.14 
       0.165845         2367.49         2261.71         2334.18 
       0.171974          2219.4         2113.24         2196.13 
       0.178125         2108.24         1995.64         2121.52 
       0.184229         2027.18         1906.19         2026.29 
        0.19034         1911.34          1835.2         1957.31 
       0.196428         1886.96         1772.54         1877.59 
       0.202534         1829.61          1708.6         1822.19 
       0.208729         1753.21          1636.9         1737.49 
       0.214876         1675.36         1557.97         1691.78 
       0.220989         1627.42         1474.87         1629.69 
       0.227147            1546         1391.89         1561.76 
        0.23329         1485.83         1315.29         1513.45 
       0.239377         1461.25         1249.22         1457.22 
       0.245482         1369.89         1194.04         1394.03 
       0.251667         1361.59         1148.24          1364.5 
       0.257832         1313.45         1109.76         1323.58 
       0.263955         1273.72         1075.01         1286.64 
       0.270079         1234.96         1040.43         1251.39 
        0.27624          1224.2          1003.8         1213.13 
       0.282372         1172.07         964.962         1182.61 
        0.28843         1159.06         925.144         1148.74 
       0.294538         1104.18         885.255         1118.98 
       0.300721         1100.76         847.013         1088.25 
        0.30691         1053.79         812.356          1068.8 
       0.313033         1034.78         782.203         1036.03 
       0.319153         1013.68         756.001         1010.53 
       0.325316         981.984         732.609         995.596 
        0.33145         959.363         711.144         961.866 
       0.337538         948.154         690.436         944.604 
       0.343633         922.819          669.53         934.028 
       0.349808         894.342         647.836         916.467 
       0.355968         889.698         625.858         900.153 
       0.362074         877.008         604.261         880.145 
       0.368217         852.863         583.317         855.959 
       0.374374         819.899         563.686         841.241 
       0.380519         817.297         545.692         823.948 
       0.386598         799.384         529.494         812.823 
       0.392688         796.597         514.621         794.346 
        0.39888          773.71         500.462         783.825 
       0.405048         762.485         486.941         775.156 
       0.411186         750.489         473.716         756.414 
       0.417313         736.625         460.548         742.487 
       0.423458         725.575         447.419         731.784 
       0.429607         712.563         434.443         716.902 
       0.435692         698.024          421.96         704.971 
       0.441815         694.629         409.959         700.798 
       0.447964         679.846         398.584          688.72 
       0.454126         666.441         387.875          672.45 
       0.460267         656.223         377.872         670.134 
       0.466387         649.217         368.436         657.345 
        0.47254         638.176         359.324         650.122 
       0.478662         636.403         350.513         639.538 
       0.484765         619.401          341.92         628.498 
       0.490885         614.057         333.444             620 
       0.497035         602.402         325.072         614.243 
       0.503198         595.616         316.902          605.62 
       0.509342         590.105         309.037         598.023 
       0.515458         585.867         301.523          594.47 
       0.521598          574.17           294.3         585.281 
       0.527764         561.861         287.374         577.918 
       0.533884         561.245         280.805         571.453 
           0.54         554.036          274.49         564.416 
       0.546137         551.822         268.348         557.917 
       0.552299         542.001         262.332         550.572 
       0.558452         539.072         256.471         545.686 
       0.564573         530.296         250.784         541.071 
       0.570708         523.754         245.229         536.377 
       0.576825         512.528         239.844         527.297 
       0.582926         512.089         234.634         521.884 
       0.589034         507.065          229.59         515.016 
       0.595184         502.219         224.694         509.704 
       0.601379         496.875         219.942         506.313 
       0.607522         489.607         215.387         500.597 
       0.613639         488.855         210.986         496.737 
       0.619772         475.834         206.691         494.845 
       0.625918         475.108         202.493          488.79 
       0.632068         468.703         198.399         482.922 
       0.638161         466.913          194.45         477.682 
         0.6443         457.866         190.577         474.745 
       0.650464         455.704         186.798         467.129 
       0.656582         454.643         183.152         463.279 
       0.662703         450.798         179.607         461.776 
       0.668861         442.776         176.139         457.675 
       0.675024         439.281         172.764         453.551 
       0.681124         437.164         169.517         447.083 
       0.687237         432.549         166.351         443.341 
       0.693381         427.101         163.253         439.858 
       0.699536         422.582          160.23         437.043 
       0.705665         420.499         157.298         433.365 
       0.711789         416.499          154.44         429.353 
       0.717957         412.976         151.633         426.819 
        0.72409         409.449          148.91         423.669 
       0.730186         405.282         146.271         420.262 
       0.736317         401.972         143.681         415.684 
       0.742472          400.53         141.145         412.024 
       0.748622         396.222         138.674         408.678 
        0.75476         392.146         136.269         408.012 
       0.760888         387.582         133.927         403.061 
       0.767043         387.849         131.632         400.366 
       0.773185         382.473         129.398         397.363 
       0.779291         377.378         127.229         393.726 
       0.785407          375.75         125.107         391.254 
       0.791564          371.92         123.022         388.739 
       0.797719          369.47         120.985         385.741 
       0.803834         366.609         119.008         383.335 
       0.809972          364.19         117.068         380.591 
       0.816124         364.479         115.168         376.331 
       0.822261         358.143         113.315         374.274 
       0.828378         356.498         111.509          371.44 
       0.834502          354.62         109.742         369.747 
       0.840667         349.527         108.002         367.037 
       0.846816         348.428         106.305         364.608 
       0.852925         345.313         104.656         361.845 
       0.859047         344.249         103.038         359.353 
       0.865192         341.076          101.45         357.111 
       0.871341         337.993         99.8954          354.66 
       0.877463         335.708         98.3805         352.571 
       0.883569          333.38         96.9013          350.46 
       0.889708         330.739         95.4453         347.462 
       0.895864         326.832          94.016         345.567 
       0.902008         326.385         92.6193         343.066 
       0.908149         324.326         91.2522          340.04 
       0.914301         320.372         89.9109         338.577 
       0.920448         317.688         88.5981         335.419 
       0.926574         315.538         87.3165         333.472 
       0.932687         315.544         86.0632         330.768 
       0.938823          311.43         84.8305         330.338 
       0.944975         310.487         83.6193         328.384 
       0.951105         307.976         82.4364         325.729 
       0.957225         305.241         81.2788         323.643 
       0.963368         301.635         80.1397          321.06 
       0.969511         300.124         79.0226         319.073 
       0.975621         297.798         77.9331         318.319 
       0.981748          298.04         76.8616         315.862 
       0.987916         294.655         75.8038         314.437 
        0.99406         291.196           74.77         312.588 
        1.00019         291.235         73.7578         309.631 
        1.00632         288.817         72.7655         307.538 
        1.01246         286.243         71.7901         305.646 
        1.01859         286.033         70.8345         304.207 
        1.02471         282.714         69.8976         303.026 
        1.03085         279.877         68.9747          301.28 
        1.03698         279.085         68.0705          299.69 
        1.04314          276.79          67.179         297.562 
        1.04929         274.565         66.3056         295.415 
        1.05541         273.698         65.4515         293.754 
        1.06154         270.849         64.6105         292.161 
        1.06769         269.932         63.7831         290.602 
        1.07382         268.181         62.9731         288.629 
        1.07993         266.084         62.1792         287.244 
        1.08607         265.159         61.3959         285.675 
        1.09222         263.054         60.6254         283.886 
        1.09836         260.595         59.8691         282.961 
        1.10449         258.205         59.1268         280.994 
        1.11063         256.407         58.3965         279.174 
        1.11677         255.862         57.6788         277.607 
         1.1229         253.939         56.9746         276.381 
        1.12903         252.114         56.2817         274.995 
        1.13518         250.586         55.5999         273.229 
        1.14131         248.823         54.9298         271.755 
        1.14745         248.204         54.2713         270.241 
        1.15359         245.752         53.6236         268.684 
        1.15973         245.111         52.9863         267.072 
        1.16584         242.262         52.3624         264.974 
        1.17197         241.885         51.7477         263.958 
        1.17811         239.743          51.141         263.086 
        1.18424         238.233          50.546         261.621 
        1.19038         237.318         49.9588         260.213 
        1.19652          235.56         49.3813          259.16 
        1.20267         234.491          48.813         257.005 
        1.20881         232.623         48.2538         256.321 
        1.21495         230.888         47.7044         254.196 
        1.22108         230.074         47.1637         253.211 
         1.2272         228.175         46.6328         251.147 
        1.23334         226.697         46.1089         250.288 
        1.23949         225.222         45.5919         249.616 
        1.24562         224.132         45.0843         247.821 
        1.25174         221.364         44.5853         246.912 
        1.25789         220.309         44.0924         245.488 
        1.26402         219.406         43.6079         243.856 
        1.27014         217.812         43.1319         243.207 
        1.27628         216.635         42.6616         242.341 
        1.28244         216.001         42.1975         240.509 
        1.28858          214.02          41.741         239.163 
        1.29471          211.98         41.2924         237.832 
        1.30084         210.916         40.8508         236.609 
        1.30697         209.562          40.415         235.625 
        1.31312         208.413         39.9851         234.014 
        1.31925         207.627         39.5628         232.675 
        1.32537         206.296         39.1471         231.918 
        1.33151         204.526         38.7359         230.762 
        1.33765         203.427          38.331         229.381 
        1.34378         202.281         37.9327         228.219 
        1.34992         201.081         37.5398         226.951 
        1.35606         200.222         37.1517          225.58 
         1.3622         198.902         36.7698         224.577 
        1.36833         197.194         36.3943         223.588 
        1.37445         195.562         36.0242         222.078 
        1.38059         194.706         35.6582         221.397 
        1.38675         193.494         35.2965         220.212 
        1.39288         192.347         34.9413         218.585 
        1.39901         192.027         34.5911         218.001 
        1.40515         190.423          34.245         217.111 
         1.4113         188.514         33.9038         215.767 
        1.41742         188.012         33.5687         214.771 
        1.42355         186.182         33.2374         214.067 
         1.4297         185.293         32.9097         212.783 
        1.43585         183.693         32.5865         211.677 
        1.44198         183.111          32.269         210.601 
        1.44809          182.19         31.9563         209.495 
        1.45423         180.454         31.6467          208.41 
        1.46036         179.895         31.3418         207.409 
        1.46649         178.681         31.0408         206.722 
        1.47263         177.652         30.7436          206.04 
        1.47877         176.562         30.4504         204.673 
        1.48491         175.096         30.1606          203.67 
        1.49104         174.492         29.8752         202.881 
        1.49718         172.535         29.5934         201.423 
        1.50333         171.921         29.3147         200.614 
        1.50947         171.038         29.0403         199.799 
         1.5156         169.863         28.7698         198.734 
        1.52172          168.79         28.5027          197.82 
        1.52787         167.672         28.2386         196.834 
          1.534         167.082         27.9781         195.802 
        1.54013         165.336         27.7212         194.973 
        1.54627         164.976         27.4671          194.17 
        1.55241         163.534         27.2162         193.179 
        1.55855         162.741         26.9687          192.07 
        1.56467         161.824         26.7251          191.14 
         1.5708         160.775         26.4838         190.577 
        1.57695         159.575         26.2452          189.68 
        1.58308         159.102           26.01          188.51 
        1.58922         158.095         25.7776         187.681 
        1.59535         156.735         25.5482         186.832 
         1.6015         156.258         25.3212         185.854 
        1.60764         155.009         25.0972         184.952 
        1.61376         154.032         24.8764           184.3 
        1.61989         153.088         24.6582         183.604 
        1.62604          152.33         24.4422          182.59 
        1.63218         151.379         24.2288         181.682 
        1.63831         150.344         24.0186           180.9 
        1.64444         149.586         23.8108         179.888 
        1.65059         148.809         23.6049           179.2 
        1.65673         147.664         23.4018         178.386 
        1.66285         147.161         23.2016         177.491 
        1.66898         146.178         23.0037         176.748 
        1.67512         145.351         22.8077          175.99 
        1.68127         144.207         22.6139         175.165 
         1.6874          142.77         22.4227         174.439 
        1.69353         142.468         22.2339         173.828 
        1.69967         141.674         22.0469         172.793 
        1.70581         140.787         21.8621         171.893 
        1.71193         139.846         21.6801         171.183 
        1.71806         139.081         21.4998         170.222 
        1.72421         138.424         21.3213         169.546 
        1.73035         137.317         21.1449         168.832 
        1.73649         136.787         20.9707          167.99 
        1.74262          135.87         20.7985         167.462 
        1.74876         135.297         20.6282         166.661 
        1.75489         133.903         20.4602         165.725 
        1.76101         133.501         20.2941         164.957 
        1.76715         132.452         20.1296         164.216 
        1.77329          131.99         19.9667         163.459 
        1.77943         130.958         19.8056         162.716 
        1.78557         130.223         19.6466         162.035 
        1.79171         129.475         19.4892         161.462 
        1.79785         128.672         19.3336         160.804 
        1.80399          127.94         19.1797         159.917 
        1.81012         127.221         19.0277         159.139 
        1.81625         126.391         18.8775         158.543 
        1.82239         125.965         18.7286          157.94 
        1.82853         125.305         18.5814         157.195 
        1.83466         124.312          18.436         156.374 
        1.84078         123.788         18.2923         155.666 
        1.84692         122.735         18.1499         155.191 
        1.85306         122.068         18.0088         154.485 
         1.8592         121.096         17.8695         153.743 
        1.86533         120.576         17.7317         153.246 
        1.87147         119.598         17.5953          152.39 
        1.87761         119.293         17.4602         151.575 
