# k  (h/Mpc)    P(k)  (Mpc/h)^3    P_linear(k)  (Mpc/h)^3     P_NL(k)  ShotnoiseSubtracted = false
     0.00783031         10745.9         10889.2         10877.3 
       0.013688         14654.5         14552.6         14469.6 
       0.019231         15706.3         15717.6         15575.3 
      0.0249154         15101.4           15437         15264.6 
      0.0312784         13991.1         14200.7         13995.5 
      0.0375637         12611.7         12701.9         12486.7 
      0.0433917         11139.2         11432.7         11194.3 
      0.0492413         10246.7         10417.2         10175.3 
      0.0555754         9227.36         9608.84          9368.4 
      0.0619321         8900.34         9006.36         8758.27 
       0.067871         8174.28         8519.11         8274.18 
      0.0738098         7673.28         8016.17         7707.58 
      0.0800417         7002.43         7425.32         7125.19 
      0.0862327         6465.94          6782.4         6550.71 
      0.0921407         5961.75         6161.01         5943.13 
      0.0982031          5372.1         5570.82         5433.12 
       0.104506         5025.08         5054.22         4986.37 
       0.110769         4636.86         4658.05         4566.11 
       0.116806         4340.28         4377.72         4288.18 
       0.122832         4148.62         4169.57         4100.29 
       0.129052         3883.25         3992.14          3927.9 
       0.135211         3717.33          3818.6         3751.84 
       0.141259         3584.85         3628.09         3593.95 
       0.147318         3405.49         3411.71          3406.4 
       0.153489         3142.62         3174.59         3139.77 
       0.159709          2979.2         2937.48         2955.68 
       0.165845         2866.24         2724.57         2822.29 
       0.171974         2692.16         2545.71         2659.98 
       0.178125         2558.89         2404.04         2576.37 
       0.184229         2457.87         2296.29            2459 
        0.19034          2324.9         2210.78         2377.33 
       0.196428         2293.71         2135.29         2282.21 
       0.202534         2219.43         2058.26         2216.77 
       0.208729         2131.05         1971.89         2112.63 
       0.214876         2044.27          1876.8          2059.3 
       0.220989         1984.73          1776.7         1988.93 
       0.227147         1893.74         1676.74         1912.19 
        0.23329         1821.91         1584.46         1855.07 
       0.239377         1797.06         1504.87         1787.02 
       0.245482         1687.58          1438.4         1712.16 
       0.251667         1679.71         1383.23         1677.58 
       0.257832         1618.81         1336.87         1628.72 
       0.263955         1569.57         1295.01         1585.35 
       0.270079         1522.24         1253.35         1543.11 
        0.27624         1508.91         1209.22         1497.64 
       0.282372         1445.36         1162.44         1464.59 
        0.28843         1438.54         1114.47         1426.81 
       0.294538         1371.09         1066.42          1389.5 
       0.300721         1366.15         1020.35         1350.68 
        0.30691          1311.6         978.602         1330.44 
       0.313033         1287.78         942.279         1291.53 
       0.319153         1268.26         910.715         1258.84 
       0.325316         1226.95         882.536         1242.18 
        0.33145         1200.83         856.678         1200.58 
       0.337538         1185.01         831.733         1181.81 
       0.343633         1157.28         806.548         1168.99 
       0.349808         1122.06         780.415         1148.27 
       0.355968         1115.94         753.939         1129.22 
       0.362074         1103.39         727.922         1105.66 
       0.368217          1071.8         702.691         1077.44 
       0.374374         1032.45         679.043         1059.82 
       0.380519         1032.65         657.367         1039.51 
       0.386598         1008.91         637.854         1026.02 
       0.392688         1004.99         619.937         1003.54 
        0.39888         977.071          602.88         991.623 
       0.405048         965.274         586.592         979.549 
       0.411186         951.451         570.661         958.247 
       0.417313         932.829         554.798         943.841 
       0.423458         919.025         538.982         929.519 
       0.429607         904.757         523.351          911.58 
       0.435692         887.593         508.313         896.379 
       0.441815         883.391         493.856         892.926 
       0.447964         863.742         480.153         878.825 
       0.454126         853.298         467.252         857.187 
       0.460267         837.207         455.203         855.826 
       0.466387         827.457         443.836         839.578 
        0.47254          817.95         432.859         830.536 
       0.478662         813.102         422.245         818.948 
       0.484765         792.892         411.893         807.284 
       0.490885         787.195         401.682         794.674 
       0.497035         770.879         391.597         787.818 
       0.503198         765.816         381.755         778.077 
       0.509342         757.227         372.281         766.627 
       0.515458         753.507         363.229         762.775 
       0.521598         737.334         354.528         753.775 
       0.527764         721.311         346.185         745.179 
       0.533884         722.364         338.271         736.848 
           0.54         713.464         330.664         728.546 
       0.546137          709.23         323.264         719.973 
       0.552299         698.626         316.018         710.412 
       0.558452         694.913         308.957         704.966 
       0.564573         684.059         302.106         698.838 
       0.570708         677.515         295.415         692.542 
       0.576825         659.752         288.927         682.089 
       0.582926         662.456         282.652         675.997 
       0.589034         656.346         276.575         666.172 
       0.595184         649.477         270.677         661.103 
       0.601379         641.858         264.953         656.041 
       0.607522         633.302         259.465         647.938 
       0.613639         634.169         254.164         644.558 
       0.619772         617.638          248.99         643.047 
       0.625918         615.699         243.933         634.692 
       0.632068         608.112         239.001         629.233 
       0.638161         606.049         234.243         619.861 
         0.6443         594.049         229.578         617.133 
       0.650464         592.486         225.026         607.762 
       0.656582         590.494         220.634         603.302 
       0.662703         585.998         216.363         600.696 
       0.668861         575.477         212.185         596.756 
       0.675024         571.448          208.12         592.332 
       0.681124         568.478         204.208         582.889 
       0.687237         563.277         200.394         578.409 
       0.693381         556.837         196.662         573.793 
       0.699536         548.428         193.021         570.052 
       0.705665         547.994         189.488         564.811 
       0.711789          543.02         186.046         560.045 
       0.717957          538.02         182.664         557.822 
        0.72409         534.806         179.384          553.14 
       0.730186         528.061         176.204          548.58 
       0.736317         524.516         173.085         543.001 
       0.742472         522.428          170.03          538.54 
       0.748622         516.504         167.053         534.413 
        0.75476         509.637         164.156           534.5 
       0.760888         504.621         161.335         527.883 
       0.767043         505.084         158.571         523.165 
       0.773185          498.75         155.879         519.748 
       0.779291         493.967         153.266         515.146 
       0.785407         490.181          150.71         512.297 
       0.791564         484.961         148.198         509.848 
       0.797719         482.537         145.744         504.894 
       0.803834         478.712         143.362         502.416 
       0.809972          475.77         141.026         499.412 
       0.816124         475.451         138.736         492.567 
       0.822261         467.829         136.505         490.301 
       0.828378         465.536         134.329         487.063 
       0.834502         461.347           132.2          485.25 
       0.840667         456.572         130.104         481.542 
       0.846816         454.744          128.06         478.289 
       0.852925         450.057         126.073         475.109 
       0.859047         450.215         124.125         471.303 
       0.865192         445.102         122.212         468.224 
       0.871341          441.41         120.339         465.734 
       0.877463         439.232         118.514         462.725 
       0.883569         435.402         116.732         459.737 
       0.889708         432.583         114.978         455.849 
       0.895864         428.598         113.256         453.475 
       0.902008         426.574         111.574         450.702 
       0.908149         423.268         109.927         446.579 
       0.914301         419.027         108.311         443.931 
       0.920448         416.014         106.729           440.8 
       0.926574         411.119         105.186         437.937 
       0.932687         411.496         103.676         435.015 
       0.938823         406.172         102.191          434.21 
       0.944975         406.474         100.732         430.948 
       0.951105         401.124         99.3068         427.158 
       0.957225         398.364         97.9122         425.651 
       0.963368         394.391           96.54          422.66 
       0.969511         392.624         95.1944         419.583 
       0.975621         389.499         93.8819         417.618 
       0.981748          388.65         92.5912         414.646 
       0.987916          385.43         91.3168         413.371 
        0.99406         379.309         90.0715         410.536 
        1.00019          379.02         88.8521         406.183 
        1.00632         376.607         87.6567         404.116 
        1.01246         373.381         86.4818         401.644 
        1.01859         373.462         85.3305         398.914 
        1.02471         368.383          84.202         397.715 
        1.03085         365.699         83.0901           396.1 
        1.03698         364.754          82.001         393.904 
        1.04314         361.236         80.9269         391.118 
        1.04929          357.77         79.8749         388.095 
        1.05541         357.214         78.8459         385.682 
        1.06154          352.52         77.8328         383.469 
        1.06769         350.565         76.8362         381.094 
        1.07382         348.795         75.8604         378.883 
        1.07993         346.414          74.904          377.09 
        1.08607         345.452         73.9603         374.378 
        1.09222          342.24         73.0322         372.064 
        1.09836          339.64         72.1212          371.11 
        1.10449         336.173          71.227         368.559 
        1.11063         333.544         70.3471         365.915 
        1.11677         332.991         69.4826         364.243 
         1.1229         331.063         68.6343         362.404 
        1.12903         327.839         67.7996         360.528 
        1.13518         325.172         66.9782         358.159 
        1.14131         323.667         66.1711         356.202 
        1.14745         321.783         65.3778         354.253 
        1.15359         319.243         64.5975         352.358 
        1.15973         317.552         63.8298         350.329 
        1.16584         314.911         63.0782         347.859 
        1.17197         314.147         62.3377         346.345 
        1.17811         311.157         61.6069         344.884 
        1.18424         308.475         60.8901         343.293 
        1.19038          307.01         60.1827           341.3 
        1.19652         304.624          59.487         339.534 
        1.20267          303.79         58.8024         336.761 
        1.20881         301.748         58.1288         335.533 
        1.21495          298.99          57.467         333.165 
        1.22108         297.503         56.8157         331.295 
         1.2272         295.451         56.1761         328.933 
        1.23334         293.188         55.5449         327.368 
        1.23949         292.017         54.9221         326.503 
        1.24562         289.998         54.3107         324.607 
        1.25174         286.886         53.7095         323.015 
        1.25789         284.901         53.1157         321.276 
        1.26402         283.752         52.5321         319.591 
        1.27014         281.475         51.9587         317.591 
        1.27628         279.888         51.3922         316.792 
        1.28244         278.982         50.8331         315.201 
        1.28858          276.11         50.2832          313.05 
        1.29471         273.638         49.7427         310.689 
        1.30084         272.704         49.2108         309.334 
        1.30697          270.67         48.6858         308.261 
        1.31312         268.358         48.1679         306.473 
        1.31925         268.295         47.6592          304.31 
        1.32537         266.581         47.1584         302.776 
        1.33151         263.731         46.6631         301.581 
        1.33765         261.991         46.1753         299.865 
        1.34378         260.963         45.6955          298.36 
        1.34992         259.137         45.2222         296.256 
        1.35606         258.501         44.7547          294.69 
         1.3622         256.326         44.2947         293.462 
        1.36833         254.102         43.8423          292.39 
        1.37445         252.621         43.3965         290.033 
        1.38059         250.299         42.9556         289.251 
        1.38675         249.614         42.5198         288.093 
        1.39288         247.278         42.0919         285.237 
        1.39901          246.75         41.6701         284.329 
        1.40515         244.726         41.2532         283.008 
         1.4113         243.007         40.8422          281.16 
        1.41742         241.837         40.4384         279.965 
        1.42355         239.383         40.0393         278.635 
         1.4297         238.223         39.6445         277.191 
        1.43585         236.611         39.2553         276.191 
        1.44198         235.173         38.8728         274.332 
        1.44809          234.15         38.4961         273.306 
        1.45423         231.881         38.1231         271.232 
        1.46036         231.227         37.7558         269.941 
        1.46649         228.992         37.3932          269.13 
        1.47263         227.487         37.0351         267.874 
        1.47877         226.432          36.682         266.048 
        1.48491         224.695         36.3329         264.672 
        1.49104         223.764         35.9891         263.543 
        1.49718         221.489         35.6496         262.276 
        1.50333         220.461         35.3139         261.251 
        1.50947         219.119         34.9833         260.066 
         1.5156         217.197         34.6574         258.414 
        1.52172         216.308         34.3357         256.671 
        1.52787         214.702         34.0175          255.75 
          1.534         213.797         33.7037         254.626 
        1.54013           211.8         33.3943         253.284 
        1.54627         211.217         33.0882          252.17 
        1.55241         209.156         32.7859         251.008 
        1.55855         207.984         32.4878         249.634 
        1.56467         206.619         32.1943         248.249 
         1.5708         206.222         31.9036         247.059 
        1.57695          203.85         31.6161         245.995 
        1.58308         203.121         31.3329          244.77 
        1.58922         201.138         31.0529         243.487 
        1.59535          199.83         30.7765         242.476 
         1.6015         199.403         30.5031         241.127 
        1.60764         197.681         30.2332         239.706 
        1.61376         195.921         29.9673         238.814 
        1.61989         195.059         29.7045          237.83 
        1.62604         193.991         29.4442         236.606 
        1.63218         192.675         29.1872         235.581 
        1.63831         191.563         28.9339          234.57 
        1.64444         190.467         28.6836         233.134 
        1.65059         188.809         28.4356          232.18 
        1.65673         187.995         28.1909         231.103 
        1.66285         186.877         27.9497         229.803 
        1.66898         185.542         27.7113         228.608 
        1.67512         184.994         27.4752         227.668 
        1.68127         182.763         27.2417         226.623 
         1.6874         181.724         27.0115         225.645 
        1.69353         180.981          26.784         224.886 
        1.69967         179.604         26.5587         223.512 
        1.70581         178.511         26.3361         222.329 
        1.71193         177.182         26.1169         221.393 
        1.71806         176.543         25.8997         220.054 
        1.72421         175.063         25.6846         219.227 
        1.73035         174.295         25.4722         218.244 
        1.73649         173.305         25.2623         216.972 
        1.74262         171.874         25.0549         216.352 
        1.74876         171.146         24.8497         215.381 
        1.75489         169.573         24.6473         214.196 
        1.76101         168.628         24.4472         213.264 
        1.76715         167.971          24.249         212.354 
        1.77329         167.072         24.0529          211.27 
        1.77943         165.831         23.8588         210.147 
        1.78557          164.73         23.6672         209.178 
        1.79171         163.643         23.4777         208.342 
        1.79785         162.468         23.2902         207.432 
        1.80399         161.566         23.1048         206.353 
        1.81012         160.488         22.9217         205.507 
        1.81625         159.814         22.7407         204.667 
        1.82239          158.56         22.5614         203.664 
        1.82853         157.952         22.3841           202.7 
        1.83466         156.758         22.2089         201.644 
        1.84078         155.932         22.0357         200.659 
        1.84692          154.52         21.8642         200.019 
        1.85306         154.041         21.6943         199.037 
         1.8592         152.684         21.5264         198.011 
        1.86533         151.807         21.3605         197.496 
        1.87147         150.769         21.1961         196.729 
        1.87761         150.362         21.0334         195.689 
