# k  (h/Mpc)    P(k)  (Mpc/h)^3    P_linear(k)  (Mpc/h)^3     P_NL(k)  ShotnoiseSubtracted = false
     0.00783031         206.245          207.88         207.686 
       0.013688         277.132         278.053         277.195 
       0.019231         300.095         300.418         299.118 
      0.0249154         293.887         295.111         294.213 
      0.0312784         271.177         271.511         271.132 
      0.0375637         243.131         242.875          242.69 
      0.0433917         218.482         218.616         218.609 
      0.0492413         199.362         199.206         199.236 
      0.0555754         183.469         183.752         183.735 
      0.0619321         172.606         172.234         172.183 
       0.067871         162.653         162.919         162.789 
      0.0738098         152.931         153.302         153.101 
      0.0800417         141.453         142.004         141.818 
      0.0862327          129.41          129.71         129.582 
      0.0921407         117.697         117.827         117.754 
      0.0982031         106.313          106.54         106.537 
       0.104506         96.8143         96.6612         96.7075 
       0.110769         89.1984         89.0849          89.117 
       0.116806         83.5503         83.7239         83.7259 
       0.122832         79.7553         79.7431         79.7395 
       0.129052         76.1348           76.35         76.3239 
       0.135211         72.7404         73.0312         72.9895 
       0.141259         69.2529         69.3879         69.3549 
       0.147318          65.271         65.2497         65.2453 
       0.153489         60.6304         60.7148         60.7031 
       0.159709         56.1372         56.1801         56.2089 
       0.165845         52.3259         52.1082         52.1934 
       0.171974         48.6719         48.6876         48.7747 
       0.178125         46.0035         45.9781         46.0971 
       0.184229         44.0235         43.9175         44.0352 
        0.19034         42.1652         42.2819           42.39 
       0.196428         40.8372         40.8382         40.9136 
       0.202534         39.5276         39.3651         39.4416 
       0.208729         37.7553         37.7132         37.7852 
       0.214876         35.8191         35.8947          36.002 
       0.220989         34.1529         33.9801         34.1054 
       0.227147         32.0296         32.0685         32.1997 
        0.23329         30.2925         30.3036         30.4693 
       0.239377           28.82         28.7814          28.968 
       0.245482          27.493         27.5101         27.6822 
       0.251667         26.5618         26.4549         26.6419 
       0.257832         25.6265         25.5684         25.7498 
       0.263955         24.8341         24.7678         24.9374 
       0.270079         24.0497         23.9709         24.1311 
        0.27624         23.2973          23.127         23.2779 
       0.282372         22.3909         22.2323         22.3959 
        0.28843         21.4044         21.3149         21.4859 
       0.294538         20.5052         20.3959         20.5801 
       0.300721          19.708         19.5148         19.7161 
        0.30691         18.8372         18.7163         18.9222 
       0.313033         18.1603         18.0216          18.225 
       0.319153          17.428         17.4179         17.6347 
       0.325316         17.0653          16.879         17.1022 
        0.33145         16.5347         16.3844         16.5935 
       0.337538         16.0494         15.9073          16.109 
       0.343633         15.5398         15.4257          15.626 
       0.349808         15.0701         14.9259         15.1335 
       0.355968         14.5749         14.4195         14.6533 
       0.362074         14.0681         13.9219         14.1471 
       0.368217         13.5972         13.4394         13.6484 
       0.374374         13.0966         12.9871          13.214 
       0.380519         12.7347         12.5725          12.793 
       0.386598         12.3751         12.1993         12.4274 
       0.392688         12.0578         11.8566         12.0833 
        0.39888         11.7087         11.5304         11.7536 
       0.405048         11.4082         11.2189         11.4307 
       0.411186          11.117         10.9142         11.1474 
       0.417313         10.7706         10.6108         10.8346 
       0.423458         10.4965         10.3083         10.5366 
       0.429607         10.1713         10.0094         10.2313 
       0.435692         9.88355         9.72178         9.95326 
       0.441815         9.61903         9.44529         9.69009 
       0.447964         9.40272         9.18321         9.42083 
       0.454126         9.10365         8.93648         9.17061 
       0.460267         8.87264         8.70603         8.94584 
       0.466387         8.63519         8.48862         8.71867 
        0.47254         8.44667         8.27869         8.51092 
       0.478662         8.25631         8.07568         8.30383 
       0.484765         8.04018          7.8777          8.1083 
       0.490885         7.84429         7.68241         7.92817 
       0.497035         7.69995         7.48954         7.73687 
       0.503198         7.49127         7.30129         7.53066 
       0.509342         7.32002         7.12009         7.35621 
       0.515458         7.12743         6.94697         7.19353 
       0.521598         6.96989         6.78057         7.00988 
       0.527764         6.79349         6.62099          6.8497 
       0.533884          6.6686         6.46964         6.69991 
           0.54         6.51524         6.32415         6.55042 
       0.546137         6.38414         6.18263         6.41356 
       0.552299         6.24188         6.04404         6.26116 
       0.558452         6.07842         5.90899         6.12932 
       0.564573         5.96802         5.77796         6.01454 
       0.570708         5.84284         5.64999          5.8821 
       0.576825         5.70179         5.52591         5.75429 
       0.582926          5.6002         5.40589         5.63801 
       0.589034          5.4429         5.28967         5.52784 
       0.595184         5.34404         5.17687         5.39517 
       0.601379         5.23312         5.06739         5.30016 
       0.607522          5.1456         4.96243         5.19172 
       0.613639         5.06305         4.86104         5.08742 
       0.619772         4.93387         4.76208         4.99522 
       0.625918         4.84998         4.66537         4.89051 
       0.632068         4.76897         4.57105          4.7933 
       0.638161         4.66037         4.48005         4.70104 
         0.6443         4.56757         4.39082         4.60832 
       0.650464          4.4672         4.30376         4.52947 
       0.656582         4.40229         4.21976         4.44218 
       0.662703           4.321         4.13807         4.35777 
       0.668861         4.25069         4.05817         4.28408 
       0.675024         4.15804         3.98043         4.20076 
       0.681124         4.07452         3.90561         4.12324 
       0.687237         4.01548         3.83266         4.04281 
       0.693381         3.94598         3.76129         3.96681 
       0.699536         3.84668         3.69165         3.89948 
       0.705665         3.78623         3.62408         3.84393 
       0.711789         3.72829         3.55825         3.77465 
       0.717957         3.65556         3.49357         3.70327 
        0.72409         3.59551         3.43084         3.64083 
       0.730186         3.53373         3.37002         3.57432 
       0.736317         3.49054         3.31035         3.51315 
       0.742472         3.42891         3.25192         3.46562 
       0.748622         3.36456         3.19499         3.40747 
        0.75476         3.29316         3.13959         3.34331 
       0.760888         3.24324         3.08563         3.29114 
       0.767043         3.20747         3.03277         3.24013 
       0.773185         3.14094         2.98128         3.19073 
       0.779291         3.09581         2.93131         3.13926 
       0.785407         3.04647         2.88243         3.08712 
       0.791564         2.99771         2.83438         3.03897 
       0.797719         2.95596         2.78745         2.98452 
       0.803834         2.91093          2.7419         2.94134 
       0.809972          2.8652          2.6972         2.90187 
       0.816124         2.81322         2.65342         2.85086 
       0.822261         2.76459         2.61074          2.8071 
       0.828378         2.73089         2.56914          2.7649 
       0.834502         2.69592         2.52841         2.72044 
       0.840667         2.64116         2.48832         2.68236 
       0.846816         2.60263         2.44922         2.64972 
       0.852925         2.57491         2.41123         2.60715 
       0.859047         2.53594         2.37397         2.57434 
       0.865192         2.49661         2.33738         2.53331 
       0.871341         2.45941         2.30155         2.49501 
       0.877463         2.43268         2.26665         2.45765 
       0.883569         2.38794         2.23257         2.42626 
       0.889708         2.35155         2.19903         2.39181 
       0.895864         2.32078         2.16609         2.35643 
       0.902008         2.28319         2.13392         2.32348 
       0.908149         2.25269         2.10242         2.29332 
       0.914301         2.21099         2.07151           2.258 
       0.920448         2.18451         2.04127         2.22576 
       0.926574         2.15244         2.01174         2.19745 
       0.932687         2.12528         1.98287         2.16305 
       0.938823         2.10428         1.95446         2.14276 
       0.944975         2.07263         1.92656         2.10562 
       0.951105          2.0463         1.89931         2.07832 
       0.957225         2.02612         1.87263         2.05621 
       0.963368         1.99547         1.84639         2.02583 
       0.969511         1.96424         1.82065         1.99996 
       0.975621         1.93389         1.79555         1.96773 
       0.981748         1.91748         1.77087         1.94426 
       0.987916         1.89032         1.74649         1.92531 
        0.99406         1.86147         1.72267         1.90151 
        1.00019         1.84342         1.69935         1.87734 
        1.00632         1.81345         1.67649          1.8507 
        1.01246         1.79143         1.65402         1.82631 
        1.01859         1.77198           1.632         1.80531 
        1.02471         1.74687         1.61042         1.78365 
        1.03085         1.73028         1.58915          1.7574 
        1.03698         1.70402         1.56832          1.7352 
        1.04314         1.68528         1.54778         1.71593 
        1.04929         1.66159         1.52766         1.69513 
        1.05541         1.64459         1.50798         1.67711 
        1.06154         1.62174          1.4886         1.65682 
        1.06769         1.60121         1.46954         1.63612 
        1.07382         1.58448         1.45088         1.61673 
        1.07993         1.55994         1.43259          1.5974 
        1.08607         1.54949         1.41454         1.57914 
        1.09222         1.52656         1.39679         1.55868 
        1.09836         1.51527         1.37936         1.54253 
        1.10449         1.49613         1.36226         1.52465 
        1.11063         1.47322         1.34543         1.50458 
        1.11677         1.45467          1.3289         1.48982 
         1.1229         1.43962         1.31268         1.47313 
        1.12903         1.42101         1.29671         1.45574 
        1.13518         1.40978           1.281         1.43986 
        1.14131         1.38917         1.26556         1.42407 
        1.14745         1.36609         1.25039         1.40535 
        1.15359         1.35818         1.23547         1.39155 
        1.15973         1.33668         1.22079         1.37754 
        1.16584         1.33143         1.20641         1.36066 
        1.17197         1.31271         1.19225         1.34591 
        1.17811         1.29906         1.17827         1.33294 
        1.18424         1.28986         1.16456         1.31587 
        1.19038         1.27055         1.15103         1.30244 
        1.19652         1.25404         1.13773         1.28952 
        1.20267         1.24561         1.12463         1.27214 
        1.20881          1.2276         1.11175         1.26135 
        1.21495         1.21884         1.09909         1.25102 
        1.22108         1.20548         1.08664         1.23507 
         1.2272          1.1946          1.0744         1.22018 
        1.23334         1.17907         1.06233         1.20905 
        1.23949         1.16604         1.05042         1.19868 
        1.24562         1.15549         1.03873         1.18584 
        1.25174         1.14316         1.02723         1.17171 
        1.25789          1.1326         1.01587         1.15941 
        1.26402         1.11627         1.00471          1.1479 
        1.27014         1.10571        0.993744         1.13633 
        1.27628         1.09863        0.982909         1.12462 
        1.28244         1.08175        0.972217         1.11332 
        1.28858          1.0729        0.961699         1.10031 
        1.29471         1.06457        0.951362         1.09083 
        1.30084           1.051        0.941188         1.08269 
        1.30697         1.04093        0.931149         1.07103 
        1.31312         1.02588        0.921243         1.05999 
        1.31925         1.01935        0.911514         1.05088 
        1.32537         1.01062        0.901936         1.04081 
        1.33151         1.00186        0.892463         1.03047 
        1.33765        0.990853        0.883133          1.0205 
        1.34378        0.978103        0.873956         1.01125 
        1.34992         0.97211        0.864904         1.00193 
        1.35606        0.960636        0.855963        0.990228 
         1.3622        0.952392        0.847165        0.981349 
        1.36833        0.942663        0.838512        0.973305 
        1.37445        0.930883        0.829986         0.96472 
        1.38059        0.922283        0.821554         0.95472 
        1.38675        0.920543         0.81322        0.945629 
        1.39288        0.907166        0.805035        0.936598 
        1.39901        0.899197        0.796968        0.928703 
        1.40515        0.891511        0.788994        0.919475 
         1.4113        0.881103        0.781133         0.91183 
        1.41742        0.873158        0.773411        0.905839 
        1.42355        0.869133        0.765779        0.893905 
         1.4297        0.857111        0.758228         0.88831 
        1.43585        0.850548        0.750783        0.880122 
        1.44198        0.846035        0.743467        0.868909 
        1.44809        0.834198        0.736264        0.864942 
        1.45423        0.827597         0.72913        0.853943 
        1.46036        0.819944        0.722104        0.847575 
        1.46649        0.813286         0.71517        0.842321 
        1.47263        0.804644        0.708322        0.833997 
        1.47877         0.79676        0.701567        0.826412 
        1.48491        0.790468         0.69489        0.820399 
        1.49104        0.781981        0.688316        0.811333 
        1.49718        0.776951        0.681822        0.806411 
        1.50333        0.770104        0.675402        0.796831 
        1.50947         0.76346        0.669078        0.789701 
         1.5156        0.756221        0.662846        0.784926 
        1.52172        0.749571        0.656693         0.77712 
        1.52787        0.742567        0.650607        0.770388 
          1.534        0.737303        0.644606        0.764893 
        1.54013        0.728227        0.638687        0.758332 
        1.54627        0.723545        0.632833        0.751429 
        1.55241        0.716732        0.627052        0.745084 
        1.55855        0.709368        0.621351        0.739097 
        1.56467        0.706782        0.615738        0.733796 
         1.5708        0.698641        0.610178        0.726575 
        1.57695        0.694052         0.60468        0.720031 
        1.58308        0.687455        0.599262        0.715628 
        1.58922        0.682109        0.593908        0.709897 
        1.59535        0.676058        0.588622        0.703465 
         1.6015        0.670347        0.583393        0.696954 
        1.60764        0.665205         0.57823        0.692339 
        1.61376        0.657822        0.573145        0.688542 
        1.61989        0.654181        0.568118        0.682348 
        1.62604        0.648918         0.56314         0.67655 
        1.63218        0.644411        0.558225        0.671493 
        1.63831        0.638311        0.553381        0.666155 
        1.64444        0.632814        0.548592        0.660277 
        1.65059        0.627847         0.54385        0.654896 
        1.65673        0.622754        0.539169        0.650278 
        1.66285        0.617856        0.534557        0.645451 
        1.66898        0.613635        0.529997        0.639854 
        1.67512        0.607162        0.525482        0.634886 
        1.68127        0.602428        0.521016        0.630472 
         1.6874        0.599283        0.516613        0.626068 
        1.69353        0.593313        0.512263        0.621092 
        1.69967        0.589665        0.507953        0.615644 
        1.70581         0.58392        0.503695        0.611066 
        1.71193         0.57964        0.499503        0.607001 
        1.71806        0.574746        0.495349        0.602102 
        1.72421         0.57125        0.491235        0.598194 
        1.73035        0.565965        0.487173         0.59358 
        1.73649        0.562814        0.483158        0.587885 
        1.74262           0.558        0.479192        0.583632 
        1.74876        0.553324        0.475267        0.580327 
        1.75489        0.549545        0.471396        0.576303 
        1.76101        0.543898        0.467569        0.571422 
        1.76715        0.540614        0.463779         0.56763 
        1.77329        0.536292        0.460027        0.563989 
        1.77943        0.532256        0.456316         0.55973 
        1.78557        0.528758        0.452651        0.555094 
        1.79171        0.524612        0.449026        0.550542 
        1.79785        0.520678         0.44544         0.54677 
        1.80399        0.516607        0.441895        0.543551 
        1.81012        0.513293        0.438393        0.538411 
        1.81625        0.508951        0.434931        0.534212 
        1.82239        0.506119        0.431501         0.53198 
        1.82853        0.500422        0.428111        0.528702 
        1.83466        0.498024         0.42476        0.524419 
        1.84078        0.493906        0.421449        0.520304 
        1.84692        0.490789        0.418168        0.517238 
        1.85306        0.487441        0.414918        0.513183 
         1.8592        0.483583        0.411708         0.50885 
        1.86533        0.480603        0.408534        0.505926 
        1.87147        0.476766         0.40539        0.502691 
        1.87761        0.474239        0.402278        0.499427 
