# k  (h/Mpc)    P(k)  (Mpc/h)^3    P_linear(k)  (Mpc/h)^3     P_NL(k)  ShotnoiseSubtracted = false
     0.00783031         1110.06         1119.95         1119.24 
       0.013688         1496.46         1497.54         1492.64 
       0.019231         1617.38         1617.81         1610.06 
      0.0249154         1578.45         1589.13         1583.23 
      0.0312784         1458.53         1461.99         1458.43 
      0.0375637         1309.42         1307.77         1304.88 
      0.0433917         1172.99         1177.13         1174.99 
      0.0492413         1072.32          1072.6         1070.69 
      0.0555754         983.317         989.389         987.213 
      0.0619321         930.506         927.367         925.046 
       0.067871         872.655         877.205         874.487 
      0.0738098         820.088         825.427          821.77 
      0.0800417         756.864         764.592         761.081 
      0.0862327          693.79         698.394         695.826 
      0.0921407         632.215         634.412         632.233 
      0.0982031         570.198         573.641         572.643 
       0.104506          522.08         520.448         520.436 
       0.110769          481.01         479.655         479.206 
       0.116806         449.282         450.789         450.265 
       0.122832         430.018         429.356          429.08 
       0.129052         408.877         411.086         410.739 
       0.135211         390.565         393.217         392.875 
       0.141259         372.979           373.6          373.58 
       0.147318         352.337         351.319         351.944 
       0.153489         326.618         326.902         326.947 
       0.159709         303.411         302.486         303.358 
       0.165845         284.624         280.562         282.799 
       0.171974         264.101         262.144         264.388 
       0.178125         250.109         247.556         250.729 
       0.184229         239.894         236.461         239.716 
        0.19034         228.136         227.655         230.818 
       0.196428         222.302         219.882         222.348 
       0.202534         216.065          211.95         214.578 
       0.208729         206.007         203.056         205.555 
       0.214876         194.909         193.264         196.708 
       0.220989         187.412         182.956         186.772 
       0.227147         175.063         172.663         176.569 
        0.23329         166.178         163.161         167.941 
       0.239377         159.116         154.965         160.234 
       0.245482         150.856          148.12         152.997 
       0.251667         146.962         142.439         147.767 
       0.257832         142.016         137.665         142.908 
       0.263955         137.473         133.355         138.374 
       0.270079         133.306         129.064         133.906 
        0.27624         129.959          124.52         129.142 
       0.282372         124.933         119.703         124.597 
        0.28843         119.535         114.764          119.78 
       0.294538         114.718         109.815         115.182 
       0.300721         111.259         105.072         110.882 
        0.30691         106.181         100.772         106.717 
       0.313033          102.69         97.0319         102.877 
       0.319153         98.1028         93.7816         99.9575 
       0.325316         96.6909         90.8798         97.2554 
        0.33145         93.5167         88.2171         94.2434 
       0.337538         91.2836         85.6484         91.5213 
       0.343633         88.4089          83.055         89.0034 
       0.349808         85.9237         80.3639         86.4771 
       0.355968           83.37         77.6375         84.2532 
       0.362074         80.6798         74.9584         81.4434 
       0.368217         78.2745         72.3603         78.5016 
       0.374374         75.6967         69.9251         76.4372 
       0.380519          73.751         67.6929         74.0923 
       0.386598         71.7787         65.6836         72.1899 
       0.392688         70.2825         63.8385         70.4122 
        0.39888         68.3299         62.0821         68.4871 
       0.405048         66.8261         60.4049         66.7234 
       0.411186         65.3735         58.7643         65.4804 
       0.417313          63.211         57.1308         63.5414 
       0.423458         61.7167         55.5022          62.043 
       0.429607         59.9968         53.8926         60.3385 
       0.435692         58.2246          52.344         58.9633 
       0.441815          57.183         50.8553          57.779 
       0.447964         56.2174         49.4442         56.1885 
       0.454126         54.1139         48.1158          54.766 
       0.460267         53.0838          46.875         53.6868 
       0.466387         51.6127         45.7044          52.348 
        0.47254         50.8761         44.5741         51.3036 
       0.478662         49.9393         43.4811         50.1369 
       0.484765         48.6282         42.4151          49.026 
       0.490885         47.5109         41.3636          48.248 
       0.497035         46.8552         40.3251         47.2693 
       0.503198         45.6919         39.3116         45.9847 
       0.509342         44.5577          38.336         45.1456 
       0.515458         43.6225         37.4039         44.4531 
       0.521598         42.8945         36.5079         43.2085 
       0.527764         41.9944         35.6487           42.23 
       0.533884         41.2653         34.8338         41.4524 
           0.54         40.4645         34.0505          40.637 
       0.546137         39.7829         33.2885         40.0078 
       0.552299         39.1397         32.5423         39.0501 
       0.558452         37.9464         31.8152         38.3027 
       0.564573         37.4617         31.1097         37.8172 
       0.570708         36.8679         30.4207          37.082 
       0.576825           35.92         29.7526         36.3838 
       0.582926          35.336         29.1064         35.7854 
       0.589034          34.372         28.4806         35.2212 
       0.595184         33.9286         27.8733         34.3926 
       0.601379         33.3452         27.2838         33.9752 
       0.607522         32.7806         26.7187         33.2857 
       0.613639         32.4598         26.1728         32.7083 
       0.619772         31.6276           25.64         32.2355 
       0.625918         31.4435         25.1193         31.7115 
       0.632068         30.9247         24.6114         31.1004 
       0.638161         30.2651         24.1214         30.5854 
         0.6443         29.6733         23.6411         30.0373 
       0.650464         29.1477         23.1723         29.6764 
       0.656582         28.9563           22.72         29.1926 
       0.662703         28.4349         22.2802         28.6838 
       0.668861         27.9223           21.85         28.3274 
       0.675024         27.4288         21.4314         27.7802 
       0.681124         26.9754         21.0286         27.3679 
       0.687237         26.5566         20.6358         26.8748 
       0.693381         26.2909         20.2515         26.4819 
       0.699536         25.6165         19.8765         26.1183 
       0.705665         25.4506         19.5128         25.8512 
       0.711789         24.9798         19.1583          25.383 
       0.717957         24.6361         18.8101          24.994 
        0.72409         24.2559         18.4723         24.6893 
       0.730186         23.9534         18.1449         24.2839 
       0.736317         23.6943         17.8236         23.9359 
       0.742472         23.3109          17.509         23.7446 
       0.748622         23.0166         17.2025         23.3291 
        0.75476         22.5577         16.9042         22.9743 
       0.760888           22.33         16.6137         22.7016 
       0.767043         22.0552          16.329         22.4516 
       0.773185         21.6346         16.0518           22.15 
       0.779291         21.4995         15.7827         21.8799 
       0.785407          21.198         15.5196         21.5596 
       0.791564          20.827         15.2608         21.2936 
       0.797719         20.4848         15.0082         20.9633 
       0.803834         20.3808         14.7629         20.6826 
       0.809972         20.2004         14.5223         20.5314 
       0.816124         19.7267         14.2865         20.1922 
       0.822261          19.564         14.0567         19.9265 
       0.828378          19.329         13.8327         19.6954 
       0.834502         19.1307         13.6135         19.5005 
       0.840667         18.8638         13.3976         19.2191 
       0.846816         18.5475         13.1871         19.0273 
       0.852925         18.3831         12.9825          18.881 
       0.859047         18.1708         12.7819         18.5856 
       0.865192         18.0143         12.5849         18.3644 
       0.871341         17.8456          12.392         18.1946 
       0.877463         17.5522         12.2041         17.9443 
       0.883569         17.2923         12.0206         17.7805 
       0.889708         17.0333           11.84         17.5569 
       0.895864         16.9476         11.6627          17.335 
       0.902008         16.7828         11.4894         17.1758 
       0.908149         16.5933         11.3198         16.9868 
       0.914301         16.4157         11.1534         16.8457 
       0.920448         16.1287         10.9906         16.5814 
       0.926574         15.9826         10.8316         16.4243 
       0.932687         15.8425         10.6761         16.1757 
       0.938823         15.6273         10.5232         16.0711 
       0.944975         15.4302          10.373         15.8798 
       0.951105         15.3162         10.2262         15.6713 
       0.957225         15.2007         10.0826         15.6049 
       0.963368          15.009         9.94132         15.3935 
       0.969511         14.8791         9.80275         15.2647 
       0.975621          14.719          9.6676         15.0553 
       0.981748         14.5571         9.53469         14.9285 
       0.987916         14.4317         9.40345         14.7886 
        0.99406         14.2271         9.27522         14.6419 
        1.00019         14.0118         9.14965         14.5257 
        1.00632         14.0092         9.02655         14.3714 
        1.01246         13.8492         8.90557         14.2723 
        1.01859         13.6462         8.78702         14.0862 
        1.02471         13.5581          8.6708         13.9139 
        1.03085         13.4358         8.55631         13.8039 
        1.03698         13.2346         8.44415         13.6914 
        1.04314         13.1531         8.33355         13.5406 
        1.04929         12.9773         8.22521         13.4304 
        1.05541         12.8493         8.11926         13.3198 
        1.06154         12.7403         8.01493         13.1857 
        1.06769          12.689          7.9123         13.0799 
        1.07382          12.494         7.81182         12.9632 
        1.07993          12.402         7.71333          12.843 
        1.08607         12.2983         7.61616         12.7011 
        1.09222         12.1829         7.52058         12.5894 
        1.09836         12.0534         7.42677         12.4651 
        1.10449         11.9524         7.33468         12.3606 
        1.11063         11.8536         7.24408          12.263 
        1.11677         11.7648         7.15506         12.1546 
         1.1229         11.6683          7.0677         12.0627 
        1.12903          11.554         6.98175         11.9905 
        1.13518         11.4212         6.89717         11.8805 
        1.14131         11.3132         6.81405         11.7525 
        1.14745         11.2071         6.73236         11.6213 
        1.15359         11.1402         6.65201         11.5515 
        1.15973         11.0489         6.57296         11.4596 
        1.16584          10.897         6.49555         11.4008 
        1.17197         10.8267          6.4193         11.2824 
        1.17811         10.7639         6.34405         11.1761 
        1.18424         10.6798         6.27023         11.0946 
        1.19038         10.6151         6.19739         11.0021 
        1.19652         10.5082         6.12575         10.9295 
        1.20267         10.3778         6.05525         10.8074 
        1.20881          10.353         5.98589         10.7632 
        1.21495         10.2644         5.91773           10.67 
        1.22108         10.1445         5.85066         10.5895 
         1.2272         10.0939          5.7848         10.4785 
        1.23334         9.96465         5.71981         10.4156 
        1.23949         9.89862         5.65567         10.3508 
        1.24562         9.85302         5.59271         10.2573 
        1.25174         9.75208         5.53081         10.1765 
        1.25789         9.68777         5.46966         10.0987 
        1.26402         9.62703         5.40956          10.002 
        1.27014         9.54162         5.35051         9.94566 
        1.27628         9.45035         5.29217         9.88901 
        1.28244         9.35227          5.2346         9.81912 
        1.28858         9.33498         5.17798          9.7326 
        1.29471         9.23935         5.12232         9.66209 
        1.30084         9.15082         5.06754         9.61048 
        1.30697         9.15153         5.01349         9.52795 
        1.31312         8.98389         4.96015         9.46912 
        1.31925          8.9527         4.90777         9.41258 
        1.32537         8.88261          4.8562         9.34595 
        1.33151         8.84967         4.80519         9.27468 
        1.33765         8.74596         4.75496         9.19334 
        1.34378         8.67707         4.70555         9.15015 
        1.34992         8.63198         4.65681         9.08103 
        1.35606         8.56221         4.60867         8.99227 
         1.3622         8.51432          4.5613         8.94202 
        1.36833         8.45065         4.51471         8.91437 
        1.37445         8.39625         4.46881         8.83855 
        1.38059         8.36019         4.42341         8.77101 
        1.38675         8.28196         4.37853         8.71507 
        1.39288         8.22096         4.33447         8.66068 
        1.39901         8.13919         4.29103         8.61058 
        1.40515         8.10965          4.2481         8.54965 
         1.4113         8.05611         4.20577         8.49033 
        1.41742         7.99665         4.16419         8.43954 
        1.42355         7.92745          4.1231         8.37195 
         1.4297         7.86259         4.08245         8.33371 
        1.43585         7.84052         4.04236         8.29064 
        1.44198         7.81128         4.00297         8.21227 
        1.44809         7.72157         3.96419         8.18452 
        1.45423         7.66512         3.92578          8.1209 
        1.46036         7.61981         3.88795         8.06927 
        1.46649         7.55744         3.85061         8.02915 
        1.47263         7.50226         3.81374         7.98132 
        1.47877         7.45565         3.77737         7.92524 
        1.48491         7.41092         3.74142         7.87647 
        1.49104         7.37162         3.70602         7.82471 
        1.49718         7.32278         3.67106         7.78139 
        1.50333         7.27763         3.63649         7.74135 
        1.50947         7.22478         3.60245         7.69487 
         1.5156         7.18391         3.56889         7.64732 
        1.52172         7.14353         3.53576         7.60113 
        1.52787         7.09877           3.503          7.5452 
          1.534         7.04387         3.47068          7.4995 
        1.54013         7.01539         3.43882         7.46068 
        1.54627         6.94694          3.4073         7.42283 
        1.55241         6.90963         3.37617         7.37882 
        1.55855         6.88159         3.34547         7.32308 
        1.56467         6.82811         3.31525         7.29671 
         1.5708         6.79322         3.28532         7.26061 
        1.57695           6.734         3.25571         7.20921 
        1.58308         6.69305         3.22654         7.17603 
        1.58922         6.67188         3.19772         7.13886 
        1.59535         6.63571         3.16925         7.09173 
         1.6015         6.58515          3.1411         7.04629 
        1.60764         6.54344          3.1133         7.01529 
        1.61376         6.50584         3.08593         6.98729 
        1.61989          6.4748         3.05886         6.94528 
        1.62604          6.4251         3.03205         6.90193 
        1.63218         6.40733         3.00559         6.86795 
        1.63831         6.36758         2.97951         6.83345 
        1.64444         6.32886         2.95373         6.78738 
        1.65059         6.26339         2.92819         6.75377 
        1.65673         6.24896         2.90299         6.71952 
        1.66285          6.1918         2.87816         6.68383 
        1.66898         6.17277         2.85361         6.65113 
        1.67512         6.13432          2.8293         6.61727 
        1.68127         6.10161         2.80525         6.58593 
         1.6874         6.07266         2.78154         6.55162 
        1.69353         6.02635         2.75812         6.50851 
        1.69967         5.99804         2.73492         6.47238 
        1.70581         5.96194         2.71199         6.44854 
        1.71193         5.93682         2.68942         6.42518 
        1.71806         5.90603         2.66706          6.3862 
        1.72421         5.86319         2.64491         6.34936 
        1.73035         5.84349         2.62303         6.31571 
        1.73649         5.80605         2.60141         6.28172 
        1.74262         5.75899         2.58006         6.24986 
        1.74876         5.75142         2.55893         6.22575 
        1.75489         5.72354         2.53809         6.19556 
        1.76101         5.67212         2.51748         6.15393 
        1.76715         5.65001         2.49708         6.12072 
        1.77329         5.62441         2.47688         6.09803 
        1.77943         5.57334         2.45689         6.07305 
        1.78557         5.56542         2.43716         6.03897 
        1.79171         5.52246         2.41764         6.00648 
        1.79785          5.4975         2.39834         5.97739 
        1.80399         5.46538         2.37925         5.94982 
        1.81012         5.44559         2.36039         5.92881 
        1.81625          5.4068         2.34175         5.90214 
        1.82239         5.38332         2.32329         5.87138 
        1.82853         5.35668         2.30503         5.85201 
        1.83466         5.33805         2.28699         5.83044 
        1.84078         5.30713         2.26916         5.79679 
        1.84692         5.28682         2.25149         5.75499 
        1.85306         5.24301           2.234         5.72722 
         1.8592         5.21332         2.21671         5.71014 
        1.86533         5.19358         2.19962         5.68596 
        1.87147         5.17252          2.1827         5.66088 
        1.87761         5.14235         2.16594          5.6361 
