# k  (h/Mpc)    Pcb(k)  (Mpc/h)^3    Pcb_linear(k) (Mpc/h)^3    Pcb_NL(k) (Mpc/h)^3   ShotnoiseSubtracted = false
     0.00783031         693.176         699.093         698.589 
       0.013688         933.321         934.877         931.904 
       0.019231         1009.46         1009.99         1005.36 
      0.0249154         986.463          992.11         988.737 
      0.0312784         911.067         912.747         910.981 
      0.0375637         817.531         816.467         815.205 
      0.0433917         733.234         734.911         734.192 
      0.0492413         669.844         669.655         669.082 
      0.0555754         615.108         617.703          616.96 
      0.0619321         580.814         578.982         578.156 
       0.067871         545.709         547.665         546.577 
      0.0738098         512.921         515.339         513.822 
      0.0800417          473.79         477.358         475.914 
      0.0862327         433.981         436.029         434.989 
      0.0921407         395.146         396.083         395.264 
      0.0982031         356.568         358.142         357.824 
       0.104506          325.79         324.932         325.028 
       0.110769         300.151         299.464         299.389 
       0.116806         280.603         281.443         281.294 
       0.122832         268.339         268.061          267.99 
       0.129052         255.539         256.655         256.527 
       0.135211         244.088         245.498         245.351 
       0.141259         232.829         233.251         233.226 
       0.147318         219.775          219.34         219.581 
       0.153489         203.879         204.096         204.127 
       0.159709         189.099         188.852         189.225 
       0.165845         176.969         175.164          176.09 
       0.171974         164.281         163.665         164.592 
       0.178125         155.461         154.558          155.85 
       0.184229          148.99         147.631         148.954 
        0.19034         142.071         142.133          143.41 
       0.196428         138.096         137.279         138.265 
       0.202534         134.048         132.328          133.37 
       0.208729         127.861         126.775         127.771 
       0.214876         121.066         120.662         122.036 
       0.220989         116.068         114.226         115.754 
       0.227147         108.511           107.8         109.362 
        0.23329         102.835         101.867         103.784 
       0.239377         98.1864           96.75         98.8714 
       0.245482         93.3393         92.4763         94.4389 
       0.251667         90.6347         88.9292         91.0701 
       0.257832          87.507         85.9492         88.0528 
       0.263955         84.7448          83.258         85.2628 
       0.270079         82.1394         80.5793         82.5055 
        0.27624         79.8808         77.7424         79.5761 
       0.282372         76.7871         74.7347         76.6882 
        0.28843         73.4038         71.6508         73.6623 
       0.294538         70.4052         68.5616         70.7094 
       0.300721         68.0221         65.5999         67.9259 
        0.30691         64.9372         62.9156         65.2908 
       0.313033         62.7111         60.5805         62.9191 
       0.319153         59.9616          58.551         61.0304 
       0.325316         59.0353         56.7394         59.2965 
        0.33145         57.1187          55.077         57.4922 
       0.337538         55.6009         53.4731         55.8212 
       0.343633         53.8326          51.854          54.214 
       0.349808         52.2916          50.174          52.605 
       0.355968         50.6537         48.4717         51.1368 
       0.362074         48.9654         46.7991         49.3931 
       0.368217         47.4299          45.177         47.6164 
       0.374374         45.7648         43.6566         46.2629 
       0.380519         44.5714         42.2631          44.813 
       0.386598         43.3567         41.0084         43.6168 
       0.392688         42.3729         39.8566         42.4762 
        0.39888         41.1623           38.76         41.3235 
       0.405048         40.2039         37.7129         40.2046 
       0.411186         39.2727         36.6886         39.3741 
       0.417313         37.9678         35.6687         38.2362 
       0.423458         37.0442         34.6518         37.2726 
       0.429607          35.958          33.647         36.2149 
       0.435692         34.9263         32.6802         35.3307 
       0.441815         34.1547         31.7507         34.5308 
       0.447964         33.5229         30.8697         33.5736 
       0.454126         32.3351         30.0404          32.708 
       0.460267         31.6363         29.2656         31.9967 
       0.466387         30.7328         28.5348         31.1829 
        0.47254         30.2229         27.8291         30.5096 
       0.478662         29.6199         27.1467         29.7922 
       0.484765         28.8311         26.4812         29.1262 
       0.490885         28.1396         25.8247          28.601 
       0.497035         27.7281         25.1764         27.9724 
       0.503198         27.0133         24.5436         27.1966 
       0.509342         26.3653         23.9345         26.6511 
       0.515458         25.7361         23.3525         26.1726 
       0.521598          25.251         22.7932         25.4523 
       0.527764         24.6691         22.2567         24.8827 
       0.533884         24.2362          21.748          24.388 
           0.54         23.7277         21.2589         23.8728 
       0.546137         23.2917         20.7831         23.4519 
       0.552299          22.859         20.3173         22.8787 
       0.558452          22.176         19.8633         22.4302 
       0.564573         21.8798         19.4228         22.1094 
       0.570708         21.4747         18.9927         21.6499 
       0.576825         20.9132         18.5756         21.2119 
       0.582926         20.5744         18.1721         20.8388 
       0.589034         19.9855         17.7815         20.4822 
       0.595184         19.6947         17.4022         19.9674 
       0.601379         19.3065         17.0342         19.7033 
       0.607522         19.0136         16.6814         19.3053 
       0.613639         18.7752         16.3406         18.9416 
       0.619772         18.2875         16.0079         18.6544 
       0.625918         18.1119         15.6828         18.2929 
       0.632068         17.8177         15.3658         17.9417 
       0.638161         17.4013         15.0598           17.62 
         0.6443         17.0524         14.7599         17.2911 
       0.650464         16.7135         14.4672         17.0614 
       0.656582         16.5708         14.1849         16.7549 
       0.662703         16.2737         13.9103         16.4561 
       0.668861         15.9806         13.6417         16.2281 
       0.675024         15.6633         13.3804         15.9061 
       0.681124         15.3973         13.1289          15.648 
       0.687237          15.167         12.8836         15.3443 
       0.693381         14.9649         12.6437          15.091 
       0.699536         14.5627         12.4096         14.8591 
       0.705665         14.4015         12.1825         14.7055 
       0.711789         14.1677         11.9612         14.4408 
       0.717957          13.937         11.7438         14.1812 
        0.72409         13.7075         11.5329         13.9848 
       0.730186         13.5284         11.3285         13.7401 
       0.736317         13.3774         11.1279         13.5273 
       0.742472         13.1657         10.9315         13.4063 
       0.748622         12.9476         10.7401         13.1737 
        0.75476         12.6607         10.5539         12.9414 
       0.760888          12.533         10.3725         12.7717 
       0.767043         12.3763         10.1948         12.6138 
       0.773185         12.1242         10.0217         12.4409 
       0.779291         12.0189          9.8537         12.2647 
       0.785407         11.8295          9.6894         12.0716 
       0.791564         11.6319         9.52786           11.91 
       0.797719         11.4605         9.37012         11.7018 
       0.803834         11.3518         9.21699         11.5464 
       0.809972         11.2305         9.06676         11.4469 
       0.816124         10.9888         8.91958         11.2436 
       0.822261         10.8391          8.7761         11.0903 
       0.828378         10.7119         8.63625         10.9464 
       0.834502         10.6012         8.49936         10.8003 
       0.840667          10.413         8.36459         10.6536 
       0.846816         10.2458         8.23317         10.5392 
       0.852925         10.1514         8.10543         10.4156 
       0.859047         10.0188         7.98018         10.2787 
       0.865192         9.92373          7.8572         10.1364 
       0.871341         9.80543         7.73676          10.021 
       0.877463         9.66155         7.61944         9.87271 
       0.883569         9.49497         7.50487         9.77159 
       0.889708         9.34185         7.39211         9.64585 
       0.895864         9.27608         7.28141         9.51108 
       0.902008         9.15561         7.17324         9.40982 
       0.908149         9.04962         7.06736         9.29595 
       0.914301          8.9106         6.96348         9.19126 
       0.920448         8.78181          6.8618         9.04768 
       0.926574         8.67426         6.76254         8.96077 
       0.932687         8.60235         6.66549          8.8077 
       0.938823         8.48608         6.57001         8.75396 
       0.944975         8.36955          6.4762         8.62544 
       0.951105         8.29092         6.38459         8.51683 
       0.957225         8.24318         6.29493         8.46089 
       0.963368         8.11889         6.20671          8.3441 
       0.969511         8.02402          6.1202          8.2593 
       0.975621         7.91472         6.03582         8.12783 
       0.981748         7.83639         5.95283         8.04619 
       0.987916         7.75271          5.8709         7.98274 
        0.99406         7.62769         5.79084         7.89308 
        1.00019          7.5246         5.71244         7.82223 
        1.00632         7.48585         5.63559         7.72264 
        1.01246          7.4051         5.56005         7.64621 
        1.01859         7.30428         5.48604         7.54702 
        1.02471         7.22797         5.41348         7.45177 
        1.03085          7.1552           5.342         7.37533 
        1.03698         7.05525         5.27197         7.30853 
        1.04314         6.99478         5.20292         7.22797 
        1.04929         6.90151         5.13528         7.15712 
        1.05541         6.82842         5.06913         7.09216 
        1.06154         6.76414           5.004         7.01825 
        1.06769         6.72315         4.93992         6.95535 
        1.07382         6.61656         4.87719          6.8811 
        1.07993         6.54106          4.8157         6.80734 
        1.08607          6.4999         4.75503         6.73007 
        1.09222         6.42768         4.69536         6.65597 
        1.09836          6.3696         4.63679         6.59266 
        1.10449         6.29616          4.5793          6.5317 
        1.11063         6.23458         4.52273         6.46086 
        1.11677         6.17367         4.46715         6.40711 
         1.1229         6.10978         4.41261         6.35287 
        1.12903         6.04664         4.35895         6.29526 
        1.13518          5.9901         4.30614         6.23799 
        1.14131         5.90689         4.25425         6.16389 
        1.14745         5.83407         4.20325         6.08973 
        1.15359         5.80656         4.15308         6.05199 
        1.15973         5.73635         4.10372         5.99469 
        1.16584         5.68692          4.0554         5.94907 
        1.17197         5.63234         4.00779          5.8828 
        1.17811         5.58109         3.96081         5.82694 
        1.18424         5.54576         3.91472         5.77092 
        1.19038         5.49241         3.86925         5.72134 
        1.19652         5.43858         3.82452         5.68289 
        1.20267         5.37726          3.7805         5.60616 
        1.20881         5.33039          3.7372         5.57054 
        1.21495         5.28955         3.69465         5.52888 
        1.22108          5.2339         3.65277         5.47857 
         1.2272         5.20592         3.61165         5.41375 
        1.23334         5.13219         3.57107         5.37586 
        1.23949         5.08585         3.53103         5.34434 
        1.24562          5.0605         3.49172         5.29545 
        1.25174         4.99326         3.45307         5.23494 
        1.25789         4.95896          3.4149         5.19022 
        1.26402         4.90805         3.37737         5.13763 
        1.27014         4.86053         3.34051          5.1078 
        1.27628         4.83465         3.30409          5.0751 
        1.28244         4.77014         3.26814         5.02388 
        1.28858          4.7483         3.23279         4.97609 
        1.29471         4.69935         3.19804         4.93357 
        1.30084         4.65309         3.16384         4.90513 
        1.30697         4.64046         3.13009         4.86321 
        1.31312         4.55321         3.09679         4.82326 
        1.31925         4.53962         3.06409         4.78881 
        1.32537         4.49884         3.03189         4.75029 
        1.33151         4.47454         3.00005         4.71154 
        1.33765         4.41406         2.96869         4.66771 
        1.34378          4.3778         2.93784         4.64133 
        1.34992         4.36163         2.90741         4.60197 
        1.35606         4.30556         2.87735         4.54995 
         1.3622         4.28398         2.84778         4.52158 
        1.36833         4.24685         2.81869         4.50184 
        1.37445         4.21196         2.79003         4.46245 
        1.38059         4.18568         2.76169         4.42642 
        1.38675         4.15688         2.73367         4.38402 
        1.39288         4.10942         2.70616         4.36052 
        1.39901         4.07228         2.67904         4.33008 
        1.40515         4.04797         2.65223         4.29028 
         1.4113         4.01618         2.62581         4.26066 
        1.41742         3.98686         2.59985         4.23866 
        1.42355         3.95881          2.5742         4.18729 
         1.4297         3.91359         2.54881         4.17489 
        1.43585         3.90035         2.52379         4.15002 
        1.44198         3.87544         2.49919         4.09913 
        1.44809         3.82586         2.47498          4.0854 
        1.45423         3.79877           2.451         4.04406 
        1.46036         3.76988         2.42738          4.0164 
        1.46649          3.7362         2.40407         3.99709 
        1.47263         3.70663         2.38105         3.96831 
        1.47877         3.67379         2.35834         3.93317 
        1.48491         3.65072          2.3359         3.90846 
        1.49104         3.63205          2.3138         3.87826 
        1.49718         3.60337         2.29197         3.85459 
        1.50333         3.57697         2.27039         3.82815 
        1.50947         3.55095         2.24913         3.79995 
         1.5156         3.52627         2.22818         3.77551 
        1.52172         3.50237          2.2075         3.75179 
        1.52787         3.47418         2.18704         3.72044 
          1.534         3.45095         2.16687         3.69474 
        1.54013         3.42391         2.14697         3.67026 
        1.54627         3.39033         2.12729         3.64518 
        1.55241         3.36776         2.10786         3.62062 
        1.55855          3.3533          2.0887         3.59317 
        1.56467         3.32694         2.06983         3.57594 
         1.5708         3.29329         2.05114         3.54852 
        1.57695         3.27666         2.03265         3.52463 
        1.58308         3.25135         2.01444         3.51169 
        1.58922         3.23539         1.99644         3.48544 
        1.59535         3.21168         1.97867         3.46017 
         1.6015         3.18968          1.9611         3.43569 
        1.60764         3.16993         1.94374         3.41749 
        1.61376          3.1474         1.92665         3.40171 
        1.61989         3.12305         1.90975         3.37545 
        1.62604         3.10018         1.89302         3.35438 
        1.63218         3.08928         1.87649         3.33562 
        1.63831         3.05699         1.86021         3.31269 
        1.64444         3.03579         1.84411          3.2893 
        1.65059         3.01923         1.82817         3.26921 
        1.65673         3.00058         1.81244         3.25157 
        1.66285         2.97351         1.79693         3.23134 
        1.66898         2.96134         1.78161          3.2076 
        1.67512         2.93437         1.76643         3.18978 
        1.68127         2.91789         1.75142         3.17547 
         1.6874          2.9048         1.73661          3.1573 
        1.69353         2.87225         1.72199         3.13182 
        1.69967         2.85904          1.7075         3.11138 
        1.70581         2.84907         1.69319         3.09873 
        1.71193         2.82616          1.6791         3.08507 
        1.71806         2.81097         1.66514         3.06037 
        1.72421         2.79141         1.65131         3.04061 
        1.73035         2.77309         1.63765         3.02434 
        1.73649         2.75311         1.62415           3.006 
        1.74262         2.73562         1.61082          2.9863 
        1.74876         2.72524         1.59763         2.97237 
        1.75489         2.70182         1.58462         2.95674 
        1.76101         2.68291         1.57175          2.9348 
        1.76715         2.66798         1.55901         2.91642 
        1.77329          2.6515          1.5464         2.90163 
        1.77943         2.63144         1.53392         2.88649 
        1.78557         2.61967          1.5216          2.8697 
        1.79171         2.60566         1.50942         2.85345 
        1.79785         2.58449         1.49737         2.83731 
        1.80399         2.57277         1.48545         2.82035 
        1.81012          2.5616         1.47368         2.80495 
        1.81625         2.53909         1.46204         2.78981 
        1.82239         2.52259         1.45051         2.77647 
        1.82853         2.50263         1.43911         2.76758 
        1.83466         2.49593         1.42785         2.75357 
        1.84078         2.47955         1.41672         2.73337 
        1.84692         2.46583         1.40569         2.71488 
        1.85306         2.44639         1.39476         2.69947 
         1.8592         2.43457         1.38397         2.68619 
        1.86533         2.41942          1.3733         2.67351 
        1.87147         2.40871         1.36273         2.66026 
