# k  (h/Mpc)    P(k)  (Mpc/h)^3    P_linear(k)  (Mpc/h)^3     P_NL(k)  ShotnoiseSubtracted = false
     0.00783031         3737.94         3777.28          3775.2 
       0.013688         5062.94         5049.42         5029.86 
       0.019231         5455.25         5454.32         5421.93 
      0.0249154         5294.71         5357.33         5326.71 
      0.0312784         4899.84         4928.51          4900.4 
      0.0375637         4406.57         4408.49         4380.62 
      0.0433917         3927.09         3968.05         3939.68 
      0.0492413         3599.39         3615.66         3587.55 
      0.0555754         3279.66         3335.12         3306.42 
      0.0619321         3128.85         3126.03          3096.1 
       0.067871         2911.41         2956.93         2926.29 
      0.0738098         2734.42         2782.38          2743.2 
      0.0800417         2513.48          2577.3         2539.12 
      0.0862327         2310.72         2354.16          2325.2 
      0.0921407         2113.89         2138.48         2111.46 
      0.0982031         1903.79         1933.63         1918.05 
       0.104506         1758.36         1754.32         1748.34 
       0.110769         1620.42         1616.82         1606.46 
       0.116806         1511.25         1519.52         1509.49 
       0.122832         1448.57         1447.27         1440.25 
       0.129052         1368.38         1385.68         1378.79 
       0.135211         1308.18         1325.45         1318.83 
       0.141259          1254.4         1259.32         1256.48 
       0.147318         1187.48         1184.22         1187.12 
       0.153489         1098.11         1101.91         1098.88 
       0.159709         1028.48         1019.61         1024.66 
       0.165845         973.775          945.71         963.845 
       0.171974         905.882         883.628         902.623 
       0.178125         859.657         834.454         862.821 
       0.184229         826.576         797.055          825.47 
        0.19034         779.062         767.372         795.446 
       0.196428         766.085         741.169         763.547 
       0.202534         745.912         714.434          738.68 
       0.208729         711.554         684.453         706.551 
       0.214876         673.522         651.449         682.307 
       0.220989          652.86         616.701         651.483 
       0.227147         611.965         582.007         618.476 
        0.23329         584.927         549.976          594.25 
       0.239377         567.402         522.351           570.2 
       0.245482          532.44         499.277         543.928 
       0.251667         524.731         480.127         529.008 
       0.257832         508.168         464.037         512.212 
       0.263955         491.995         449.507         496.348 
       0.270079         477.299         435.044         480.953 
        0.27624         469.835         419.728         464.244 
       0.282372          450.96          403.49         449.669 
        0.28843          435.57          386.84         433.662 
       0.294538         417.286         370.161         420.421 
       0.300721         411.587         354.171         408.077 
        0.30691         392.676         339.679         395.806 
       0.313033         382.944         327.071         382.174 
       0.319153         368.174         316.115         373.066 
       0.325316         359.998         306.334         365.279 
        0.33145         349.305         297.358         353.065 
       0.337538         344.642           288.7         343.841 
       0.343633         334.013         279.958         337.383 
       0.349808         324.457         270.887         329.562 
       0.355968         318.604         261.697         322.478 
       0.362074         310.183         252.667         313.487 
       0.368217         302.205         243.909          303.11 
       0.374374         292.942           235.7         296.706 
       0.380519         287.089         228.176          289.02 
       0.386598         280.239         221.403         282.783 
       0.392688         276.588         215.184         277.293 
        0.39888         269.547         209.264         270.252 
       0.405048         264.243          203.61         266.177 
       0.411186         258.658          198.08         260.575 
       0.417313         253.181         192.574         253.115 
       0.423458         248.229         187.084         248.331 
       0.429607         242.227         181.659         243.181 
       0.435692         235.306         176.439         238.514 
       0.441815         233.751         171.421         235.707 
       0.447964         229.965         166.664         230.194 
       0.454126         220.499         162.186         224.548 
       0.460267         218.067         158.004         222.025 
       0.466387         214.902         154.058         217.368 
        0.47254         211.156         150.248         213.895 
       0.478662         208.742         146.564         209.849 
       0.484765         203.656         142.971         205.047 
       0.490885         200.403         139.427         202.603 
       0.497035         197.756         135.926         199.941 
       0.503198          192.71          132.51         196.192 
       0.509342         189.709         129.221         193.403 
       0.515458         187.193         126.079         191.649 
       0.521598         185.092         123.059         187.155 
       0.527764           182.1         120.163         183.198 
       0.533884         178.981         117.416         180.927 
           0.54         176.458         114.776         178.497 
       0.546137         175.027         112.207         176.601 
       0.552299         172.425         109.692         173.077 
       0.558452         168.749         107.241         170.344 
       0.564573         165.734         104.863         168.769 
       0.570708         164.025         102.541         166.208 
       0.576825         161.495         100.289         163.467 
       0.582926         159.122         98.1103          161.18 
       0.589034         156.086         96.0012         159.595 
       0.595184          154.66         93.9539         157.198 
       0.601379         153.329          91.967         155.865 
       0.607522         149.561         90.0622         152.811 
       0.613639         149.506          88.222         151.324 
       0.619772         145.988          86.426         148.904 
       0.625918         144.855         84.6708         147.935 
       0.632068          143.19         82.9591         145.334 
       0.638161         141.579         81.3074         144.297 
         0.6443         139.725         79.6882         142.013 
       0.650464         137.964          78.108         139.638 
       0.656582         136.583         76.5836         138.804 
       0.662703         134.059          75.101         136.638 
       0.668861         132.963          73.651         135.389 
       0.675024          131.34           72.24         133.562 
       0.681124         129.938         70.8821         132.138 
       0.687237         127.774         69.5581         130.445 
       0.693381         126.474         68.2628         128.931 
       0.699536         124.982         66.9989         128.184 
       0.705665         125.583         65.7727         127.077 
       0.711789         122.237          64.578         124.615 
       0.717957         121.704         63.4041         123.866 
        0.72409         119.937         62.2656         123.248 
       0.730186         118.026         61.1618         121.617 
       0.736317         117.861         60.0789          120.02 
       0.742472         116.364         59.0185         118.935 
       0.748622         115.611         57.9853          117.57 
        0.75476         114.294         56.9798         116.434 
       0.760888         112.863         56.0005         115.121 
       0.767043         111.713          55.041         114.549 
       0.773185         110.556         54.1066         113.659 
       0.779291         109.738         53.1997         112.489 
       0.785407         108.915         52.3126         111.042 
       0.791564         107.366         51.4405         110.042 
       0.797719         106.099         50.5889         109.268 
       0.803834          105.72         49.7621         107.937 
       0.809972         103.941          48.951         107.148 
       0.816124         103.221         48.1564         106.449 
       0.822261         102.585         47.3818         105.154 
       0.828378         101.557         46.6267         103.849 
       0.834502         100.611         45.8876         103.704 
       0.840667         99.8271           45.16         102.801 
       0.846816         98.7743         44.4505         101.759 
       0.852925         97.7451         43.7608          101.02 
       0.859047         96.5586         43.0846         99.8319 
       0.865192          96.382         42.4206         99.2675 
       0.871341         95.6215         41.7704         98.3245 
       0.877463         94.1028          41.137         97.7093 
       0.883569         93.6026         40.5185         97.0281 
       0.889708         93.1335         39.9097          96.103 
       0.895864         92.1947          39.312         95.4141 
       0.902008         91.5646          38.728         94.6298 
       0.908149         90.8667         38.1564         93.9076 
       0.914301         89.9765         37.5955         93.4317 
       0.920448         89.1587         37.0466         92.5196 
       0.926574         88.6676         36.5107         91.4408 
       0.932687         87.9734         35.9866         91.1001 
       0.938823         86.7674         35.4712         90.2431 
       0.944975         86.6283         34.9647           89.53 
       0.951105         85.7237         34.4701         89.1333 
       0.957225         84.7383          33.986         88.5012 
       0.963368         84.4122         33.5097         87.5394 
       0.969511          83.919         33.0427         87.0027 
       0.975621         83.2929         32.5871         86.8758 
       0.981748         82.4209         32.1391         85.9711 
       0.987916         82.0144         31.6967         85.4865 
        0.99406         81.6012         31.2645         84.8992 
        1.00019           80.39         30.8412          84.286 
        1.00632         80.2318         30.4263         83.7748 
        1.01246         79.3951         30.0185         83.0837 
        1.01859         78.6288         29.6189         82.5196 
        1.02471         78.8576         29.2271         82.1167 
        1.03085         77.9187         28.8412         81.4901 
        1.03698         77.1377         28.4631         80.8808 
        1.04314          76.401         28.0903         80.2969 
        1.04929         76.2331         27.7251         80.0334 
        1.05541         75.5014          27.368         79.6835 
        1.06154         75.2283         27.0163         78.9263 
        1.06769         74.5471         26.6704         78.5011 
        1.07382         74.1579         26.3317         78.0301 
        1.07993         73.9078         25.9997          77.398 
        1.08607         73.1437         25.6722         76.9044 
        1.09222          72.861           25.35         76.4438 
        1.09836         72.2315         25.0338         76.0408 
        1.10449         71.8003         24.7234         75.4563 
        1.11063         70.9364          24.418         74.9761 
        1.11677         70.6769         24.1179         74.5709 
         1.1229         70.4536         23.8235         74.2194 
        1.12903         69.4839         23.5337         73.7232 
        1.13518         69.4377         23.2486          73.227 
        1.14131         69.2052         22.9685         72.9047 
        1.14745         68.3278         22.6931         72.4361 
        1.15359          68.067         22.4223         72.2607 
        1.15973         67.4249         22.1558         71.6822 
        1.16584         66.9957         21.8949         71.2223 
        1.17197         66.7962         21.6379         70.7711 
        1.17811         66.2802         21.3842         70.2216 
        1.18424         65.6844         21.1354          69.867 
        1.19038         65.6375         20.8899         69.7789 
        1.19652         65.1992         20.6484         69.1196 
        1.20267         64.7031         20.4107         68.9708 
        1.20881         64.2542         20.1769         68.4681 
        1.21495         63.8267         19.9472         68.2034 
        1.22108         63.4027         19.7211         67.7214 
         1.2272          62.834         19.4991         67.4702 
        1.23334         62.6295         19.2801         67.0762 
        1.23949         62.3693         19.0639         66.5951 
        1.24562         62.0456         18.8516         66.2752 
        1.25174         61.6618          18.643          66.024 
        1.25789         61.3327         18.4369         65.5938 
        1.26402         60.9058         18.2343         65.2172 
        1.27014         60.3878         18.0352         64.9075 
        1.27628         60.1675         17.8386         64.5515 
        1.28244         59.6929         17.6445         64.3246 
        1.28858         59.4588         17.4537         63.9474 
        1.29471         59.2099         17.2661         63.6666 
        1.30084         58.8044         17.0814            63.2 
        1.30697         58.3223         16.8992         62.8363 
        1.31312         57.9336         16.7194         62.6956 
        1.31925         57.7928         16.5429         62.3257 
        1.32537         57.4721          16.369         62.0026 
        1.33151         57.1021         16.1971         61.7303 
        1.33765         56.9701         16.0278         61.4512 
        1.34378         56.6776         15.8612         61.1036 
        1.34992         55.8266          15.697         60.8169 
        1.35606         55.7125         15.5347         60.6377 
         1.3622         55.3633          15.375         60.3177 
        1.36833          55.193          15.218         59.9757 
        1.37445         55.0365         15.0632         59.6738 
        1.38059         54.7779         14.9102         59.4982 
        1.38675         54.3492         14.7589         59.1605 
        1.39288         54.0613         14.6104         58.9601 
        1.39901         53.6241          14.464         58.6627 
        1.40515         53.3888         14.3193         58.3006 
         1.4113         53.2824         14.1766         58.0736 
        1.41742         52.6606         14.0365         57.9352 
        1.42355         52.6718          13.898         57.4463 
         1.4297           52.22         13.7609          57.181 
        1.43585         52.1477         13.6258         57.0399 
        1.44198         51.7381          13.493         56.7965 
        1.44809         51.4664         13.3623         56.3965 
        1.45423         51.3001         13.2328         56.1377 
        1.46036         50.9918         13.1053         55.9157 
        1.46649          50.715         12.9795          55.704 
        1.47263         50.4526         12.8552         55.5087 
        1.47877         50.2079         12.7326         55.2702 
        1.48491          49.926         12.6114         54.8932 
        1.49104         49.7025         12.4921         54.6863 
        1.49718         49.3006         12.3742         54.4308 
        1.50333         49.1241         12.2577         54.2822 
        1.50947         48.8256          12.143         54.1077 
         1.5156         48.5742         12.0298          53.833 
        1.52172         48.2838         11.9182          53.546 
        1.52787         48.2567         11.8077         53.2989 
          1.534         47.8722         11.6988         53.1254 
        1.54013         47.5616         11.5914         52.8369 
        1.54627         47.5124         11.4851         52.5574 
        1.55241         47.2075         11.3802         52.3997 
        1.55855         46.9303         11.2768         52.2289 
        1.56467         46.6311         11.1749         51.9594 
         1.5708          46.464          11.074         51.7867 
        1.57695         46.1274         10.9742         51.5559 
        1.58308         46.1628         10.8759         51.2556 
        1.58922         45.8299         10.7787         51.1371 
        1.59535          45.482         10.6828         50.9865 
         1.6015         45.3285         10.5879         50.6936 
        1.60764         45.1875         10.4942          50.445 
        1.61376         44.9657         10.4019         50.2855 
        1.61989         44.5143         10.3106         50.0083 
        1.62604         44.4343         10.2203         49.8881 
        1.63218         44.1088         10.1311         49.7655 
        1.63831         43.9869         10.0432         49.4874 
        1.64444         43.8157         9.95628         49.2382 
        1.65059         43.4307         9.87021         49.0773 
        1.65673         43.3426         9.78526         48.8731 
        1.66285         43.1497         9.70155         48.6862 
        1.66898         42.8418          9.6188         48.5742 
        1.67512          42.684         9.53686         48.3726 
        1.68127         42.3752         9.45581         48.1198 
         1.6874         42.3116         9.37588         47.8787 
        1.69353         42.0844         9.29694         47.6803 
        1.69967         41.8891         9.21872         47.5174 
        1.70581         41.6422         9.14145         47.4212 
        1.71193          41.367         9.06536         47.2708 
        1.71806         41.2778         8.98998         46.9232 
        1.72421         40.9995         8.91531         46.7235 
        1.73035         40.8996         8.84159         46.6327 
        1.73649         40.6588         8.76872         46.4843 
        1.74262         40.4106         8.69674          46.215 
        1.74876         40.3134         8.62552         46.0337 
        1.75489         40.0133         8.55525         45.9023 
        1.76101          39.856          8.4858         45.7272 
        1.76715         39.6705         8.41702         45.5484 
        1.77329         39.5223         8.34893         45.3695 
        1.77943         39.3507         8.28157         45.2078 
        1.78557         39.1243         8.21506         45.0644 
        1.79171         38.9252         8.14927         44.8749 
        1.79785         38.7762         8.08419         44.7136 
        1.80399         38.6043         8.01985          44.618 
        1.81012         38.4569         7.95629         44.3391 
        1.81625         38.2336         7.89346         44.0865 
        1.82239          38.081         7.83122         43.9936 
        1.82853         37.7551         7.76968         43.8776 
        1.83466         37.6269         7.70887          43.723 
        1.84078         37.3806         7.64877         43.5764 
        1.84692         37.3468         7.58923          43.469 
        1.85306         37.0569         7.53024         43.2771 
         1.8592         36.9604         7.47199         43.0615 
        1.86533          36.706         7.41438         42.9379 
        1.87147         36.6099         7.35732         42.7894 
        1.87761          36.541         7.30084         42.6097 
