# k  (h/Mpc)    P(k)  (Mpc/h)^3    P_linear(k)  (Mpc/h)^3     P_NL(k)  ShotnoiseSubtracted = false
     0.00783031         4074.06         4117.61         4115.28 
       0.013688         5520.66         5504.26         5482.49 
       0.019231         5946.56         5945.58          5909.4 
      0.0249154         5768.33         5839.82          5804.9 
      0.0312784         5338.73         5372.36         5339.42 
      0.0375637         4802.02          4805.5         4772.58 
      0.0433917         4277.23         4325.39          4291.5 
      0.0492413         3921.25         3941.26         3907.57 
      0.0555754         3570.49         3635.45         3601.17 
      0.0619321         3408.87         3407.53          3371.8 
       0.067871         3169.43          3223.2         3186.79 
      0.0738098         2976.58         3032.93         2986.47 
      0.0800417         2734.91         2809.39         2764.09 
      0.0862327         2514.99         2566.15         2531.72 
      0.0921407         2301.76         2331.05         2298.82 
      0.0982031         2072.83         2107.75         2088.97 
       0.104506          1916.1          1912.3         1904.82 
       0.110769         1765.84         1762.41         1749.81 
       0.116806         1646.94         1656.35         1644.17 
       0.122832         1578.59         1577.59         1568.95 
       0.129052         1490.25         1510.46         1502.02 
       0.135211         1424.84          1444.8         1436.66 
       0.141259         1366.76         1372.72         1369.08 
       0.147318         1294.06         1290.86         1293.86 
       0.153489         1196.44         1201.14         1197.25 
       0.159709         1121.54         1111.43         1117.01 
       0.165845         1062.86         1030.87         1051.72 
       0.171974          989.27         963.198          985.18 
       0.178125          938.89         909.596         942.548 
       0.184229         902.896         868.829         901.715 
        0.19034         850.539         836.473         869.026 
       0.196428          836.93         807.911          833.97 
       0.202534         814.816         778.768         807.016 
       0.208729         777.446         746.087         771.734 
       0.214876         736.165         710.111         745.894 
       0.220989         713.936         672.234         712.663 
       0.227147         669.759         634.416         676.949 
        0.23329         640.531         599.501         651.026 
       0.239377         622.121         569.387         624.945 
       0.245482         583.415         544.237         596.173 
       0.251667         575.484         523.362         580.201 
       0.257832         557.261         505.823         561.845 
       0.263955         539.635         489.985         544.533 
       0.270079         523.495          474.22         527.775 
        0.27624         515.757         457.524         509.567 
       0.282372         494.897         439.824         493.737 
        0.28843         478.712         421.675         476.326 
       0.294538         458.369         403.494         462.114 
       0.300721         452.785         386.063         448.788 
        0.30691         431.992         370.267         435.703 
       0.313033         421.663         356.523         420.792 
       0.319153         405.909         344.581         410.828 
       0.325316          396.47         333.919         402.493 
        0.33145         384.902         324.135         388.958 
       0.337538         380.015         314.697         378.994 
       0.343633         368.281         305.168         372.229 
       0.349808         357.698          295.28         363.767 
       0.355968          351.75         285.262         356.018 
       0.362074         342.749         275.419         346.287 
       0.368217         333.957         265.872         334.991 
       0.374374         323.475         256.925         328.009 
       0.380519         317.399         248.723         319.683 
       0.386598         309.952          241.34         312.989 
       0.392688         306.218         234.561         306.912 
        0.39888         298.371         228.108          299.36 
       0.405048         292.543         221.945         295.119 
       0.411186         286.355         215.917         288.673 
       0.417313         280.652         209.915          280.57 
       0.423458         275.262         203.931         275.381 
       0.429607         268.709         198.017         269.792 
       0.435692         261.252         192.327         264.672 
       0.441815         259.585         186.857         261.716 
       0.447964           255.3         181.672         255.748 
       0.454126         244.919         176.791           249.5 
       0.460267         242.314         172.232         246.877 
       0.466387         239.023         167.931         241.785 
        0.47254         234.697         163.778         237.986 
       0.478662         232.276         159.762         233.532 
       0.484765          226.58         155.845         228.217 
       0.490885         223.099         151.982         225.541 
       0.497035         220.122         148.166         222.681 
       0.503198         214.554         144.442         218.664 
       0.509342         211.556         140.857         215.636 
       0.515458         208.793         137.432         213.747 
       0.521598         206.419         134.141         208.869 
       0.527764         203.079         130.984         204.601 
       0.533884          199.71         127.989         202.136 
           0.54         196.988         125.111         199.471 
       0.546137         195.534         122.311         197.378 
       0.552299         192.508          119.57         193.538 
       0.558452         188.701         116.898         190.603 
       0.564573         185.352         114.306         188.895 
       0.570708         183.277         111.774         186.101 
       0.576825         180.638         109.319         182.983 
       0.582926         178.097         106.945         180.512 
       0.589034         174.868         104.646          178.78 
       0.595184         173.312         102.414         176.083 
       0.601379         171.855         100.248         174.777 
       0.607522         167.714         98.1721         171.489 
       0.613639         167.593         96.1662         169.823 
       0.619772          163.71         94.2086         167.165 
       0.625918         162.372         92.2953          166.08 
       0.632068          160.57         90.4294         163.218 
       0.638161         158.958          88.629         162.159 
         0.6443         156.834          86.864         159.691 
       0.650464         154.958         85.1415         156.981 
       0.656582          153.43         83.4798         156.066 
       0.662703         150.688         81.8637         153.764 
       0.668861         149.413         80.2831         152.359 
       0.675024         147.636         78.7451         150.327 
       0.681124          146.26         77.2649         148.845 
       0.687237         143.774         75.8217         146.952 
       0.693381         142.239         74.4098           145.3 
       0.699536         140.763         73.0321          144.42 
       0.705665         141.396         71.6954           143.3 
       0.711789         137.656         70.3931         140.572 
       0.717957         137.115         69.1136         139.695 
        0.72409         135.156         67.8725         139.077 
       0.730186         132.979         66.6693           137.3 
       0.736317         132.804         65.4889         135.525 
       0.742472         131.291          64.333         134.325 
       0.748622         130.435         63.2068         132.825 
        0.75476         129.008         62.1108         131.544 
       0.760888         127.383         61.0433         130.051 
       0.767043         126.119         59.9974         129.444 
       0.773185         124.864         58.9788         128.515 
       0.779291         123.833         57.9902         127.197 
       0.785407         122.975         57.0233         125.579 
       0.791564         121.317         56.0726         124.535 
       0.797719         119.907         55.1443         123.678 
       0.803834          119.45         54.2431         122.143 
       0.809972          117.48          53.359          121.29 
       0.816124         116.893         52.4928         120.573 
       0.822261         116.024         51.6484         119.168 
       0.828378         114.874         50.8254         117.675 
       0.834502         113.935         50.0197           117.5 
       0.840667         112.961         49.2266         116.618 
       0.846816         111.867         48.4532         115.373 
       0.852925         110.642         47.7014         114.477 
       0.859047         109.376         46.9643          113.24 
       0.865192         109.189         46.2405         112.651 
       0.871341         108.236         45.5318         111.541 
       0.877463         106.699         44.8413         110.929 
       0.883569         106.095         44.1671         110.102 
       0.889708         105.547         43.5035         109.146 
       0.895864         104.511          42.852         108.392 
       0.902008         103.821         42.2154         107.465 
       0.908149         103.056         41.5923         106.653 
       0.914301         101.952         40.9809         106.148 
       0.920448           101.2         40.3825         105.163 
       0.926574         100.604         39.7984         103.907 
       0.932687         99.8724         39.2272         103.502 
       0.938823         98.5212         38.6653           102.6 
       0.944975         98.3157         38.1132         101.855 
       0.951105         97.3067         37.5741         101.337 
       0.957225         96.1693         37.0464         100.695 
       0.963368         95.8302         36.5272         99.5567 
       0.969511         95.2804         36.0181         98.9795 
       0.975621         94.6479         35.5215         98.9548 
       0.981748         93.6966         35.0331         97.8574 
       0.987916         93.1643         34.5509         97.3849 
        0.99406         92.7158         34.0798         96.6702 
        1.00019         91.3796         33.6184         95.9633 
        1.00632         91.1937         33.1661         95.4133 
        1.01246         90.2264         32.7216         94.6246 
        1.01859         89.3284          32.286         94.0203 
        1.02471         89.6692          31.859          93.599 
        1.03085         88.6089         31.4383          92.879 
        1.03698         87.7433         31.0262         92.1817 
        1.04314          86.913         30.6198         91.5928 
        1.04929         86.6891         30.2217         91.2979 
        1.05541         85.9307         29.8324         90.8733 
        1.06154         85.5749         29.4491         90.0891 
        1.06769         84.8299          29.072         89.6126 
        1.07382         84.4392         28.7028         89.0415 
        1.07993         84.1138          28.341         88.3734 
        1.08607         83.2776         27.9839         87.8084 
        1.09222         82.9205         27.6327         87.2121 
        1.09836         82.2599          27.288         86.7938 
        1.10449         81.7412         26.9497         86.1873 
        1.11063         80.8804         26.6168         85.5728 
        1.11677         80.5098         26.2897         85.1294 
         1.1229         80.2244         25.9687         84.8229 
        1.12903         79.1395         25.6529          84.216 
        1.13518         79.1678         25.3421         83.7022 
        1.14131         78.8208         25.0367         83.2969 
        1.14745         77.7877         24.7366         82.7798 
        1.15359         77.5313         24.4414          82.574 
        1.15973         76.8904         24.1509         81.9238 
        1.16584         76.3889         23.8665         81.4155 
        1.17197         76.0576         23.5863         80.9358 
        1.17811         75.5608         23.3098         80.3143 
        1.18424         74.8572         23.0386         79.9007 
        1.19038         74.7631          22.771         79.8038 
        1.19652         74.3115         22.5077         79.0557 
        1.20267         73.7304         22.2487         78.8814 
        1.20881         73.2285         21.9938         78.3089 
        1.21495         72.7384         21.7434         77.9859 
        1.22108         72.2691          21.497         77.5042 
         1.2272         71.6876          21.255         77.1983 
        1.23334         71.4133         21.0162          76.735 
        1.23949          71.134         20.7805         76.2121 
        1.24562         70.7676         20.5492         75.8566 
        1.25174         70.3094         20.3217         75.5791 
        1.25789         69.9267         20.0971         75.1047 
        1.26402         69.4205         19.8762         74.6586 
        1.27014         68.8456         19.6593         74.3203 
        1.27628         68.6253         19.4449          73.941 
        1.28244         68.0282         19.2334          73.606 
        1.28858         67.7624         19.0253         73.2225 
        1.29471         67.5264         18.8208         72.9324 
        1.30084          67.048         18.6196         72.3496 
        1.30697         66.4815          18.421         71.9579 
        1.31312         66.0878          18.225         71.8344 
        1.31925         65.9331         18.0325          71.394 
        1.32537         65.5206          17.843         70.9991 
        1.33151         65.1137         17.6556         70.7114 
        1.33765         64.9319         17.4711         70.3912 
        1.34378         64.5707         17.2895         69.9886 
        1.34992         63.7052         17.1104         69.6734 
        1.35606         63.5272         16.9335         69.4583 
         1.3622         63.1063         16.7595         69.0826 
        1.36833         62.9737         16.5883         68.6606 
        1.37445         62.7173         16.4197         68.3714 
        1.38059         62.3882         16.2528         68.2131 
        1.38675         61.9726          16.088          67.749 
        1.39288         61.5898          15.926         67.5522 
        1.39901         61.1772         15.7665         67.2037 
        1.40515         60.9024         15.6087         66.8052 
         1.4113         60.7259         15.4532         66.5637 
        1.41742          60.086         15.3004         66.3865 
        1.42355         60.0549         15.1494         65.8458 
         1.4297         59.5377         15.0001         65.5392 
        1.43585         59.4273         14.8528         65.3719 
        1.44198         59.0353          14.708         65.1305 
        1.44809         58.6498         14.5655         64.6093 
        1.45423         58.4909         14.4244           64.35 
        1.46036         58.0898         14.2854         64.1208 
        1.46649         57.8102         14.1482         63.8849 
        1.47263         57.5135         14.0128         63.6518 
        1.47877         57.2541         13.8791          63.328 
        1.48491         56.9223          13.747         62.9427 
        1.49104         56.6171          13.617         62.6639 
        1.49718         56.1968         13.4885         62.3845 
        1.50333         55.9945         13.3615         62.2192 
        1.50947         55.6267         13.2364         62.0112 
         1.5156         55.3565         13.1131         61.7144 
        1.52172         55.0898         12.9914         61.4113 
        1.52787         54.9924          12.871         61.1179 
          1.534         54.5845         12.7523         60.9125 
        1.54013         54.2312         12.6352         60.6007 
        1.54627         54.1724         12.5194         60.2784 
        1.55241         53.8046          12.405          60.074 
        1.55855         53.4495         12.2922         59.8652 
        1.56467         53.0958         12.1812         59.5486 
         1.5708         52.9511         12.0712         59.3788 
        1.57695         52.6007         11.9624           59.15 
        1.58308         52.5739         11.8552         58.7921 
        1.58922         52.2322         11.7493         58.6224 
        1.59535         51.8725         11.6447         58.4423 
         1.6015         51.6478         11.5413         58.1245 
        1.60764         51.5001         11.4392          57.851 
        1.61376         51.2578         11.3386          57.666 
        1.61989         50.7114         11.2391         57.3431 
        1.62604         50.6248         11.1406         57.1601 
        1.63218         50.3011         11.0434         57.0116 
        1.63831         50.1078         10.9475         56.7337 
        1.64444         49.9406         10.8528         56.4448 
        1.65059         49.4655          10.759         56.2561 
        1.65673         49.3483         10.6664         56.0057 
        1.66285         49.1685         10.5752         55.7872 
        1.66898         48.7991          10.485         55.6855 
        1.67512         48.5854         10.3956         55.4672 
        1.68127         48.2643         10.3073         55.1542 
         1.6874         48.2012         10.2202         54.8572 
        1.69353         47.8862         10.1341          54.655 
        1.69967          47.726         10.0489         54.4847 
        1.70581          47.465         9.96462         54.3807 
        1.71193         47.1265         9.88168         54.2003 
        1.71806         46.9542         9.79951           53.77 
        1.72421         46.6612         9.71812          53.532 
        1.73035          46.533         9.63776         53.4587 
        1.73649         46.2892         9.55833         53.3138 
        1.74262         46.0037         9.47986         52.9563 
        1.74876         45.9418         9.40223         52.7386 
        1.75489         45.5423         9.32564         52.6042 
        1.76101          45.364         9.24993         52.3994 
        1.76715          45.137         9.17496          52.196 
        1.77329         44.9416         9.10074         52.0012 
        1.77943         44.7757         9.02731         51.8116 
        1.78557         44.5402         8.95481          51.623 
        1.79171         44.2722          8.8831         51.4033 
        1.79785         44.0973         8.81216         51.2333 
        1.80399         43.8855         8.74202         51.1263 
        1.81012         43.7196         8.67275         50.7853 
        1.81625         43.4429         8.60425         50.4881 
        1.82239         43.2877         8.53641         50.3984 
        1.82853         42.9239         8.46933         50.2724 
        1.83466         42.7743         8.40304         50.0752 
        1.84078         42.4937         8.33753         49.8833 
        1.84692         42.4167         8.27262         49.7737 
        1.85306         42.1231         8.20833          49.575 
         1.8592         41.9941         8.14483         49.3342 
        1.86533         41.6912         8.08203         49.1886 
        1.87147         41.5863         8.01984         49.0071 
        1.87761         41.4938         7.95827         48.7919 
