# k  (h/Mpc)    P(k)  (Mpc/h)^3    P_linear(k)  (Mpc/h)^3     P_NL(k)  ShotnoiseSubtracted = false
     0.00783031         5095.86         5152.76         5149.54 
       0.013688         6913.85         6887.62          6858.6 
       0.019231          7440.5         7439.68         7391.05 
      0.0249154         7205.96         7307.23         7257.67 
      0.0312784         6671.17         6722.25          6672.3 
      0.0375637         6003.07         6012.93         5962.13 
      0.0433917         5338.84         5412.16         5358.55 
      0.0492413         4897.78         4931.51         4877.83 
      0.0555754         4450.88         4548.85         4494.61 
      0.0619321          4258.2         4263.66         4207.22 
       0.067871         3950.11         4033.01         3976.08 
      0.0738098         3709.22         3794.94         3722.59 
      0.0800417         3403.86         3515.23         3444.64 
      0.0862327         3132.61         3210.87         3156.96 
      0.0921407         2870.65         2916.71         2865.94 
      0.0982031          2584.8         2637.31         2606.99 
       0.104506         2394.97         2392.75         2379.67 
       0.110769         2207.43          2205.2         2184.55 
       0.116806         2059.31         2072.49         2052.54 
       0.122832         1973.44         1973.94         1959.35 
       0.129052         1859.73         1889.95         1875.84 
       0.135211         1778.69         1807.79         1793.99 
       0.141259         1707.84          1717.6         1710.96 
       0.147318         1617.78         1615.17          1618.1 
       0.153489         1494.99         1502.91         1495.82 
       0.159709          1404.8         1390.66         1397.84 
       0.165845         1334.77         1289.86         1319.71 
       0.171974         1244.36         1205.19         1237.27 
       0.178125         1181.27         1138.12         1186.63 
       0.184229         1136.37         1087.11         1134.98 
        0.19034         1069.34         1046.63          1094.3 
       0.196428         1053.89         1010.89          1049.6 
       0.202534         1025.52         974.423          1016.4 
       0.208729         979.202         933.532         971.282 
       0.214876         928.545         888.517           940.9 
       0.220989         901.504         841.124         900.697 
       0.227147         847.906         793.805         857.109 
        0.23329         812.079         750.117         826.255 
       0.239377         791.456         712.438         793.985 
       0.245482         741.292         680.969         757.652 
       0.251667         732.913         654.849         738.642 
       0.257832         709.248         632.904         715.517 
       0.263955         687.251         613.087         693.851 
       0.270079         666.573         593.361         673.041 
        0.27624         658.187         572.471         650.373 
       0.282372         631.071         550.323         630.809 
        0.28843         613.321         527.615         609.261 
       0.294538         586.248         504.866         592.129 
       0.300721         581.299         483.057         575.701 
        0.30691         554.722         463.291          560.48 
       0.313033         542.711         446.095         541.691 
       0.319153         524.493         431.152         528.948 
       0.325316         510.901         417.811         519.032 
        0.33145          496.74         405.569         501.384 
       0.337538         491.099          393.76         489.341 
       0.343633         475.966         381.837         481.802 
       0.349808         462.061         369.465         471.411 
       0.355968         456.219         356.931         461.655 
       0.362074         445.726         344.614         449.701 
       0.368217         434.258         332.669         435.615 
       0.374374         419.483         321.474           426.9 
       0.380519         413.222         311.211         416.656 
       0.386598         403.965         301.974         408.773 
       0.392688         400.251         293.491         400.593 
        0.39888         389.649         285.416         391.859 
       0.405048         382.263         277.705         387.093 
       0.411186         374.346         270.163         377.861 
       0.417313         367.844         262.653         367.962 
       0.423458         361.187         255.166         361.618 
       0.429607         352.953         247.766         354.494 
       0.435692         344.114         240.646         347.981 
       0.441815         341.999         233.802         344.615 
       0.447964         335.975         227.315         337.319 
       0.454126         323.235         221.207         329.206 
       0.460267         319.992         215.503         326.369 
       0.466387         316.192         210.121         319.892 
        0.47254         309.996         204.925         315.202 
       0.478662         307.802           199.9         309.409 
       0.484765         300.041         194.999         302.547 
       0.490885         295.918         190.165         299.112 
       0.497035          291.69         185.391         295.648 
       0.503198         284.816         180.731         290.731 
       0.509342         281.941         176.246          287.04 
       0.515458         278.446          171.96          284.73 
       0.521598         274.884         167.841          278.68 
       0.527764         270.263         163.891         273.614 
       0.533884         266.554         160.145         270.508 
           0.54         263.137         156.544         267.052 
       0.546137         261.662          153.04          264.28 
       0.552299          257.14          149.61         259.598 
       0.558452         253.179         146.267         256.123 
       0.564573         248.891         143.023         253.939 
       0.570708         245.415         139.856         250.571 
       0.576825         242.387         136.784         246.165 
       0.582926         239.493         133.813         243.151 
       0.589034         235.735         130.937          240.85 
       0.595184         233.725         128.144         237.102 
       0.601379         231.803         125.434         235.964 
       0.607522         226.761         122.836         232.176 
       0.613639         226.217         120.327         229.818 
       0.619772          221.05         117.877         226.683 
       0.625918         219.329         115.483         225.105 
       0.632068         216.897         113.148         221.344 
       0.638161         215.481         110.896         220.151 
         0.6443         212.197         108.687         217.268 
       0.650464         210.074         106.532         213.599 
       0.656582         208.407         104.453          212.23 
       0.662703         205.174         102.431         209.764 
       0.668861         202.936         100.453         207.757 
       0.675024         200.675         98.5286         205.115 
       0.681124          199.52         96.6767         203.387 
       0.687237         196.117         94.8708         200.912 
       0.693381         193.773         93.1042         198.865 
       0.699536          192.34         91.3803         197.451 
       0.705665         192.669         89.7078         196.309 
       0.711789         188.167         88.0783         192.916 
       0.717957          187.43         86.4774         191.555 
        0.72409         184.996         84.9245         190.844 
       0.730186         182.069         83.4191         188.693 
       0.736317         181.576          81.942         186.399 
       0.742472         180.145         80.4958         184.805 
       0.748622         178.932         79.0866         182.826 
        0.75476         177.203         77.7152         181.226 
       0.760888         174.891         76.3795         179.152 
       0.767043         173.441         75.0709         178.331 
       0.773185         171.807         73.7964         177.235 
       0.779291         169.785         72.5594         175.473 
       0.785407         168.921         71.3496         173.374 
       0.791564         167.057         70.1601         172.209 
       0.797719         165.115         68.9985         171.105 
       0.803834         164.464         67.8709         168.991 
       0.809972         162.074         66.7646         167.877 
       0.816124         161.885         65.6809         166.963 
       0.822261         160.052         64.6243         165.286 
       0.828378         158.572         63.5945         163.261 
       0.834502         157.906         62.5865         162.916 
       0.840667         155.975         61.5941         162.028 
       0.846816         154.887         60.6263         160.172 
       0.852925         153.202         59.6857         158.848 
       0.859047         151.725         58.7634         157.504 
       0.865192         151.256         57.8578         156.741 
       0.871341         149.679          56.971         155.184 
       0.877463         148.321          56.107         154.531 
       0.883569         147.165         55.2634         153.237 
       0.889708         146.352         54.4331         152.198 
       0.895864         144.974         53.6179         151.249 
       0.902008         144.084         52.8214         149.763 
       0.908149         143.166         52.0417         148.681 
       0.914301         141.487         51.2767         148.094 
       0.920448          140.76         50.5281         146.887 
       0.926574          139.93         49.7971         145.135 
       0.932687         138.905         49.0824         144.353 
       0.938823         137.241         48.3794         143.485 
       0.944975         136.623         47.6886         142.633 
       0.951105         135.492          47.014          141.63 
       0.957225          133.84         46.3538         140.858 
       0.963368         133.327         45.7042         139.237 
       0.969511         132.627         45.0671         138.547 
       0.975621          132.01         44.4458         138.798 
       0.981748         130.942         43.8347         137.126 
       0.987916         129.687         43.2314          136.61 
        0.99406         129.211         42.6418          135.53 
        1.00019         127.771         42.0645         134.439 
        1.00632         127.253         41.4986         133.706 
        1.01246         126.057         40.9424         132.652 
        1.01859         124.661         40.3974         132.015 
        1.02471         125.167         39.8631         131.514 
        1.03085         123.842         39.3367         130.514 
        1.03698         122.548         38.8211         129.464 
        1.04314         121.612         38.3126         128.873 
        1.04929          121.09         37.8145         128.421 
        1.05541          120.26         37.3274         127.731 
        1.06154         119.519         36.8478         126.919 
        1.06769         118.847         36.3759         126.213 
        1.07382          118.37          35.914         125.393 
        1.07993         117.644         35.4612         124.577 
        1.08607         116.582         35.0145         123.841 
        1.09222         115.945          34.575         122.892 
        1.09836         115.073         34.1438         122.268 
        1.10449         114.386         33.7204         121.591 
        1.11063         113.597         33.3039         120.638 
        1.11677         112.953         32.8946         120.058 
         1.1229         112.183          32.493         119.768 
        1.12903         111.007         32.0978         118.836 
        1.13518         111.159          31.709          118.23 
        1.14131         110.309         31.3268         117.527 
        1.14745         109.089         30.9513         116.912 
        1.15359          108.69         30.5819         116.388 
        1.15973         108.201         30.2185         115.753 
        1.16584         107.378         29.8626         115.078 
        1.17197         106.678          29.512         114.443 
        1.17811         106.102         29.1661         113.675 
        1.18424         105.104         28.8267         113.136 
        1.19038         104.757         28.4918         112.825 
        1.19652         104.272         28.1625         111.873 
        1.20267         103.392         27.8384         111.464 
        1.20881         102.785         27.5195         110.814 
        1.21495         102.078         27.2061         110.198 
        1.22108         101.442         26.8978         109.733 
         1.2272         100.896          26.595         109.194 
        1.23334         100.331         26.2962         108.598 
        1.23949         99.6672         26.0013         107.885 
        1.24562         99.4139         25.7119         107.491 
        1.25174         98.6788         25.4273         107.002 
        1.25789         98.1031         25.1462         106.428 
        1.26402         97.5763         24.8698         105.811 
        1.27014          96.654         24.5984         105.469 
        1.27628         96.4536         24.3302          104.98 
        1.28244         95.5462         24.0655         104.168 
        1.28858         95.0961         23.8052         103.692 
        1.29471         94.7083         23.5493         103.437 
        1.30084         94.0316         23.2975         102.582 
        1.30697         93.3063          23.049         102.061 
        1.31312         92.9377         22.8038         101.858 
        1.31925         92.6699         22.5629          101.25 
        1.32537         92.0646         22.3258         100.663 
        1.33151         91.3303         22.0914         100.289 
        1.33765          90.888         21.8604         99.8386 
        1.34378         90.3087         21.6332         99.2484 
        1.34992          89.753         21.4092         98.8724 
        1.35606         89.3005         21.1879         98.4072 
         1.3622         88.5311         20.9701         97.9433 
        1.36833          88.436         20.7559         97.2485 
        1.37445         87.7521         20.5449         96.8823 
        1.38059         87.1843         20.3361         96.7428 
        1.38675         86.8261         20.1298         95.9467 
        1.39288         86.1566         19.9272         95.7153 
        1.39901         85.9923         19.7275          95.219 
        1.40515         85.5552         19.5302          94.777 
         1.4113         84.8496         19.3356         94.4615 
        1.41742         84.4107         19.1444         94.0018 
        1.42355         83.9846         18.9555         93.3102 
         1.4297         83.4969         18.7686         92.9025 
        1.43585         82.9951         18.5843         92.6606 
        1.44198         82.7052         18.4032          92.375 
        1.44809         82.0245         18.2249         91.5716 
        1.45423          81.803         18.0483          91.239 
        1.46036         81.2374         17.8744         90.9603 
        1.46649         80.8218         17.7028         90.6615 
        1.47263         80.4451         17.5333         90.2964 
        1.47877         80.1072         17.3661         89.6955 
        1.48491         79.5591         17.2008         89.3751 
        1.49104         79.0973          17.038         88.8093 
        1.49718         78.6552         16.8773         88.4289 
        1.50333         78.2467         16.7184         88.1401 
        1.50947         77.6859         16.5619          87.795 
         1.5156         77.4704         16.4076         87.4399 
        1.52172         77.0527         16.2553         87.0696 
        1.52787         76.6929         16.1046         86.6411 
          1.534         76.3987         15.9561         86.3318 
        1.54013         75.8276         15.8096         85.9214 
        1.54627         75.5643         15.6647         85.4994 
        1.55241         74.9643         15.5216         85.1611 
        1.55855         74.5027         15.3805         84.7283 
        1.56467         73.9965         15.2415         84.2957 
         1.5708         73.8533         15.1039         84.0981 
        1.57695         73.4559         14.9678         83.8453 
        1.58308         73.1623         14.8337         83.4074 
        1.58922         72.7909         14.7011         83.0597 
        1.59535         72.4385         14.5703         82.7124 
         1.6015         71.8918         14.4409         82.2856 
        1.60764          71.756         14.3131          81.974 
        1.61376         71.2771         14.1872         81.7494 
        1.61989         70.7048         14.0628         81.2862 
        1.62604         70.4525         13.9395          80.877 
        1.63218         70.2155         13.8179         80.5766 
        1.63831         69.7846          13.698         80.2942 
        1.64444         69.5673         13.5794         79.9507 
        1.65059         68.8503          13.462         79.5688 
        1.65673         68.6944         13.3462         79.2156 
        1.66285         68.4087          13.232         78.9286 
        1.66898         67.9705         13.1191         78.7077 
        1.67512         67.5248         13.0074         78.4695 
        1.68127         67.1815         12.8968         78.0376 
         1.6874          66.951         12.7878         77.5431 
        1.69353         66.5426         12.6802          77.253 
        1.69967         66.2709         12.5735         77.0904 
        1.70581         66.0206         12.4681         76.8916 
        1.71193         65.5947         12.3643         76.5586 
        1.71806          65.079         12.2615         76.1026 
        1.72421         64.9504         12.1597         75.7182 
        1.73035         64.4944         12.0591         75.5699 
        1.73649         64.1556         11.9597         75.4339 
        1.74262         63.9142         11.8615         74.8568 
        1.74876         63.7524         11.7644         74.4977 
        1.75489         63.1677         11.6686          74.318 
        1.76101         63.0369         11.5738         74.0242 
        1.76715         62.5716           11.48         73.6644 
        1.77329         62.2863         11.3872         73.3933 
        1.77943         62.0979         11.2953         73.1353 
        1.78557         61.8096         11.2046         72.7864 
        1.79171          61.361         11.1148         72.4752 
        1.79785         61.0923         11.0261         72.2655 
        1.80399         60.6862         10.9383         72.0743 
        1.81012         60.5425         10.8516         71.6359 
        1.81625         60.0287         10.7659         71.2519 
        1.82239         59.8381         10.6811         71.1138 
        1.82853         59.4102         10.5971         70.9721 
        1.83466          59.223         10.5142          70.617 
        1.84078         58.7352         10.4322         70.2202 
        1.84692         58.5688          10.351         70.1188 
        1.85306         58.2559         10.2706         69.8761 
         1.8592          57.963         10.1911         69.5133 
        1.86533         57.6024         10.1125          69.326 
        1.87147         57.3979         10.0347         69.0517 
        1.87761          57.183         9.95767         68.6925 
