# k  (h/Mpc)    Pcb(k)  (Mpc/h)^3    Pcb_linear(k) (Mpc/h)^3    Pcb_NL(k) (Mpc/h)^3   ShotnoiseSubtracted = false
     0.00783031         2243.86         2265.61         2264.38 
       0.013688         3032.16         3029.01         3018.34 
       0.019231         3272.28         3272.07         3254.77 
      0.0249154         3184.96         3213.97         3199.34 
      0.0312784         2945.46         2956.77          2945.5 
      0.0375637         2646.73         2644.83         2634.35 
      0.0433917         2365.05         2380.61         2370.89 
      0.0492413         2164.94          2169.2         2159.83 
      0.0555754         1979.25          2000.9         1991.09 
      0.0619321         1880.75         1875.46         1865.18 
       0.067871         1757.12         1774.01         1763.08 
      0.0738098         1650.78          1669.3          1655.1 
      0.0800417         1520.62         1546.26         1532.49 
      0.0862327         1395.93         1412.39         1402.09 
      0.0921407         1274.36         1282.99         1273.65 
      0.0982031         1148.37         1160.09          1155.1 
       0.104506         1056.01         1052.52         1051.17 
       0.110769          973.04          970.02         966.979 
       0.116806         907.786         911.645         908.636 
       0.122832         869.849         868.299         866.398 
       0.129052         824.437         831.351         829.397 
       0.135211         787.759         795.213         793.383 
       0.141259         753.906         755.541         755.034 
       0.147318         713.034         710.482         712.316 
       0.153489         660.122         661.102         660.604 
       0.159709         615.567         611.725         614.324 
       0.165845         580.123         567.387         575.104 
       0.171974         538.578         530.141             538 
       0.178125         510.688         500.639         512.091 
       0.184229         490.518         478.201         489.851 
        0.19034         464.127         460.392         471.809 
       0.196428         454.483         444.671         453.639 
       0.202534         442.412         428.632         438.287 
       0.208729          421.76         410.645         419.652 
       0.214876         398.837         390.843         403.372 
       0.220989         385.316         369.996         383.957 
       0.227147         360.114         349.181         363.606 
        0.23329         343.049         329.964          347.59 
       0.239377         330.571         313.389         332.647 
       0.245482         311.643         299.546         317.408 
       0.251667         305.503         288.056         307.615 
       0.257832         295.701         278.403         297.669 
       0.263955         286.135         269.687         288.272 
       0.270079         277.592          261.01         279.075 
        0.27624         271.951          251.82         269.173 
       0.282372          261.33         242.078         260.243 
        0.28843         250.911         232.089         250.581 
       0.294538         240.814         222.082         241.943 
       0.300721         235.537         212.489         233.955 
        0.30691          224.72         203.794         225.928 
       0.313033         218.156          196.23         217.952 
       0.319153         208.703         189.656          212.39 
       0.325316         205.201         183.788         207.293 
        0.33145         198.626         178.403         200.613 
       0.337538         195.053         173.208         194.989 
       0.343633         189.028         167.964         190.373 
       0.349808         183.723         162.522         185.479 
       0.355968         179.172         157.008         181.246 
       0.362074         173.808          151.59         175.654 
       0.368217         169.103         146.336         169.457 
       0.374374           164.1         141.411         165.562 
       0.380519         160.111         136.897         160.825 
       0.386598         156.017         132.833         156.961 
       0.392688         153.316         129.102         153.634 
        0.39888         149.338          125.55         149.409 
       0.405048         146.287         122.158         146.304 
       0.411186         143.281          118.84         143.697 
       0.417313         139.167         115.537         139.347 
       0.423458         136.164         112.243         136.438 
       0.429607         132.647         108.988         133.126 
       0.435692         128.586         105.856         130.397 
       0.441815         127.277         102.846          128.39 
       0.447964         125.291         99.9919         125.029 
       0.454126         120.208         97.3058         121.929 
       0.460267         118.471          94.796         120.057 
       0.466387         115.912         92.4289         117.292 
        0.47254         114.288          90.143         115.261 
       0.478662         112.492         87.9326          112.87 
       0.484765          109.71         85.7768         110.305 
       0.490885         107.561         83.6504         108.846 
       0.497035         106.121         81.5504         107.055 
       0.503198         103.486         79.5005         104.546 
       0.509342         101.118         77.5277         102.889 
       0.515458         99.5445         75.6425         101.722 
       0.521598         98.2553         73.8307         99.0112 
       0.527764         96.5305         72.0931         96.7197 
       0.533884         94.8427         70.4451         95.2597 
           0.54         93.2537         68.8609         93.7471 
       0.546137         92.0983         67.3198         92.5982 
       0.552299         90.8256         65.8109          90.555 
       0.558452         88.3137         64.3404         88.9118 
       0.564573         86.8907         62.9136         87.9333 
       0.570708         86.0131         61.5203         86.4512 
       0.576825         84.1843         60.1692         85.0275 
       0.582926         82.7895         58.8623          83.702 
       0.589034         80.8364          57.597         82.6609 
       0.595184         79.9712         56.3687          81.193 
       0.601379         79.0623         55.1765         80.2239 
       0.607522         77.2383         54.0338         78.5372 
       0.613639         77.0148         52.9297         77.5448 
       0.619772         75.0755         51.8522         76.3442 
       0.625918         74.7385         50.7992         75.6483 
       0.632068         73.6372         49.7721         74.1776 
       0.638161         72.4484         48.7813         73.2918 
         0.6443         71.2975         47.8098         72.0208 
       0.650464         70.2319         46.8617         71.0498 
       0.656582         69.7293         45.9471         70.3127 
       0.662703         68.3802         45.0576         69.0722 
       0.668861         67.5461         44.1877         68.3656 
       0.675024         66.5674         43.3411         67.2838 
       0.681124         65.5152         42.5265         66.3676 
       0.687237         64.4995         41.7321         65.4233 
       0.693381         63.9934          40.955         64.5768 
       0.699536         62.7372         40.1967         64.0603 
       0.705665         62.8736          39.461         63.3326 
       0.711789         61.3702         38.7442         62.1209 
       0.717957         60.8275           38.04         61.6146 
        0.72409         59.9567         37.3569         61.0493 
       0.730186         59.1207         36.6947         60.1458 
       0.736317         58.7641         36.0449         59.3538 
       0.742472         57.7606         35.4088         58.8076 
       0.748622         57.3424         34.7889         57.9364 
        0.75476         56.5326         34.1856         57.3351 
       0.760888         55.8157         33.5981         56.7289 
       0.767043         55.2358         33.0224         56.2496 
       0.773185         54.4425         32.4618         55.5963 
       0.779291         54.1774         31.9177         55.0434 
       0.785407         53.6172         31.3855         54.3126 
       0.791564          52.686         30.8623         53.6932 
       0.797719         51.8694         30.3513         53.1727 
       0.803834         51.7859         29.8553         52.5202 
       0.809972         51.1225         29.3687         52.0785 
       0.816124         50.1136         28.8919         51.4762 
       0.822261         49.9985         28.4272         50.7942 
       0.828378         49.4886         27.9742         50.2205 
       0.834502         48.9071         27.5308         50.0656 
       0.840667         48.4822         27.0942         49.3538 
       0.846816         47.7955         26.6685         48.9255 
       0.852925          47.418         26.2548         48.7184 
       0.859047         46.8155         25.8491         47.9179 
       0.865192         46.5262         25.4507         47.4934 
       0.871341         46.2574         25.0606         47.1397 
       0.877463         45.3777         24.6806          46.644 
       0.883569         44.9995         24.3095         46.3357 
       0.889708         44.6305         23.9442         45.7317 
       0.895864          44.276         23.5856         45.3102 
       0.902008         43.9338         23.2353         44.9497 
       0.908149         43.5207         22.8923         44.6041 
       0.914301         43.3107         22.5558         44.3169 
       0.920448         42.4657         22.2265         43.7584 
       0.926574         42.3153          21.905         43.3008 
       0.932687         41.8615         21.5906         42.9585 
       0.938823         41.3714         21.2813         42.5788 
       0.944975         41.0898         20.9774         42.1385 
       0.951105         40.7929         20.6807         41.7999 
       0.957225         40.3176         20.3903         41.5161 
       0.963368         40.0397         20.1045         41.0931 
       0.969511         39.7671         19.8243         40.7854 
       0.975621         39.4856          19.551         40.4682 
       0.981748         38.9732         19.2822          40.196 
       0.987916          38.759         19.0168         39.7556 
        0.99406          38.397         18.7574         39.4837 
        1.00019         37.9205         18.5035         39.1583 
        1.00632         37.8464         18.2546         38.9156 
        1.01246           37.48         18.0099         38.6611 
        1.01859         37.0333         17.7701          38.284 
        1.02471         36.9812         17.5351         37.9709 
        1.03085         36.6103         17.3036         37.6936 
        1.03698         36.0792         17.0768         37.3801 
        1.04314         35.8558         16.8531         37.0069 
        1.04929         35.5743          16.634         36.8288 
        1.05541         35.2464         16.4197         36.6439 
        1.06154         35.0501         16.2087          36.212 
        1.06769          34.823         16.0012         35.9557 
        1.07382         34.5116          15.798         35.7792 
        1.07993         34.3748         15.5988         35.4517 
        1.08607         33.9556         15.4023         35.1887 
        1.09222         33.7669          15.209         34.9984 
        1.09836         33.3712         15.0193         34.7132 
        1.10449         33.3016         14.8331         34.4224 
        1.11063         32.8858         14.6498         34.2713 
        1.11677         32.7806         14.4698         33.9667 
         1.1229         32.6355         14.2931         33.7299 
        1.12903         32.2138         14.1193         33.5451 
        1.13518         31.9525         13.9483         33.2171 
        1.14131         31.8667         13.7802         33.0231 
        1.14745         31.6358          13.615         32.8263 
        1.15359         31.4337         13.4525         32.6228 
        1.15973         31.1214         13.2926         32.4038 
        1.16584         30.8154         13.1361         32.2458 
        1.17197         30.8374         12.9819         32.0088 
        1.17811         30.4519         12.8297          31.688 
        1.18424         30.1843         12.6804         31.5584 
        1.19038         30.1198         12.5331          31.385 
        1.19652         29.8909         12.3882         31.1106 
        1.20267         29.6571         12.2456         30.9365 
        1.20881         29.5473         12.1054         30.8189 
        1.21495          29.306         11.9675         30.6288 
        1.22108         29.0639         11.8319         30.3813 
         1.2272         28.7864         11.6987         30.1852 
        1.23334         28.6375         11.5673         30.0626 
        1.23949         28.4173         11.4376         29.8136 
        1.24562         28.3769         11.3102         29.6259 
        1.25174         28.1859          11.185         29.4849 
        1.25789         28.0303         11.0614         29.2828 
        1.26402         27.8669         10.9398          29.076 
        1.27014          27.612         10.8204         28.9332 
        1.27628         27.3506         10.7025         28.7404 
        1.28244          27.301          10.586         28.6713 
        1.28858         27.1689         10.4715         28.4113 
        1.29471          26.908          10.359         28.2388 
        1.30084         26.7272         10.2482         28.1672 
        1.30697          26.582         10.1389         27.9421 
        1.31312         26.3464          10.031         27.7612 
        1.31925         26.2049         9.92507         27.6741 
        1.32537         26.1454         9.82078         27.5475 
        1.33151         25.8954         9.71763         27.3434 
        1.33765         25.7804         9.61604         27.1931 
        1.34378         25.6818         9.51612         27.0656 
        1.34992         25.3648         9.41756          26.912 
        1.35606         25.3332          9.3202         26.7305 
         1.3622         25.2081          9.2244         26.6048 
        1.36833         25.0119         9.13019         26.5057 
        1.37445         24.9147         9.03735         26.3002 
        1.38059         24.7934         8.94554         26.1276 
        1.38675         24.5442         8.85479          26.038 
        1.39288         24.4479         8.76567         25.8836 
        1.39901         24.2493         8.67783         25.7701 
        1.40515         24.1687           8.591         25.6495 
         1.4113         24.0279         8.50541          25.525 
        1.41742          23.852         8.42132         25.3868 
        1.42355         23.7702         8.33822         25.1858 
         1.4297         23.6058         8.25601         25.1136 
        1.43585         23.5425         8.17494         25.0218 
        1.44198         23.3078         8.09528         24.8654 
        1.44809         23.2514         8.01685          24.765 
        1.45423         23.1026         7.93917         24.6236 
        1.46036         23.0269         7.86267         24.4698 
        1.46649         22.8928         7.78716         24.3458 
        1.47263         22.7059          7.7126         24.2667 
        1.47877         22.6175         7.63905          24.193 
        1.48491         22.4854         7.56635         23.9772 
        1.49104         22.4196         7.49476         23.9002 
        1.49718         22.2408         7.42405         23.8069 
        1.50333         22.1276         7.35415         23.6903 
        1.50947         22.0448         7.28529         23.5903 
         1.5156         21.8832         7.21743         23.4695 
        1.52172         21.7217         7.15044         23.3218 
        1.52787          21.651         7.08417          23.205 
          1.534         21.5518         7.01883         23.1079 
        1.54013          21.402         6.95438         22.9503 
        1.54627         21.2971         6.89064         22.8425 
        1.55241         21.1766         6.82768         22.7981 
        1.55855         21.1116         6.76561         22.6936 
        1.56467         20.9959         6.70449         22.5629 
         1.5708         20.9291         6.64396         22.4956 
        1.57695         20.7299         6.58409         22.4035 
        1.58308         20.6846          6.5251         22.2822 
        1.58922         20.5739          6.4668         22.2147 
        1.59535         20.4723         6.40924         22.1058 
         1.6015         20.3328          6.3523         21.9921 
        1.60764         20.2785         6.29609         21.8844 
        1.61376          20.213         6.24072          21.775 
        1.61989         20.0109         6.18598         21.7044 
        1.62604         20.0099         6.13178         21.6473 
        1.63218         19.8599         6.07826         21.5359 
        1.63831         19.7887         6.02551         21.4113 
        1.64444         19.6476         5.97338         21.3504 
        1.65059         19.5723         5.92174         21.2336 
        1.65673         19.4923         5.87077         21.1594 
        1.66285         19.3496         5.82055         21.0909 
        1.66898          19.299          5.7709         20.9705 
        1.67512         19.2153         5.72174         20.8754 
        1.68127         19.0649         5.67311         20.7731 
         1.6874         19.0036         5.62516         20.6761 
        1.69353         18.9574          5.5778         20.6174 
        1.69967         18.8033         5.53087         20.5491 
        1.70581         18.6801         5.48451         20.4768 
        1.71193         18.6243         5.43886           20.39 
        1.71806         18.5847         5.39363         20.2765 
        1.72421         18.4582         5.34884         20.2171 
        1.73035         18.4151         5.30461         20.1246 
        1.73649         18.3086         5.26089         20.0013 
        1.74262         18.2324          5.2177           19.98 
        1.74876         18.1382         5.17497         19.8982 
        1.75489         18.0677         5.13282         19.7741 
        1.76101         17.9441         5.09114         19.6913 
        1.76715          17.943         5.04988         19.6392 
        1.77329          17.834         5.00903         19.5508 
        1.77943           17.71         4.96862         19.4707 
        1.78557         17.6404         4.92871         19.4392 
        1.79171         17.5924         4.88924         19.3496 
        1.79785         17.5012          4.8502         19.2438 
        1.80399         17.4244         4.81159         19.1968 
        1.81012         17.3293         4.77347         19.1165 
        1.81625         17.2401         4.73577         19.0473 
        1.82239         17.1892         4.69842         18.9985 
        1.82853         17.0477          4.6615         18.8972 
        1.83466         17.0191         4.62502         18.8179 
        1.84078         16.8971         4.58896         18.7657 
        1.84692         16.8659         4.55324         18.6775 
        1.85306         16.7897         4.51785         18.6094 
         1.8592         16.7209          4.4829         18.5571 
        1.86533          16.649         4.44834         18.4797 
        1.87147         16.5647          4.4141         18.4142 
