# k  (h/Mpc)    Pcb(k)  (Mpc/h)^3    Pcb_linear(k) (Mpc/h)^3    Pcb_NL(k) (Mpc/h)^3   ShotnoiseSubtracted = false
     0.00783031          9352.2         9472.21         9463.11 
       0.013688         12739.5         12659.4         12592.1 
       0.019231         13666.8         13673.1         13558.1 
      0.0249154         13162.6         13429.1           13294 
      0.0312784         12193.5         12353.7           12197 
      0.0375637         10987.1         11049.9         10886.2 
      0.0433917         9719.81          9945.8         9765.49 
      0.0492413         8935.66         9062.43         8879.68 
      0.0555754         8063.87         8359.18         8177.05 
      0.0619321          7764.5         7835.06         7646.77 
       0.067871         7147.36         7411.18         7224.69 
      0.0738098         6709.43         6973.66         6738.39 
      0.0800417         6130.63         6459.65         6230.47 
      0.0862327         5656.63         5900.35         5723.67 
      0.0921407         5208.05         5359.77         5193.16 
      0.0982031         4691.14         4846.34         4741.91 
       0.104506         4379.25         4396.93         4346.15 
       0.110769         4039.43         4052.28         3981.56 
       0.116806         3777.08         3808.41         3739.71 
       0.122832         3612.99         3627.32         3574.51 
       0.129052         3386.42         3472.97         3423.49 
       0.135211         3241.72            3322         3271.28 
       0.141259         3122.92         3156.27         3130.04 
       0.147318         2964.31         2968.03         2965.62 
       0.153489            2736         2761.75         2734.69 
       0.159709         2589.29         2555.47         2570.04 
       0.165845         2483.63         2370.25         2448.04 
       0.171974         2329.28         2214.65         2304.07 
       0.178125         2212.86         2091.41         2227.06 
       0.184229         2127.38         1997.67         2126.78 
        0.19034         2006.95         1923.27         2054.74 
       0.196428         1981.18          1857.6          1971.3 
       0.202534         1920.19         1790.59         1913.49 
       0.208729         1840.74         1715.45         1824.29 
       0.214876          1760.4         1632.73         1776.79 
       0.220989         1709.84         1545.64         1712.51 
       0.227147         1625.82         1458.69         1642.23 
        0.23329         1562.89         1378.41         1591.87 
       0.239377         1538.03         1309.17         1532.88 
       0.245482         1442.32         1251.34         1466.86 
       0.251667         1434.06         1203.34         1436.12 
       0.257832         1383.04         1163.02          1393.3 
       0.263955         1341.17          1126.6         1354.76 
       0.270079         1300.41         1090.36         1317.89 
        0.27624         1289.17         1051.97         1277.92 
       0.282372         1234.31         1011.27         1246.53 
        0.28843         1222.34         969.539         1211.56 
       0.294538         1164.48         927.737         1180.15 
       0.300721         1160.88         887.661         1147.62 
        0.30691         1111.91         851.339         1127.86 
       0.313033         1091.92         819.742         1093.61 
       0.319153         1070.84         792.279         1066.53 
       0.325316         1037.05         767.765         1051.12 
        0.33145         1013.56         745.271         1015.58 
       0.337538         1001.43         723.568         997.864 
       0.343633         975.311          701.66         986.811 
       0.349808         945.241         678.927         968.475 
       0.355968         940.394         655.891         951.487 
       0.362074          927.62         633.259         930.615 
       0.368217         901.871         611.309         905.406 
       0.374374         867.226         590.736          890.02 
       0.380519         865.152          571.88         871.973 
       0.386598         846.053         554.902         860.372 
       0.392688         843.139         539.316         840.851 
        0.39888         818.984         524.478         830.053 
       0.405048         807.522         510.308         820.715 
       0.411186         795.125         496.449          801.23 
       0.417313         780.197         482.649         787.047 
       0.423458         768.593         468.889         775.672 
       0.429607         755.205         455.292         759.985 
       0.435692         739.956         442.209         747.377 
       0.441815         736.421         429.632         743.245 
       0.447964         720.568         417.711         730.642 
       0.454126         707.621          406.49         713.276 
       0.460267         696.182         396.005         711.103 
       0.466387         688.697         386.117         697.549 
        0.47254         677.632         376.567         689.965 
       0.478662          675.45         367.334         679.038 
       0.484765         657.592         358.328         667.736 
       0.490885         652.144         349.445         658.423 
       0.497035         639.531         340.672         652.405 
       0.503198         633.032         332.109         643.457 
       0.509342         626.919         323.868          635.13 
       0.515458         622.702         315.992         631.492 
       0.521598         610.029         308.423         622.204 
       0.527764         596.828         301.165         614.547 
       0.533884         596.606          294.28         607.654 
           0.54         588.946         287.663          600.27 
       0.546137         586.464         281.225         593.302 
       0.552299         576.294         274.921         585.521 
       0.558452         573.342         268.778         580.496 
       0.564573         564.057         262.818         575.581 
       0.570708         557.448         256.997         570.614 
       0.576825         544.797         251.353         561.139 
       0.582926         544.983         245.894         555.505 
       0.589034         539.755         240.608         547.992 
       0.595184         534.473         235.477         542.726 
       0.601379         528.647         230.497         538.944 
       0.607522         521.128         225.723         532.779 
       0.613639         520.654         221.111         528.962 
       0.619772         506.713         216.609          527.21 
       0.625918         505.922         212.211         520.584 
       0.632068         499.155          207.92         514.717 
       0.638161         497.278         203.781         508.674 
         0.6443         487.563         199.722         505.788 
       0.650464         485.474         195.762         497.715 
       0.656582          484.31         191.941         493.677 
       0.662703         480.327         188.226         492.067 
       0.668861         471.713         184.591         487.918 
       0.675024         468.135         181.055         483.665 
       0.681124          465.79         177.652          476.55 
       0.687237         461.046         174.333         472.638 
       0.693381         455.366         171.087         468.959 
       0.699536         450.114         167.919         465.979 
       0.705665         448.196         164.846         461.926 
       0.711789         444.072         161.852         457.804 
       0.717957           440.2          158.91         455.257 
        0.72409         436.669         156.056         451.768 
       0.730186         432.092          153.29         448.155 
       0.736317         428.652         150.576          443.32 
       0.742472          427.13         147.918         439.448 
       0.748622         422.362         145.328         435.961 
        0.75476         417.798         142.808         435.453 
       0.760888         413.085         140.354         430.138 
       0.767043         413.535         137.949         427.099 
       0.773185         407.778         135.607         423.937 
       0.779291         402.675         133.334         420.093 
       0.785407         400.686         131.111         417.569 
       0.791564         396.519         128.925         414.964 
       0.797719         394.092         126.791         411.582 
       0.803834         390.964         124.719         409.197 
       0.809972         388.519         122.686         406.335 
       0.816124         388.702         120.694         401.509 
       0.822261         382.025         118.753         399.441 
       0.828378          380.29          116.86         396.522 
       0.834502          377.94         115.008         394.749 
       0.840667         372.827         113.185         391.823 
       0.846816          371.61         111.406         389.273 
       0.852925         368.144         109.678         386.396 
       0.859047         367.336         107.983         383.669 
       0.865192         363.769         106.319         381.238 
       0.871341         360.603         104.689         378.745 
       0.877463         358.185         103.102         376.448 
       0.883569         355.692         101.551         374.189 
       0.889708         352.909         100.026         370.972 
       0.895864         348.855         98.5276         368.956 
       0.902008         348.202         97.0639         366.413 
       0.908149         345.971         95.6312         363.138 
       0.914301         341.789         94.2255         361.458 
       0.920448         338.999         92.8497         358.201 
       0.926574          336.38         91.5066         356.147 
       0.932687         336.569         90.1932         353.318 
       0.938823         332.094         88.9013         352.859 
       0.944975         331.383          87.632          350.64 
       0.951105         328.372         86.3924         347.761 
       0.957225         325.632         85.1791         345.724 
       0.963368         321.823         83.9854         343.058 
       0.969511         320.192         82.8147          340.82 
       0.975621         317.728          81.673         339.869 
       0.981748         317.861         80.5501         337.331 
       0.987916         314.474         79.4414         335.869 
        0.99406          310.39          78.358         333.845 
        1.00019         310.456         77.2973         330.606 
        1.00632         308.048         76.2573         328.511 
        1.01246         305.226         75.2352         326.495 
        1.01859         305.199         74.2337         324.787 
        1.02471         301.423         73.2519          323.57 
        1.03085         298.535         72.2846         321.838 
        1.03698         297.793         71.3371          320.15 
        1.04314         295.166         70.4027         317.834 
        1.04929         292.823         69.4875         315.515 
        1.05541         291.958         68.5924         313.705 
        1.06154         288.642          67.711         311.974 
        1.06769         287.567         66.8439         310.267 
        1.07382         285.823         65.9951         308.206 
        1.07993          283.64         65.1631         306.764 
        1.08607         282.748         64.3421         304.936 
        1.09222         280.385         63.5346         303.023 
        1.09836         277.839         62.7421         302.126 
        1.10449         275.241         61.9642         300.038 
        1.11063          273.28         61.1988         298.087 
        1.11677         272.696         60.4467          296.41 
         1.1229         270.795         59.7087         295.106 
        1.12903         268.657         58.9826         293.624 
        1.13518         266.922          58.268         291.709 
        1.14131         265.158         57.5658         290.172 
        1.14745         264.463         56.8757         288.534 
        1.15359         261.849         56.1969         286.884 
        1.15973          261.06          55.529          285.18 
        1.16584         258.149         54.8751         282.913 
        1.17197         257.754         54.2309         281.887 
        1.17811         255.369         53.5952         280.893 
        1.18424         253.706         52.9716         279.389 
        1.19038         252.666         52.3562         277.856 
        1.19652         250.749          51.751         276.673 
        1.20267          249.78         51.1554         274.318 
        1.20881          247.77         50.5694         273.593 
        1.21495          245.81         49.9937         271.395 
        1.22108         244.882          49.427         270.181 
         1.2272          242.96         48.8706          268.03 
        1.23334         241.312         48.3216         267.062 
        1.23949         239.951         47.7797         266.417 
        1.24562          238.65         47.2478         264.546 
        1.25174         235.794         46.7248         263.535 
        1.25789         234.531         46.2083         262.019 
        1.26402         233.616         45.7005         260.328 
        1.27014         231.908         45.2017         259.446 
        1.27628         230.598         44.7088         258.573 
        1.28244         229.937         44.2225         256.762 
        1.28858         227.763         43.7441         255.266 
        1.29471         225.638         43.2739         253.702 
        1.30084          224.55         42.8111         252.438 
        1.30697         223.036         42.3545         251.457 
        1.31312         221.641         41.9039         249.779 
        1.31925         221.096         41.4613         248.239 
        1.32537         219.594         41.0257         247.401 
        1.33151          217.68         40.5948         246.209 
        1.33765         216.361         40.1704         244.697 
        1.34378           215.3          39.753         243.519 
        1.34992         213.976         39.3412         242.053 
        1.35606         213.206         38.9345         240.633 
         1.3622         211.671         38.5343         239.567 
        1.36833          209.77         38.1408         238.567 
        1.37445         208.124          37.753         236.879 
        1.38059         206.969         37.3694         236.155 
        1.38675         205.856         36.9903         234.954 
        1.39288         204.411          36.618          233.06 
        1.39901          204.19         36.2511         232.458 
        1.40515         202.414         35.8884         231.504 
         1.4113         200.514         35.5308         230.017 
        1.41742         199.954         35.1795          228.94 
        1.42355         197.901         34.8324         228.173 
         1.4297         196.995         34.4889         226.846 
        1.43585         195.363         34.1503         225.711 
        1.44198         194.549         33.8175         224.498 
        1.44809         193.715         33.4899         223.354 
        1.45423         191.831         33.1654         222.129 
        1.46036         191.286         32.8458         221.048 
        1.46649         189.836         32.5304         220.341 
        1.47263         188.626         32.2189         219.606 
        1.47877         187.609         31.9116         218.109 
        1.48491          186.08         31.6079         217.012 
        1.49104         185.424         31.3089         216.176 
        1.49718         183.338         31.0135          214.71 
        1.50333         182.668         30.7215         213.832 
        1.50947         181.739         30.4338         212.955 
         1.5156         180.359         30.1504         211.775 
        1.52172           179.3         29.8705         210.682 
        1.52787         178.028         29.5937         209.722 
          1.534         177.472         29.3207         208.634 
        1.54013         175.639         29.0515         207.721 
        1.54627         175.233         28.7852         206.868 
        1.55241         173.632         28.5222         205.792 
        1.55855         172.727         28.2629         204.621 
        1.56467          171.74         28.0076         203.629 
         1.5708         170.789         27.7547         202.954 
        1.57695           169.3         27.5046         202.003 
        1.58308         168.934         27.2582          200.82 
        1.58922         167.673         27.0146         199.912 
        1.59535         166.299         26.7742         198.996 
         1.6015         165.831         26.5363         197.915 
        1.60764         164.455         26.3015         196.916 
        1.61376         163.274         26.0702         196.234 
        1.61989         162.349         25.8415         195.502 
        1.62604          161.58         25.6151         194.449 
        1.63218         160.534         25.3915         193.489 
        1.63831         159.471         25.1712         192.617 
        1.64444         158.668         24.9534         191.515 
        1.65059         157.735         24.7377         190.813 
        1.65673          156.62         24.5248         189.932 
        1.66285         155.942          24.315         188.934 
        1.66898         154.993         24.1076         188.124 
        1.67512         154.149         23.9022         187.311 
        1.68127         152.812         23.6991         186.461 
         1.6874         151.382         23.4987         185.716 
        1.69353         151.093         23.3009         185.044 
        1.69967         150.101         23.1049         183.914 
        1.70581          149.19         22.9112         182.952 
        1.71193         148.127         22.7205         182.187 
        1.71806         147.443         22.5316         181.119 
        1.72421         146.601         22.3444         180.425 
        1.73035         145.513         22.1596         179.677 
        1.73649         145.001          21.977         178.742 
        1.74262         143.856         21.7966         178.191 
        1.74876         143.318         21.6181          177.36 
        1.75489         141.834          21.442         176.376 
        1.76101         141.341         21.2679         175.566 
        1.76715         140.423         21.0956         174.771 
        1.77329         139.854         20.9249         173.918 
        1.77943         138.674         20.7561         173.078 
        1.78557         137.908         20.5894         172.346 
        1.79171           137.1         20.4245         171.742 
        1.79785         136.225         20.2614         171.042 
        1.80399         135.483         20.1001         170.089 
        1.81012         134.661         19.9408         169.266 
        1.81625         133.851         19.7834         168.638 
        1.82239         133.277         19.6274         167.993 
        1.82853         132.597         19.4731         167.192 
        1.83466         131.607         19.3207         166.301 
        1.84078         130.965         19.1701         165.528 
        1.84692         129.883         19.0208         165.012 
        1.85306         129.271          18.873         164.256 
         1.8592         128.149          18.727         163.462 
        1.86533         127.542         18.5826         162.952 
        1.87147         126.621         18.4396         162.119 
