# k  (h/Mpc)    P(k)  (Mpc/h)^3    P_linear(k)  (Mpc/h)^3     P_NL(k)  ShotnoiseSubtracted = false
     0.00783031         6774.67         6855.12         6850.03 
       0.013688         9207.82         9162.48         9119.93 
       0.019231         9895.88         9896.54         9824.51 
      0.0249154         9561.18         9720.18         9641.44 
      0.0312784         8854.49         8941.92         8856.51 
      0.0375637         7972.52         7998.31         7910.06 
      0.0433917          7074.3         7199.15         7103.73 
      0.0492413         6495.92         6559.76         6463.57 
      0.0555754         5885.69         6050.74         5954.23 
      0.0619321         5647.16         5671.38         5571.22 
       0.067871         5221.12         5364.57         5264.53 
      0.0738098         4901.86         5047.88         4921.26 
      0.0800417         4489.98         4675.82         4552.28 
      0.0862327         4136.89         4270.97         4176.13 
      0.0921407          3798.4         3879.68          3790.1 
      0.0982031         3420.17         3508.03         3453.12 
       0.104506         3179.59         3182.73          3157.3 
       0.110769         2931.32         2933.26         2895.63 
       0.116806         2736.67         2756.73         2720.31 
       0.122832         2620.97         2625.65         2598.21 
       0.129052         2463.82         2513.92         2487.77 
       0.135211         2357.62         2404.64         2378.51 
       0.141259         2266.87         2284.68         2271.42 
       0.147318            2149         2148.42         2150.07 
       0.153489         1984.72          1999.1         1985.11 
       0.159709         1871.17         1849.79         1859.59 
       0.165845         1784.91         1715.72         1762.57 
       0.171974         1668.41         1603.09         1654.95 
       0.178125         1584.16         1513.87         1592.79 
       0.184229         1524.19         1446.02         1522.58 
        0.19034         1434.03         1392.17         1469.22 
       0.196428         1415.41         1344.64          1408.8 
       0.202534         1375.41         1296.13         1365.62 
       0.208729         1315.18         1241.74          1303.6 
       0.214876            1251         1181.86         1266.38 
       0.220989         1215.49         1118.82          1215.8 
       0.227147         1148.26         1055.88         1160.53 
        0.23329         1101.75          997.77         1121.99 
       0.239377         1078.63         947.651         1079.38 
       0.245482         1009.97         905.792         1030.93 
       0.251667          1001.4         871.049         1007.24 
       0.257832         967.618         841.858         976.251 
       0.263955         938.252         815.498         947.634 
       0.270079          909.77          789.26          920.42 
        0.27624         900.548         761.473         890.751 
       0.282372         862.551         732.013         865.602 
        0.28843         845.076         701.807         837.934 
       0.294538         805.937         671.548         815.748 
       0.300721         802.152         642.538         793.637 
        0.30691         766.207         616.247         775.916 
       0.313033         751.421         593.374         750.838 
       0.319153         730.859         573.497         732.956 
       0.325316          709.69         555.752         720.643 
        0.33145         691.546         539.469         696.037 
       0.337538         684.164          523.76         681.221 
       0.343633          663.79         507.901         672.573 
       0.349808         643.733         491.444         659.009 
       0.355968         638.808         474.772         646.181 
       0.362074         626.725         458.389         630.626 
       0.368217         610.223           442.5         611.951 
       0.374374         587.246         427.609         600.524 
       0.380519         582.002         413.958         587.156 
       0.386598         569.394          401.67         577.851 
       0.392688         566.316         390.388         565.318 
        0.39888         550.389         379.647         555.611 
       0.405048         540.825          369.39         549.647 
       0.411186         530.763         359.358         535.712 
       0.417313         521.899         349.369         523.509 
       0.423458         513.302         339.409         515.441 
       0.429607          502.59         329.566         505.083 
       0.435692         491.617         320.096         496.277 
       0.441815         488.784         310.992         492.337 
       0.447964         479.266         302.363         482.961 
       0.454126         464.577         294.239         471.594 
       0.460267         459.487         286.651         468.727 
       0.466387         454.451         279.493         459.695 
        0.47254         445.314         272.581         453.893 
       0.478662          443.88         265.897          445.73 
       0.484765          432.04         259.378         436.595 
       0.490885         427.164         252.948          431.53 
       0.497035         420.149         246.598         427.044 
       0.503198         412.345           240.4          420.43 
       0.509342         409.164         234.433         415.577 
       0.515458         404.968         228.733         412.594 
       0.521598         398.302         223.254         404.705 
       0.527764         390.705             218         398.624 
       0.533884         387.843         213.017         394.239 
           0.54         382.958         208.227         389.253 
       0.546137         381.412         203.567         385.059 
       0.552299         374.156         199.004          379.33 
       0.558452         370.631         194.557         375.141 
       0.564573         364.584         190.243         371.947 
       0.570708         359.008         186.029         368.063 
       0.576825         354.046         181.944         361.421 
       0.582926         351.272         177.992          357.37 
       0.589034         346.952         174.166         353.554 
       0.595184         343.881         170.451         348.404 
       0.601379         340.882         166.847         346.918 
       0.607522         334.752         163.391         342.667 
       0.613639         333.499         160.053         339.146 
       0.619772         325.379         156.794         336.181 
       0.625918         324.082          153.61         333.137 
       0.632068         319.885         150.505         327.908 
       0.638161         318.628         147.508          325.86 
         0.6443         312.978          144.57         322.673 
       0.650464         310.608         141.704         317.444 
       0.656582         309.358         138.938         314.952 
       0.662703         305.821         136.248         312.978 
       0.668861         301.103         133.618         309.731 
       0.675024         298.134         131.058          306.33 
       0.681124         297.156         128.595         303.218 
       0.687237         292.978         126.192          300.11 
       0.693381         289.008         123.843         297.438 
       0.699536         287.033          121.55         295.235 
       0.705665         285.851         119.325         293.486 
       0.711789         281.583         117.157         289.592 
       0.717957         279.835         115.028         287.516 
        0.72409         276.814         112.962         286.091 
       0.730186         273.421          110.96         283.474 
       0.736317         271.477         108.995         280.236 
       0.742472          270.18         107.071         277.791 
       0.748622         268.158         105.197         275.068 
        0.75476          265.79         103.373         273.584 
       0.760888         262.239         101.596         270.351 
       0.767043         261.308         99.8555         268.951 
       0.773185          258.35         98.1603          267.16 
       0.779291         254.248          96.515         264.596 
       0.785407         253.591         94.9057         262.151 
       0.791564         251.278         93.3234         260.497 
       0.797719         248.671         91.7784         258.942 
       0.803834         247.414         90.2785         256.387 
       0.809972         244.779          88.807          254.57 
       0.816124         245.124         87.3654         252.739 
       0.822261         241.198         85.9601         250.719 
       0.828378         239.564         84.5903         248.167 
       0.834502          239.32         83.2495         247.262 
       0.840667         235.297         81.9294         245.751 
       0.846816         234.436         80.6421         243.423 
       0.852925         232.442          79.391         241.482 
       0.859047         230.651         78.1642         239.887 
       0.865192         229.232         76.9596         238.498 
       0.871341         226.747           75.78         236.445 
       0.877463         225.501         74.6308         235.396 
       0.883569         223.448         73.5087         233.692 
       0.889708         221.942         72.4042         232.043 
       0.895864         219.478         71.3199         230.801 
       0.902008         218.843         70.2604          228.49 
       0.908149         217.551         69.2233         226.703 
       0.914301         215.124         68.2058         225.974 
       0.920448         213.584         67.2099         223.964 
       0.926574         212.596         66.2377         221.956 
       0.932687          211.41          65.287         220.337 
       0.938823         209.163         64.3518         219.754 
       0.944975         207.784          63.433         218.663 
       0.951105         206.648         62.5357         216.894 
       0.957225         204.152         61.6575         215.367 
       0.963368         202.489         60.7934         213.241 
       0.969511         201.579          59.946         212.287 
       0.975621           200.3         59.1196         212.345 
       0.981748         199.946         58.3067         210.119 
       0.987916         197.172         57.5042         209.266 
        0.99406         196.386           56.72         207.916 
        1.00019           195.6         55.9522         206.117 
        1.00632         193.774         55.1994         204.559 
        1.01246         192.572         54.4595          203.13 
        1.01859         190.945         53.7346         202.545 
        1.02471          190.26         53.0239         201.816 
        1.03085         188.293         52.3237         200.345 
        1.03698         186.797         51.6379         198.893 
        1.04314         185.914         50.9615         197.939 
        1.04929         184.393          50.299         196.826 
        1.05541         183.536         49.6511          195.74 
        1.06154         182.258         49.0131          194.79 
        1.06769         181.971         48.3855          193.69 
        1.07382         180.675          47.771         192.458 
        1.07993         179.266         47.1687         191.291 
        1.08607         177.894         46.5745         190.518 
        1.09222         176.862           45.99         189.353 
        1.09836         175.347         45.4163         188.188 
        1.10449          174.07         44.8532         186.978 
        1.11063         173.119         44.2992         185.642 
        1.11677         172.469         43.7548         184.881 
         1.1229         170.688         43.2206         184.087 
        1.12903         169.838         42.6949         182.938 
        1.13518         169.558         42.1777         181.938 
        1.14131         167.788         41.6694         180.767 
        1.14745         167.096         41.1699         179.869 
        1.15359         165.797         40.6785         178.822 
        1.15973         165.447         40.1951         178.037 
        1.16584         163.784         39.7217         176.898 
        1.17197         163.046         39.2554         175.823 
        1.17811          162.07         38.7953         175.324 
        1.18424         160.913         38.3439         174.266 
        1.19038         160.273         37.8984         173.465 
        1.19652         159.281         37.4603         172.523 
        1.20267         158.113         37.0292          171.57 
        1.20881         157.155          36.605         170.911 
        1.21495         156.156         36.1883         169.455 
        1.22108         155.397         35.7781         169.113 
         1.2272         154.342         35.3753         167.935 
        1.23334          153.32         34.9779         167.285 
        1.23949         151.571         34.5857         166.244 
        1.24562         151.473         34.2007         165.427 
        1.25174         149.848         33.8221         164.644 
        1.25789         149.317         33.4482         163.856 
        1.26402         148.685         33.0806         162.854 
        1.27014         147.464         32.7196          162.74 
        1.27628         146.892         32.3628         162.062 
        1.28244         145.985         32.0108         160.424 
        1.28858         145.194         31.6645          159.66 
        1.29471         143.801         31.3241         159.237 
        1.30084         143.114         30.9891         158.246 
        1.30697         142.341         30.6586         157.428 
        1.31312         142.026         30.3324         156.541 
        1.31925         140.724         30.0121         155.833 
        1.32537         140.333         29.6967         155.121 
        1.33151         138.732         29.3848         154.397 
        1.33765         138.272         29.0776         153.746 
        1.34378         137.228         28.7755         152.758 
        1.34992          137.05         28.4774         152.187 
        1.35606          135.97          28.183         151.267 
         1.3622         135.009         27.8934         150.612 
        1.36833         134.322         27.6085         149.774 
        1.37445         133.289         27.3278         148.906 
        1.38059         133.075         27.0501         148.585 
        1.38675         131.972         26.7757         147.593 
        1.39288         131.328         26.5062         147.065 
        1.39901         130.714         26.2406           146.4 
        1.40515         130.055         25.9781          145.71 
         1.4113         128.445         25.7192         145.108 
        1.41742         128.392          25.465         144.487 
        1.42355         127.343         25.2137         143.641 
         1.4297         126.591         24.9651         142.906 
        1.43585         125.759         24.7199         142.313 
        1.44198         125.403         24.4791         141.746 
        1.44809         124.349         24.2419         140.856 
        1.45423         123.481          24.007         140.102 
        1.46036         123.083         23.7757         139.563 
        1.46649         122.491         23.5473         139.155 
        1.47263         121.953         23.3219         138.595 
        1.47877         121.187         23.0995         137.633 
        1.48491         120.243         22.8796         137.222 
        1.49104         119.542         22.6632         136.556 
        1.49718         118.834         22.4493         135.604 
        1.50333         118.142          22.238         135.209 
        1.50947         117.274         22.0298         134.656 
         1.5156         117.121         21.8246         134.016 
        1.52172         116.055          21.622         133.597 
        1.52787          115.86         21.4216         132.705 
          1.534          115.17          21.224         132.166 
        1.54013         114.165         21.0291         131.571 
        1.54627         113.534         20.8364         130.994 
        1.55241         112.925          20.646         130.543 
        1.55855         112.483         20.4583          129.68 
        1.56467         111.706         20.2735         129.062 
         1.5708         110.971         20.0904         128.697 
        1.57695         110.665         19.9094         128.139 
        1.58308         109.541          19.731         127.491 
        1.58922         109.455         19.5547         126.915 
        1.59535         108.771         19.3807         126.363 
         1.6015         108.178         19.2085         125.777 
        1.60764         107.481         19.0385         125.347 
        1.61376         106.864         18.8711         124.958 
        1.61989         106.432         18.7056         124.238 
        1.62604         105.504         18.5417         123.587 
        1.63218         105.324         18.3798         123.091 
        1.63831         104.567         18.2203         122.701 
        1.64444         104.004         18.0627         122.191 
        1.65059         103.209         17.9065         121.374 
        1.65673         102.591         17.7524         120.937 
        1.66285         102.303         17.6006         120.583 
        1.66898         101.611         17.4504         119.935 
        1.67512          100.95         17.3018         119.548 
        1.68127         100.366         17.1547         118.979 
         1.6874         99.8406         17.0097         118.263 
        1.69353         99.3468         16.8665         117.785 
        1.69967         98.7581         16.7246         117.406 
        1.70581         98.2899         16.5844         116.855 
        1.71193         97.8494         16.4464         116.309 
        1.71806         96.9624         16.3096         116.082 
        1.72421         96.7669         16.1742         115.494 
        1.73035          96.013         16.0404         114.862 
        1.73649         95.5351         15.9082         114.453 
        1.74262         95.0472         15.7776         114.007 
        1.74876         94.5249         15.6484         113.473 
        1.75489          93.911         15.5209         112.939 
        1.76101         93.5557         15.3949         112.424 
        1.76715          92.898         15.2702         111.862 
        1.77329         92.4777         15.1466         111.495 
        1.77943         92.0694         15.0244         111.105 
        1.78557         91.5653         14.9038         110.472 
        1.79171         90.9764         14.7844         110.031 
        1.79785         90.5743         14.6664         109.696 
        1.80399         89.9731         14.5496         109.202 
        1.81012           89.62         14.4343         108.765 
        1.81625         88.9494         14.3203         108.303 
        1.82239          88.525         14.2074         107.818 
        1.82853         88.2058         14.0958         107.466 
        1.83466         87.5098         13.9854         106.963 
        1.84078         87.0896         13.8764         106.433 
        1.84692         86.6362         13.7684         106.248 
        1.85306         86.1139         13.6614         105.807 
         1.8592         85.4584         13.5557         105.211 
        1.86533         85.0776         13.4512         104.845 
        1.87147         84.4985         13.3477         104.228 
        1.87761         84.1213         13.2452         103.683 
