# k  (h/Mpc)    Pcb(k)  (Mpc/h)^3    Pcb_linear(k) (Mpc/h)^3    Pcb_NL(k) (Mpc/h)^3   ShotnoiseSubtracted = false
     0.00783031         573.681         578.507         578.071 
       0.013688         772.112         773.648          771.21 
       0.019231         835.301          835.82         832.036 
      0.0249154         816.622         821.028         818.312 
      0.0312784         754.076         755.354             754 
      0.0375637         676.545         675.678         674.763 
      0.0433917         607.024         608.186         607.737 
      0.0492413         554.417         554.184         553.854 
      0.0555754         509.342          511.19         510.718 
      0.0619321         480.594         479.147         478.605 
       0.067871         451.818          453.23         452.469 
      0.0738098         424.697         426.478         425.398 
      0.0800417         392.405         395.046         394.022 
      0.0862327         359.345         360.844         360.111 
      0.0921407         327.108         327.786          327.23 
      0.0982031         295.227         296.387         296.191 
       0.104506         269.558         268.904         269.002 
       0.110769         248.344         247.827         247.808 
       0.116806         232.249         232.913         232.827 
       0.122832         222.025         221.839         221.798 
       0.129052          211.54         212.399         212.308 
       0.135211         202.063         203.167         203.053 
       0.141259         192.669         193.031             193 
       0.147318         181.816         181.519         181.674 
       0.153489         168.707         168.904         168.921 
       0.159709         156.408         156.288         156.547 
       0.165845         146.258         144.961         145.606 
       0.171974         135.808         135.445          136.09 
       0.178125         128.484         127.907         128.804 
       0.184229         123.101         122.175         123.091 
        0.19034         117.489         117.625         118.506 
       0.196428         114.112         113.608         114.284 
       0.202534         110.711          109.51         110.222 
       0.208729         105.623         104.915         105.596 
       0.214876         100.042         99.8559         100.798 
       0.220989         95.8121         94.5296         95.5803 
       0.227147          89.614         89.2117         90.2869 
        0.23329          84.885          84.302         85.6233 
       0.239377         80.9792         80.0673         81.5323 
       0.245482         77.0441         76.5305         77.8855 
       0.251667         74.7322         73.5951         75.0724 
       0.257832         72.1352         71.1289         72.5791 
       0.263955         69.8694         68.9018         70.2811 
       0.270079         67.7096          66.685          68.008 
        0.27624         65.7946         64.3372         65.5954 
       0.282372          63.244         61.8481         63.1916 
        0.28843         60.4478          59.296         60.6819 
       0.294538         57.9647         56.7395          58.219 
       0.300721         55.9373         54.2884         55.8914 
        0.30691         53.4088          52.067         53.7033 
       0.313033         51.5566         50.1346         51.7464 
       0.319153         49.3219          48.455         50.1656 
       0.325316         48.5238         46.9558         48.7194 
        0.33145         46.9588           45.58         47.2449 
       0.337538         45.6754         44.2527         45.8698 
       0.343633         44.2199         42.9128         44.5341 
       0.349808         42.9426         41.5225         43.1941 
       0.355968         41.5801         40.1137         41.9544 
       0.362074           40.18         38.7295         40.5169 
       0.368217         38.9004         37.3871         39.0641 
       0.374374         37.5112         36.1289         37.9253 
       0.380519          36.526         34.9757         36.7307 
       0.386598          35.524         33.9373         35.7365 
       0.392688         34.6959         32.9841         34.7871 
        0.39888         33.6983         32.0766         33.8438 
       0.405048         32.8974           31.21         32.9194 
       0.411186         32.1186         30.3624         32.2124 
       0.417313         31.0586         29.5184         31.2887 
       0.423458          30.297         28.6768         30.4836 
       0.429607         29.3944         27.8452         29.6126 
       0.435692         28.5569         27.0451         28.8725 
       0.441815         27.8909         26.2759         28.1947 
       0.447964         27.3557         25.5468         27.4124 
       0.454126         26.4055         24.8606         26.7011 
       0.460267         25.8123         24.2193         26.1035 
       0.466387         25.0778         23.6146         25.4377 
        0.47254         24.6362         23.0305         24.8752 
       0.478662         24.1313         22.4658          24.285 
       0.484765         23.4883          21.915         23.7379 
       0.490885         22.9205         21.3718         23.2904 
       0.497035         22.5738         20.8352         22.7668 
       0.503198         21.9837         20.3115         22.1363 
       0.509342         21.4638         19.8075         21.6779 
       0.515458         20.9346         19.3258         21.2693 
       0.521598         20.5252         18.8629         20.6907 
       0.527764          20.039          18.419         20.2276 
       0.533884         19.6857          17.998         19.8164 
           0.54         19.2625         17.5932         19.3908 
       0.546137         18.9008         17.1995         19.0348 
       0.552299         18.5334          16.814         18.5692 
       0.558452         17.9894         16.4383          18.201 
       0.564573         17.7368         16.0737         17.9273 
       0.570708         17.3963         15.7178         17.5482 
       0.576825         16.9447         15.3726         17.1859 
       0.582926          16.668         15.0387         16.8751 
       0.589034         16.1868         14.7154         16.5789 
       0.595184         15.9405         14.4016         16.1598 
       0.601379         15.6181          14.097         15.9352 
       0.607522         15.3827          13.805         15.6129 
       0.613639         15.1782         13.5229         15.3134 
       0.619772         14.7825         13.2477         15.0741 
       0.625918         14.6175         12.9786         14.7717 
       0.632068         14.3818         12.7162         14.4869 
       0.638161         14.0412         12.4631         14.2223 
         0.6443         13.7593         12.2149         13.9531 
       0.650464         13.4765         11.9727         13.7585 
       0.656582         13.3481          11.739         13.5061 
       0.662703         13.1077         11.5117         13.2622 
       0.668861         12.8765         11.2895         13.0712 
       0.675024         12.6121         11.0732          12.812 
       0.681124         12.3925          10.865         12.5972 
       0.687237           12.21         10.6621         12.3499 
       0.693381         12.0335         10.4636          12.138 
       0.699536         11.7099         10.2698         11.9473 
       0.705665         11.5655         10.0819         11.8188 
       0.711789         11.3833         9.89872         11.6061 
       0.717957         11.1887          9.7188         11.3916 
        0.72409         11.0024         9.54428         11.2264 
       0.730186         10.8521         9.37509         11.0268 
       0.736317          10.731         9.20909         10.8517 
       0.742472         10.5591         9.04655         10.7473 
       0.748622          10.374         8.88818         10.5629 
        0.75476         10.1408         8.73406         10.3706 
       0.760888         10.0326         8.58395         10.2298 
       0.767043         9.90908         8.43687         10.0973 
       0.773185         9.70478         8.29364         9.95712 
       0.779291         9.61017         8.15462         9.81058 
       0.785407         9.45583         8.01865         9.65326 
       0.791564         9.30049         7.88497         9.51983 
       0.797719         9.16794         7.75443         9.34985 
       0.803834         9.06718          7.6277         9.22538 
       0.809972         8.96125         7.50337         9.13832 
       0.816124         8.77468         7.38157         8.97438 
       0.822261         8.64307         7.26284          8.8495 
       0.828378         8.54276          7.1471         8.73029 
       0.834502         8.45206         7.03381         8.60575 
       0.840667         8.29255         6.92228         8.49035 
       0.846816         8.16317         6.81352          8.3978 
       0.852925         8.08689         6.70781          8.2886 
       0.859047          7.9768         6.60415         8.18493 
       0.865192         7.89361         6.50238          8.0666 
       0.871341         7.79385         6.40271         7.96796 
       0.877463         7.68585         6.30561         7.84891 
       0.883569         7.54875         6.21081         7.76514 
       0.889708         7.42718         6.11749         7.66333 
       0.895864          7.3659         6.02588         7.55418 
       0.902008         7.26222         5.93636         7.46856 
       0.908149         7.17741         5.84873         7.37702 
       0.914301         7.05842         5.76276          7.2857 
       0.920448         6.96189         5.67862         7.17379 
       0.926574         6.87075         5.59648         7.10206 
       0.932687         6.81124         5.51615         6.98011 
       0.938823         6.72361         5.43714         6.93604 
       0.944975         6.62961         5.35951         6.82746 
       0.951105         6.56183         5.28369         6.74261 
       0.957225         6.52244         5.20949         6.69226 
       0.963368         6.42173         5.13649         6.59881 
       0.969511         6.33956         5.06489         6.52761 
       0.975621         6.24839         4.99506         6.42094 
       0.981748         6.18916         4.92638         6.35407 
       0.987916         6.11773         4.85858         6.30449 
        0.99406         6.01754         4.79232         6.23157 
        1.00019         5.94352         4.72745         6.17169 
        1.00632         5.89715         4.66384         6.08992 
        1.01246         5.83403         4.60133          6.0234 
        1.01859         5.75848         4.54008          5.9474 
        1.02471         5.69137         4.48003         5.87331 
        1.03085         5.63244         4.42087         5.80658 
        1.03698         5.55467         4.36293         5.75023 
        1.04314         5.50321         4.30578          5.6874 
        1.04929         5.42962          4.2498         5.62861 
        1.05541         5.37205         4.19506         5.57646 
        1.06154         5.31778         4.14116         5.51676 
        1.06769         5.27854         4.08813         5.46358 
        1.07382         5.19984         4.03621         5.40302 
        1.07993         5.13283         3.98533         5.34309 
        1.08607         5.10194         3.93512         5.28299 
        1.09222         5.04159         3.88573          5.2213 
        1.09836         4.99948         3.83726         5.17225 
        1.10449         4.93912         3.78969         5.12253 
        1.11063          4.8844         3.74287         5.06198 
        1.11677         4.83345         3.69688         5.01938 
         1.1229         4.78102         3.65174         4.97521 
        1.12903         4.72939         3.60733         4.92492 
        1.13518         4.68952         3.56363         4.87957 
        1.14131         4.61995         3.52068          4.8219 
        1.14745         4.55723         3.47848         4.76269 
        1.15359         4.53716         3.43696         4.73128 
        1.15973         4.47529         3.39612         4.68447 
        1.16584         4.44677         3.35612         4.64368 
        1.17197         4.39819         3.31672         4.59284 
        1.17811          4.3537         3.27784         4.54949 
        1.18424          4.3276         3.23971         4.50171 
        1.19038         4.27936         3.20207         4.46164 
        1.19652         4.23651         3.16505         4.42968 
        1.20267         4.19338         3.12863         4.36886 
        1.20881         4.14716         3.09279         4.33812 
        1.21495         4.11722         3.05758         4.30716 
        1.22108         4.07549         3.02292         4.26458 
         1.2272         4.05076         2.98889         4.21269 
        1.23334         3.99381         2.95531         4.18225 
        1.23949         3.95389         2.92218         4.15679 
        1.24562         3.93292         2.88964         4.11751 
        1.25174         3.88001         2.85766         4.06775 
        1.25789         3.85181         2.82607         4.03106 
        1.26402          3.8065         2.79501         3.99029 
        1.27014         3.76961          2.7645         3.96587 
        1.27628         3.75269         2.73436         3.93726 
        1.28244         3.70048         2.70462         3.89507 
        1.28858         3.67924         2.67536         3.85624 
        1.29471          3.6419          2.6466         3.82259 
        1.30084         3.60502          2.6183         3.80093 
        1.30697         3.58876         2.59037         3.76738 
        1.31312         3.52504         2.56281         3.73404 
        1.31925         3.51333         2.53575         3.70668 
        1.32537         3.48182          2.5091         3.67469 
        1.33151         3.45879         2.48275         3.64341 
        1.33765         3.41335         2.45679         3.60982 
        1.34378         3.38228         2.43126         3.58767 
        1.34992          3.3704         2.40608         3.55677 
        1.35606          3.3246         2.38121         3.51495 
         1.3622         3.30721         2.35673          3.4915 
        1.36833         3.27678         2.33266         3.47399 
        1.37445         3.24661         2.30895         3.44347 
        1.38059         3.22373         2.28549         3.41466 
        1.38675         3.20618          2.2623         3.38019 
        1.39288         3.16489         2.23953         3.36092 
        1.39901         3.13681         2.21709         3.33631 
        1.40515         3.11649         2.19491         3.30351 
         1.4113         3.09028         2.17304         3.28018 
        1.41742         3.06673         2.15156         3.26432 
        1.42355         3.04877         2.13033         3.22151 
         1.4297         3.00961         2.10932         3.21269 
        1.43585         2.99725         2.08861         3.19163 
        1.44198          2.9776         2.06826         3.14978 
        1.44809         2.93732         2.04822          3.1393 
        1.45423         2.91698         2.02837         3.10537 
        1.46036         2.89441         2.00883          3.0835 
        1.46649         2.86766         1.98954         3.06857 
        1.47263         2.84314         1.97049         3.04506 
        1.47877         2.81722         1.95169         3.01617 
        1.48491         2.79815         1.93312          2.9975 
        1.49104         2.78272         1.91483         2.97314 
        1.49718         2.76192         1.89676         2.95456 
        1.50333         2.73807         1.87891         2.93078 
        1.50947         2.71945         1.86131           2.908 
         1.5156         2.69898         1.84398         2.88976 
        1.52172         2.67831         1.82686         2.87006 
        1.52787         2.65484         1.80993         2.84562 
          1.534         2.64009         1.79323         2.82562 
        1.54013         2.61379         1.77677          2.8055 
        1.54627         2.58948         1.76048         2.78444 
        1.55241          2.5716          1.7444         2.76499 
        1.55855         2.55821         1.72854         2.74505 
        1.56467         2.53819         1.71293         2.72959 
         1.5708         2.50975         1.69746         2.70631 
        1.57695         2.50034         1.68216         2.68891 
        1.58308         2.48012         1.66709         2.67867 
        1.58922         2.46483          1.6522         2.65659 
        1.59535         2.44628         1.63749          2.6364 
         1.6015         2.42886         1.62294         2.61699 
        1.60764         2.41381         1.60858         2.60221 
        1.61376          2.3951         1.59444         2.58967 
        1.61989         2.37568         1.58045         2.56898 
        1.62604         2.35782          1.5666         2.55253 
        1.63218         2.34875         1.55293         2.53733 
        1.63831         2.32163         1.53945          2.5186 
        1.64444         2.30564         1.52613             2.5 
        1.65059         2.29415         1.51294         2.48348 
        1.65673         2.27743         1.49992         2.46987 
        1.66285         2.25693         1.48709         2.45401 
        1.66898         2.24734          1.4744         2.43422 
        1.67512         2.22548         1.46184         2.42022 
        1.68127         2.21251         1.44942         2.40857 
         1.6874         2.20153         1.43717         2.39373 
        1.69353         2.17705         1.42507         2.37418 
        1.69967         2.16481         1.41308         2.35811 
        1.70581         2.15761         1.40123          2.3474 
        1.71193         2.13855         1.38957         2.33589 
        1.71806         2.12758         1.37802          2.3167 
        1.72421         2.11142         1.36657         2.30166 
        1.73035         2.09563         1.35527         2.28852 
        1.73649         2.08213          1.3441          2.2732 
        1.74262         2.06856         1.33307         2.25777 
        1.74876         2.05728         1.32215         2.24652 
        1.75489         2.03894         1.31138         2.23412 
        1.76101         2.02542         1.30073          2.2175 
        1.76715         2.01345         1.29019         2.20328 
        1.77329         1.99977         1.27975         2.19081 
        1.77943         1.98527         1.26943         2.17826 
        1.78557         1.97357         1.25923         2.16543 
        1.79171         1.96397         1.24915         2.15251 
        1.79785         1.94765         1.23917         2.13937 
        1.80399         1.93797         1.22931         2.12582 
        1.81012         1.92881         1.21957         2.11238 
        1.81625         1.91059         1.20994         2.10048 
        1.82239         1.89874          1.2004          2.0912 
        1.82853         1.88102         1.19096         2.08343 
        1.83466         1.87525         1.18164         2.07143 
        1.84078         1.86273         1.17243         2.05585 
        1.84692         1.85256          1.1633         2.04253 
        1.85306         1.83781         1.15426         2.03016 
         1.8592         1.82934         1.14533         2.01879 
        1.86533         1.81634          1.1365         2.00883 
        1.87147         1.80713         1.12776         1.99732 
