# k  (h/Mpc)    P(k)  (Mpc/h)^3    P_linear(k)  (Mpc/h)^3     P_NL(k)  ShotnoiseSubtracted = false
     0.00783031         11101.7         11251.1         11238.4 
       0.013688         15143.6         15036.1         14948.9 
       0.019231         16226.9         16239.7         16090.1 
      0.0249154         15595.7         15949.8         15767.4 
      0.0312784         14449.4         14672.3           14454 
      0.0375637           13026         13123.8         12894.7 
      0.0433917         11500.8         11812.4         11558.3 
      0.0492413         10580.8         10763.2         10505.2 
      0.0555754         9523.45         9927.96         9671.81 
      0.0619321         9189.64         9305.47          9041.3 
       0.067871         8435.47         8802.03         8541.41 
      0.0738098         7918.46         8282.39         7954.11 
      0.0800417         7224.02         7671.91         7352.78 
      0.0862327         6671.75         7007.64         6761.23 
      0.0921407         6153.63         6365.62         6134.07 
      0.0982031          5545.6         5755.82         5609.24 
       0.104506         5189.76         5222.07         5149.69 
       0.110769         4789.27         4812.74         4715.26 
       0.116806         4484.16         4523.11         4428.11 
       0.122832         4285.37         4308.04         4234.45 
       0.129052         4010.07         4124.71         4056.66 
       0.135211         3838.65         3945.41         3874.44 
       0.141259         3702.75         3748.58         3712.47 
       0.147318          3518.2         3525.02         3518.98 
       0.153489         3246.54         3280.02         3243.28 
       0.159709         3078.88         3035.03         3054.31 
       0.165845         2964.27         2815.05         2918.12 
       0.171974         2785.14         2630.25         2751.22 
       0.178125         2647.64         2483.88         2665.98 
       0.184229         2542.49         2372.55         2544.21 
        0.19034         2406.71         2284.19          2460.1 
       0.196428         2373.97          2206.2          2362.1 
       0.202534         2296.16         2126.62         2294.71 
       0.208729          2205.6         2037.37          2186.8 
       0.214876         2117.32         1939.13         2131.88 
       0.220989         2055.46          1835.7         2060.05 
       0.227147         1962.76         1732.43         1981.77 
        0.23329         1888.67         1637.08         1922.85 
       0.239377         1863.86         1554.85         1852.48 
       0.245482         1750.96         1486.17         1775.42 
       0.251667         1743.15         1429.16         1739.84 
       0.257832         1679.74         1381.27         1689.49 
       0.263955         1628.56         1338.02         1644.94 
       0.270079         1579.59         1294.97         1601.29 
        0.27624         1565.59         1249.38          1554.4 
       0.282372         1499.92         1201.04         1521.09 
        0.28843         1494.46         1151.48         1482.66 
       0.294538         1424.68         1101.84         1443.76 
       0.300721         1419.25         1054.24         1403.33 
        0.30691         1363.44          1011.1         1382.96 
       0.313033          1338.5         973.571         1342.88 
       0.319153         1319.51         940.959         1308.71 
       0.325316         1276.24         911.844         1291.77 
        0.33145         1249.44         885.127         1248.62 
       0.337538          1232.6         859.354          1229.6 
       0.343633         1204.61         833.333         1216.28 
       0.349808         1168.13         806.331         1194.98 
       0.355968         1161.55         778.976         1175.41 
       0.362074         1149.08         752.096         1151.17 
       0.368217         1115.94         726.027         1122.24 
       0.374374         1075.58         701.594         1104.01 
       0.380519         1076.34         679.197         1083.18 
       0.386598         1051.32         659.036         1069.09 
       0.392688            1047         640.524         1046.02 
        0.39888         1018.24         622.901         1033.71 
       0.405048         1006.42         606.072         1020.87 
       0.411186         992.119         589.612         999.195 
       0.417313         972.605         573.222         984.788 
       0.423458         958.172         556.881         969.557 
       0.429607         943.704         540.731         951.164 
       0.435692         926.141         525.193         935.222 
       0.441815         921.723         510.257         932.019 
       0.447964         901.118         496.098         917.586 
       0.454126         891.261         482.769         894.787 
       0.460267         874.038          470.32         893.643 
       0.466387         863.546         458.575         876.691 
        0.47254         854.716         447.234         867.212 
       0.478662         848.959         436.267         855.513 
       0.484765         828.256         425.571         843.809 
       0.490885         822.484         415.022          830.31 
       0.497035         805.166         404.602         823.249 
       0.503198         800.428         394.432         813.336 
       0.509342         791.157         384.644         801.024 
       0.515458         787.617         375.291         797.091 
       0.521598         770.584         366.302         788.209 
       0.527764         753.924         357.681         779.377 
       0.533884         755.189         349.505         770.697 
           0.54         746.118         341.645         762.208 
       0.546137         741.178             334         753.264 
       0.552299         730.652         326.513          743.21 
       0.558452         726.536         319.217         737.628 
       0.564573         715.298         312.138         731.138 
       0.570708         708.753         305.225         724.408 
       0.576825         689.872         298.522         713.763 
       0.582926         693.108         292.038         707.613 
       0.589034           686.7          285.76         697.246 
       0.595184         679.492         279.666         692.131 
       0.601379         671.409         273.752         686.792 
       0.607522         662.524         268.082         678.141 
       0.613639         663.694         262.604          674.86 
       0.619772         646.678         257.258         673.309 
       0.625918          644.22         252.034         664.622 
       0.632068         636.527         246.938         659.262 
       0.638161         634.409         242.022         649.033 
         0.6443         621.892         237.202         646.285 
       0.650464         620.499         232.499         636.681 
       0.656582         618.184         227.961         632.119 
       0.662703         613.542         223.548         629.143 
       0.668861         602.586         219.232         625.288 
       0.675024         598.325         215.032         620.889 
       0.681124         595.263          210.99         610.848 
       0.687237         589.909         207.049         606.236 
       0.693381         583.274         203.193         601.296 
       0.699536         574.033         199.431          597.34 
       0.705665         574.055         195.781         591.838 
       0.711789         568.804         192.225         586.841 
       0.717957         563.529         188.731         584.749 
        0.72409         560.383         185.342         579.789 
       0.730186         553.003         182.056         574.919 
       0.736317         549.521         178.832         569.188 
       0.742472         547.231         175.676         564.618 
       0.748622         541.108         172.601         560.272 
        0.75476         533.602         169.608         560.461 
       0.760888         528.567         166.693         553.552 
       0.767043         528.799         163.837         548.313 
       0.773185         522.501         161.055         544.866 
       0.779291         517.769         158.356         540.057 
       0.785407         513.476         155.715         537.073 
       0.791564         508.051         153.119         534.756 
       0.797719         505.582         150.584         529.414 
       0.803834           501.6         148.123         526.818 
       0.809972         498.434         145.709         523.821 
       0.816124         497.976         143.344         516.557 
       0.822261         490.111         141.038         514.152 
       0.828378         487.658          138.79         510.818 
       0.834502         483.049          136.59         509.025 
       0.840667         478.387         134.425         505.124 
       0.846816         476.321         132.313         501.652 
       0.852925         471.403          130.26         498.378 
       0.859047         471.733         128.247         494.241 
       0.865192         466.225          126.27          491.04 
       0.871341         462.293         124.335         488.537 
       0.877463         460.334         122.449         485.378 
       0.883569         455.999         120.608          482.15 
       0.889708         453.288         118.796         478.094 
       0.895864         449.374         117.017         475.634 
       0.902008         446.981         115.279         472.773 
       0.908149         443.266         113.577         468.456 
       0.914301         439.185         111.908         465.542 
       0.920448         436.121         110.274         462.513 
       0.926574         430.563         108.679         459.392 
       0.932687         430.882         107.119         456.461 
       0.938823         425.453         105.584         455.506 
       0.944975         425.935         104.077         452.025 
       0.951105         420.024         102.605         447.995 
       0.957225         417.201         101.164         446.623 
       0.963368         413.254          99.746         443.512 
       0.969511         411.488         98.3557         440.271 
       0.975621         408.203         96.9996         438.012 
       0.981748         406.959          95.666         434.897 
       0.987916          403.76         94.3493         433.708 
        0.99406         397.236         93.0626         430.633 
        1.00019         396.796         91.8028         426.022 
        1.00632         394.361         90.5677         423.913 
        1.01246         391.053         89.3537         421.337 
        1.01859         391.062         88.1643         418.377 
        1.02471         385.726         86.9982         417.163 
        1.03085         383.153         85.8494         415.571 
        1.03698         382.082         84.7241         413.238 
        1.04314         378.377         83.6144          410.36 
        1.04929         374.483         82.5274          407.12 
        1.05541         374.097         81.4643         404.538 
        1.06154         369.187         80.4176         402.197 
        1.06769         366.885         79.3878         399.643 
        1.07382         365.108         78.3797         397.416 
        1.07993         362.677         77.3915         395.497 
        1.08607         361.647         76.4165          392.61 
        1.09222         358.251         75.4575         390.183 
        1.09836         355.659         74.5162         389.201 
        1.10449         351.984         73.5923         386.545 
        1.11063         349.119         72.6833         383.649 
        1.11677         348.686         71.7901         382.034 
         1.1229         346.673         70.9136         380.009 
        1.12903         343.233         70.0512         378.019 
        1.13518         340.254         69.2025         375.554 
        1.14131         338.894         68.3685         373.453 
        1.14745         336.534         67.5489         371.435 
        1.15359         334.161         66.7428         369.518 
        1.15973         332.158         65.9495         367.368 
        1.16584         329.619         65.1729         364.927 
        1.17197         328.695         64.4078         363.203 
        1.17811         325.595         63.6528         361.593 
        1.18424         322.625         62.9122         359.986 
        1.19038         321.019         62.1813         357.865 
        1.19652         318.671         61.4625         355.958 
        1.20267         317.681         60.7552         353.145 
        1.20881         315.755         60.0592         351.716 
        1.21495         312.815         59.3754         349.313 
        1.22108         311.188         58.7024          347.35 
         1.2272         308.975         58.0416          344.92 
        1.23334          306.63         57.3895         343.177 
        1.23949         305.419          56.746         342.187 
        1.24562         303.302         56.1143         340.297 
        1.25174         300.134         55.4932         338.557 
        1.25789         297.932         54.8796         336.758 
        1.26402         296.664         54.2766          335.08 
        1.27014         294.275         53.6842          332.79 
        1.27628           292.6         53.0989         332.016 
        1.28244         291.721         52.5212         330.449 
        1.28858         288.582         51.9531          328.14 
        1.29471         286.074         51.3946          325.66 
        1.30084         285.149          50.845         324.233 
        1.30697         282.954         50.3026         323.086 
        1.31312         280.477         49.7675         321.281 
        1.31925         280.358         49.2419         319.009 
        1.32537         278.671         48.7245         317.267 
        1.33151         275.555         48.2128         316.076 
        1.33765         273.792         47.7087         314.347 
        1.34378         272.686          47.213         312.674 
        1.34992         270.694          46.724         310.465 
        1.35606         269.931         46.2409         308.856 
         1.3622         267.697         45.7656         307.599 
        1.36833         265.478         45.2982         306.463 
        1.37445         264.005         44.8376          303.97 
        1.38059         261.405         44.3821         303.176 
        1.38675          260.72         43.9319             302 
        1.39288         258.386         43.4897         298.988 
        1.39901         257.669         43.0539         297.924 
        1.40515         255.602         42.6231         296.482 
         1.4113         253.959         42.1985         294.592 
        1.41742         252.539         41.7813         293.388 
        1.42355         250.051          41.369         291.898 
         1.4297         248.786         40.9611         290.396 
        1.43585         247.178         40.5589         289.433 
        1.44198         245.685         40.1637         287.429 
        1.44809         244.444         39.7745         286.425 
        1.45423         242.128         39.3892         284.133 
        1.46036         241.393         39.0096          282.81 
        1.46649         239.035          38.635         281.933 
        1.47263         237.547          38.265          280.48 
        1.47877         236.368         37.9001         278.629 
        1.48491         234.557         37.5394         277.185 
        1.49104         233.665         37.1843         275.945 
        1.49718         231.305         36.8334         274.754 
        1.50333         230.156         36.4866         273.688 
        1.50947         228.692          36.145         272.387 
         1.5156         226.677         35.8083          270.63 
        1.52172         225.878          35.476         268.784 
        1.52787         224.164         35.1472         267.814 
          1.534         223.117          34.823          266.69 
        1.54013          221.02         34.5032         265.241 
        1.54627         220.412          34.187         264.038 
        1.55241         218.333         33.8746         262.892 
        1.55855         217.092         33.5667         261.504 
        1.56467         215.618         33.2634         259.947 
         1.5708         215.291         32.9631         258.635 
        1.57695         212.817         32.6661         257.553 
        1.58308         211.901         32.3734         256.248 
        1.58922          209.74         32.0842         254.895 
        1.59535         208.427         31.7986         253.896 
         1.6015         208.052         31.5161         252.514 
        1.60764         206.242         31.2372         250.974 
        1.61376         204.482         30.9625         249.982 
        1.61989         203.467         30.6909         248.935 
        1.62604         202.326          30.422          247.65 
        1.63218         200.981         30.1565         246.594 
        1.63831         199.765         29.8948          245.56 
        1.64444         198.758         29.6361          244.04 
        1.65059          196.92         29.3799         243.018 
        1.65673         196.135          29.127         241.916 
        1.66285         194.878         28.8779         240.548 
        1.66898         193.411         28.6316         239.232 
        1.67512         192.873         28.3877         238.286 
        1.68127         190.556         28.1464         237.164 
         1.6874         189.535         27.9085         236.078 
        1.69353         188.651         27.6735         235.326 
        1.69967         187.228         27.4407         233.893 
        1.70581         186.121         27.2107         232.658 
        1.71193         184.775         26.9842         231.699 
        1.71806         184.078         26.7598         230.296 
        1.72421          182.47         26.5376         229.403 
        1.73035         181.729         26.3181         228.349 
        1.73649         180.599         26.1012         227.013 
        1.74262         179.221         25.8869         226.376 
        1.74876         178.354         25.6749         225.336 
        1.75489         176.733         25.4658         224.083 
        1.76101         175.774          25.259         223.139 
        1.76715         175.038         25.0543         222.206 
        1.77329         174.087         24.8516         221.089 
        1.77943         172.893         24.6511         219.915 
        1.78557         171.687         24.4531         218.872 
        1.79171          170.52         24.2573         217.967 
        1.79785         169.239         24.0636         217.003 
        1.80399         168.328         23.8721         215.888 
        1.81012         167.216         23.6829         215.047 
        1.81625          166.53         23.4959         214.136 
        1.82239         165.155         23.3106         213.007 
        1.82853         164.548         23.1274         212.009 
        1.83466         163.252         22.9464         210.928 
        1.84078         162.427         22.7675           209.9 
        1.84692         160.925         22.5903         209.248 
        1.85306          160.43         22.4147         208.205 
         1.8592         159.072         22.2413         207.103 
        1.86533          158.16         22.0698         206.577 
        1.87147         157.015            21.9         205.794 
        1.87761         156.582         21.7319         204.707 
