# k  (h/Mpc)    P(k)  (Mpc/h)^3    P_linear(k)  (Mpc/h)^3     P_NL(k)  ShotnoiseSubtracted = false
     0.00783031         4419.77         4467.75         4465.14 
       0.013688         5991.75         5972.19         5948.05 
       0.019231         6451.96         6450.97         6410.73 
      0.0249154         6255.09         6336.19         6296.58 
      0.0312784         5789.85         5828.98         5790.68 
      0.0375637         5208.57         5213.93         5175.39 
      0.0433917         4636.88         4693.01         4652.94 
      0.0492413         4251.97         4276.23         4236.29 
      0.0555754         3868.98         3944.42         3903.88 
      0.0619321         3696.55         3697.13          3654.9 
       0.067871         3434.18         3497.13         3454.28 
      0.0738098         3225.05         3290.69         3236.09 
      0.0800417         2961.94         3048.15          2994.9 
      0.0862327         2724.51         2784.24         2743.69 
      0.0921407          2494.6         2529.16         2491.11 
      0.0982031         2246.36         2286.88          2264.5 
       0.104506         2078.23         2074.82         2065.61 
       0.110769         1915.33         1912.19         1897.08 
       0.116806         1786.48         1797.11         1782.51 
       0.122832         1712.25         1711.67         1701.18 
       0.129052         1615.43         1638.83         1628.62 
       0.135211         1544.69         1567.59          1557.7 
       0.141259         1482.24         1489.39         1484.82 
       0.147318         1403.63         1400.56          1403.6 
       0.153489         1297.51         1303.22         1298.34 
       0.159709         1217.32         1205.88         1212.01 
       0.165845         1154.67         1118.48         1142.25 
       0.171974         1075.31         1045.06         1070.29 
       0.178125         1020.64         986.898         1024.85 
       0.184229         981.647         942.667         980.395 
        0.19034         924.309         907.561         944.982 
       0.196428         910.068         876.572         906.667 
       0.202534         885.901         844.952         877.585 
       0.208729         845.467         809.494         839.016 
       0.214876         800.924          770.46         811.591 
       0.220989         777.082         729.364         775.945 
       0.227147         729.624         688.332         737.505 
        0.23329         698.154         650.449          709.88 
       0.239377         678.918         617.777         681.708 
       0.245482          636.34         590.489          650.37 
       0.251667         628.223          567.84         633.346 
       0.257832         608.225          548.81          613.38 
       0.263955         589.115         531.626         594.586 
       0.270079         571.465         514.521         576.442 
        0.27624         563.482         496.407         556.708 
       0.282372          540.54         477.202         539.598 
        0.28843          523.68         457.511         520.761 
       0.294538         501.135         437.785         505.561 
       0.300721         495.725         418.873         491.208 
        0.30691         472.983         401.734         477.344 
       0.313033         462.069         386.822          461.12 
       0.319153         445.393         373.865         450.245 
       0.325316         434.594         362.297         441.362 
        0.33145          422.14         351.682          426.45 
       0.337538         417.014         341.441         415.753 
       0.343633          404.13         331.103         408.704 
       0.349808         392.458         320.374         399.586 
       0.355968         386.485         309.506         391.153 
       0.362074         376.932         298.825         380.667 
       0.368217          367.27         288.468         368.427 
       0.374374         355.427          278.76         360.853 
       0.380519         349.207         269.861         351.875 
       0.386598         341.152         261.851         344.744 
       0.392688          337.38         254.495         338.011 
        0.39888         328.651         247.493         329.996 
       0.405048         322.288         240.807         325.584 
       0.411186         315.493         234.267         318.226 
       0.417313         309.547         227.755         309.487 
       0.423458         303.716         221.262         303.894 
       0.429607         296.595         214.845         297.822 
       0.435692         288.634         208.672         292.234 
       0.441815         286.831         202.737         289.133 
       0.447964         281.993         197.112         282.706 
       0.454126         270.734         191.816         275.834 
       0.460267         267.937         186.869         273.124 
       0.466387         264.497         182.203         267.574 
        0.47254          259.55         177.697         263.454 
       0.478662          257.17         173.339         258.563 
       0.484765         250.811          169.09         252.722 
       0.490885         247.102         164.898         249.799 
       0.497035         243.743         160.758         246.735 
       0.503198         237.679         156.717         242.429 
       0.509342         234.717         152.828         239.168 
       0.515458         231.697         149.112         237.138 
       0.521598         228.984          145.54         231.865 
       0.527764          225.25         142.115         227.304 
       0.533884          221.69         138.867         224.631 
           0.54         218.751         135.744         221.712 
       0.546137         217.285         132.706         219.404 
       0.552299         213.782         129.731         215.256 
       0.558452         209.883         126.833         212.126 
       0.564573         206.208          124.02         210.272 
       0.570708         203.697         121.273         207.259 
       0.576825         200.943          118.61         203.724 
       0.582926         198.256         116.034         201.071 
       0.589034         194.839         113.539          199.17 
       0.595184         193.144         111.118         196.133 
       0.601379         191.541         108.768          194.88 
       0.607522         187.059         106.515         191.388 
       0.613639         186.825         104.339         189.511 
       0.619772         182.545         102.215         186.644 
       0.625918         181.026         100.139         185.418 
       0.632068         179.053         98.1145          182.27 
       0.638161          177.48         96.1612          181.18 
         0.6443         175.018         94.2461         178.548 
       0.650464         173.042         92.3773         175.503 
       0.656582         171.415         90.5743         174.468 
       0.662703         168.475         88.8209         172.066 
       0.668861         166.944          87.106          170.48 
       0.675024         165.006         85.4372         168.235 
       0.681124         163.688         83.8313         166.693 
       0.687237          160.87         82.2654         164.595 
       0.693381         159.078         80.7335         162.805 
       0.699536         157.625         79.2387          161.76 
       0.705665         158.232         77.7884         160.639 
       0.711789         154.143         76.3755         157.659 
       0.717957         153.571         74.9872         156.627 
        0.72409         151.432         73.6407         155.999 
       0.730186         148.985         72.3352         154.083 
       0.736317         148.756         71.0545          152.13 
       0.742472         147.255         69.8004         150.807 
       0.748622         146.282         68.5784         149.155 
        0.75476          144.75         67.3893         147.738 
       0.760888         142.906          66.231         146.056 
       0.767043         141.549         65.0963         145.396 
       0.773185         140.183         63.9911          144.42 
       0.779291         138.878         62.9185         142.952 
       0.785407         137.997         61.8694          141.16 
       0.791564         136.251          60.838         140.078 
       0.797719          134.67         59.8308         139.135 
       0.803834         134.144         58.8529         137.388 
       0.809972         132.007         57.8937         136.461 
       0.816124         131.558         56.9539         135.706 
       0.822261         130.402         56.0378         134.201 
       0.828378         129.132         55.1448         132.518 
       0.834502         128.247         54.2707           132.3 
       0.840667          127.01         53.4102         131.437 
       0.846816         125.899          52.571         129.976 
       0.852925         124.482         51.7553         128.923 
       0.859047          123.15         50.9556         127.644 
       0.865192         122.911         50.1703         127.018 
       0.871341         121.744         49.4013         125.743 
       0.877463         120.238         48.6521         125.128 
       0.883569         119.484         47.9206         124.141 
       0.889708         118.845         47.2006         123.161 
       0.895864          117.71         46.4938         122.338 
       0.902008         116.954         45.8031          121.24 
       0.908149         116.127          45.127         120.341 
       0.914301         114.811         44.4637         119.807 
       0.920448         114.106         43.8144         118.753 
       0.926574         113.415         43.1806         117.312 
       0.932687         112.615         42.5609         116.806 
       0.938823         111.139         41.9512         115.891 
       0.944975         110.821         41.3523         115.112 
       0.951105          109.74         40.7673         114.442 
       0.957225         108.434         40.1948         113.785 
       0.963368         108.065         39.6315         112.468 
       0.969511         107.459         39.0791          111.85 
       0.975621         106.842         38.5403         111.935 
       0.981748         105.822         38.0104         110.636 
       0.987916         105.099         37.4873         110.164 
        0.99406          104.62          36.976         109.315 
        1.00019         103.202         36.4755         108.491 
        1.00632         102.961         35.9847           107.9 
        1.01246         101.875         35.5024         107.017 
        1.01859         100.815         35.0298         106.385 
        1.02471          101.26         34.5665          105.94 
        1.03085         100.099         34.1101         105.124 
        1.03698         99.1063          33.663         104.319 
        1.04314          98.206          33.222         103.733 
        1.04929         97.8999         32.7901         103.398 
        1.05541          97.125         32.3678         102.888 
        1.06154         96.6586         31.9519         102.087 
        1.06769         95.8853         31.5427         101.545 
        1.07382         95.4939         31.1421          100.88 
        1.07993         95.0545         30.7495         100.171 
        1.08607         94.1447         30.3621          99.535 
        1.09222          93.695         29.9811         98.7997 
        1.09836          92.984         29.6071         98.3435 
        1.10449         92.3975           29.24         97.7235 
        1.11063         91.5674         28.8788         96.9782 
        1.11677         91.0788         28.5239         96.4855 
         1.1229         90.6793         28.1757         96.2197 
        1.12903         89.5198          27.833         95.4912 
        1.13518         89.6077         27.4958         94.9554 
        1.14131         89.1188         27.1645          94.453 
        1.14745         87.9577         26.8388         93.9001 
        1.15359         87.6928         26.5185          93.617 
        1.15973         87.0864         26.2034         92.9371 
        1.16584         86.4916         25.8948          92.379 
        1.17197         86.0198         25.5908         91.8639 
        1.17811         85.5205         25.2908         91.1698 
        1.18424         84.7021         24.9965         90.7115 
        1.19038         84.5378         24.7062         90.5704 
        1.19652          84.086         24.4206         89.7392 
        1.20267         83.4065         24.1395         89.5083 
        1.20881         82.8581          23.863         88.8876 
        1.21495         82.2938         23.5913         88.4893 
        1.22108         81.7812         23.3239         88.0124 
         1.2272         81.2066         23.0613         87.6367 
        1.23334         80.8391         22.8023         87.1133 
        1.23949         80.4927         22.5466         86.5383 
        1.24562         80.1257         22.2956         86.1622 
        1.25174         79.5815         22.0488         85.8362 
        1.25789         79.1396          21.805         85.3226 
        1.26402         78.5866         21.5654         84.8091 
        1.27014         77.9149           21.33         84.4511 
        1.27628         77.6996         21.0975         84.0431 
        1.28244         76.9807          20.868         83.5699 
        1.28858         76.6656         20.6422         83.1693 
        1.29471         76.4203         20.4203         82.8847 
        1.30084          75.867          20.202         82.1895 
        1.30697         75.2241         19.9865         81.7611 
        1.31312         74.8339         19.7738         81.6407 
        1.31925         74.6623          19.565         81.1355 
        1.32537         74.1561         19.3594         80.6666 
        1.33151         73.6845         19.1561         80.3572 
        1.33765         73.4202         18.9558         79.9934 
        1.34378         72.9888         18.7589         79.5312 
        1.34992         72.1751         18.5646         79.1926 
        1.35606         71.9125         18.3726          78.913 
         1.3622         71.3934         18.1838         78.4928 
        1.36833         71.2954         17.9981         77.9744 
        1.37445         70.9029         17.8151         77.6887 
        1.38059          70.479         17.6341         77.5465 
        1.38675         70.1047         17.4552         76.9491 
        1.39288         69.6076         17.2795         76.7486 
        1.39901          69.278         17.1064         76.3505 
        1.40515         68.9451         16.9352         75.9321 
         1.4113         68.6358         16.7665          75.671 
        1.41742         68.0358         16.6007         75.4167 
        1.42355         67.9113         16.4369         74.8288 
         1.4297         67.3646         16.2748         74.4871 
        1.43585         67.1548          16.115         74.2953 
        1.44198         66.7968          15.958         74.0493 
        1.44809         66.2965         15.8034          73.411 
        1.45423         66.1432         15.6503         73.1452 
        1.46036         65.6538         15.4995          72.908 
        1.46649         65.3547         15.3506         72.6486 
        1.47263         65.0202         15.2036         72.3717 
        1.47877          64.747         15.0586         71.9526 
        1.48491         64.3548         14.9153         71.5752 
        1.49104         63.9797         14.7742         71.2037 
        1.49718         63.5428         14.6348         70.9008 
        1.50333         63.3017          14.497         70.7034 
        1.50947         62.8633         14.3613         70.4558 
         1.5156         62.5868         14.2275         70.1429 
        1.52172         62.3289         14.0955         69.8191 
        1.52787         62.1248         13.9648         69.4798 
          1.534           61.74          13.836         69.2374 
        1.54013         61.3312          13.709         68.9034 
        1.54627         61.2319         13.5833         68.5438 
        1.55241         60.7748         13.4592         68.2841 
        1.55855         60.3497         13.3369         68.0171 
        1.56467         59.9531         13.2164         67.6525 
         1.5708         59.8349         13.0971         67.4844 
        1.57695         59.4586          12.979         67.2631 
        1.58308         59.3618         12.8627         66.8605 
        1.58922         59.0095         12.7478         66.6287 
        1.59535         58.6546         12.6344          66.401 
         1.6015         58.3238         12.5221         66.0535 
        1.60764         58.1882         12.4113         65.7612 
        1.61376         57.8906         12.3022         65.5553 
        1.61989         57.2762         12.1943         65.1897 
        1.62604         57.1714         12.0874         64.9303 
        1.63218         56.8698         11.9819         64.7369 
        1.63831          56.595         11.8779         64.4613 
        1.64444         56.4212         11.7752         64.1468 
        1.65059          55.861         11.6734         63.9135 
        1.65673         55.7167         11.5729          63.617 
        1.66285         55.5364         11.4739         63.3687 
        1.66898          55.114          11.376          63.259 
        1.67512         54.8354         11.2791          63.026 
        1.68127         54.5032         11.1833         62.6573 
         1.6874         54.4117         11.0887         62.2975 
        1.69353         54.0347         10.9954         62.0815 
        1.69967         53.8725         10.9029         61.9133 
        1.70581         53.6241         10.8115         61.7941 
        1.71193         53.2184         10.7215         61.5712 
        1.71806         52.9386         10.6323         61.0835 
        1.72421         52.6775          10.544         60.8031 
        1.73035         52.4717         10.4568         60.7351 
        1.73649         52.1988         10.3706         60.5945 
        1.74262          51.931         10.2855         60.1413 
        1.74876         51.8769         10.2013         59.8808 
        1.75489         51.3679         10.1182         59.7412 
        1.76101         51.2112          10.036         59.5024 
        1.76715         50.9112         9.95469         59.2607 
        1.77329         50.6693         9.87416         59.0469 
        1.77943         50.5077          9.7945         58.8335 
        1.78557         50.2685         9.71584         58.5973 
        1.79171         49.9182         9.63803         58.3442 
        1.79785         49.7104         9.56106         58.1604 
        1.80399         49.4521         9.48496         58.0353 
        1.81012         49.2729          9.4098         57.6402 
        1.81625         48.9303         9.33549         57.3069 
        1.82239           48.77         9.26187         57.2213 
        1.82853         48.3873         9.18909         57.0874 
        1.83466          48.221         9.11717         56.8334 
        1.84078         47.8857          9.0461          56.576 
        1.84692         47.7523         8.97567          56.467 
        1.85306         47.4606         8.90592         56.2643 
         1.8592         47.2903         8.83701         55.9945 
        1.86533         46.9559         8.76889         55.8298 
        1.87147          46.828          8.7014         55.6192 
        1.87761         46.7025          8.6346         55.3605 
