# k  (h/Mpc)    P(k)  (Mpc/h)^3    P_linear(k)  (Mpc/h)^3     P_NL(k)  ShotnoiseSubtracted = false
     0.00783031         280.379         282.635         282.386 
       0.013688         376.898         378.022         376.853 
       0.019231         408.031          408.42         406.636 
      0.0249154          399.42         401.202          399.96 
      0.0312784         368.625         369.115         368.574 
      0.0375637         330.557         330.184         329.893 
      0.0433917         296.932         297.204         297.154 
      0.0492413          271.01         270.815         270.819 
      0.0555754         249.301         249.806         249.742 
      0.0619321         234.712         234.148         234.043 
       0.067871          221.05         221.483          221.27 
      0.0738098         207.822          208.41         208.086 
      0.0800417         192.174         193.051         192.749 
      0.0862327         175.855         176.337         176.126 
      0.0921407          159.97         160.182          160.05 
      0.0982031         144.466         144.838         144.816 
       0.104506         131.642         131.408          131.47 
       0.110769         121.284         121.108         121.142 
       0.116806         113.555          113.82         113.815 
       0.122832         108.439         108.408         108.401 
       0.129052         103.468         103.795         103.759 
       0.135211          98.847         99.2836         99.2286 
       0.141259         94.1431         94.3306         94.2933 
       0.147318         88.7588          88.705         88.7172 
       0.153489         82.4249         82.5399         82.5305 
       0.159709         76.3357         76.3751         76.4335 
       0.165845         71.2099         70.8395         70.9979 
       0.171974         66.2017         66.1892         66.3494 
       0.178125          62.586         62.5058         62.7257 
       0.184229         59.9107         59.7044         59.9252 
        0.19034         57.3318         57.4809         57.6879 
       0.196428         55.5624         55.5182         55.6689 
       0.202534         53.8143         53.5156         53.6711 
       0.208729         51.3834         51.2699         51.4176 
       0.214876         48.7258         48.7977         49.0099 
       0.220989         46.5121         46.1948         46.4375 
       0.227147         43.5853         43.5961         43.8473 
        0.23329         41.2344         41.1967         41.5101 
       0.239377         39.2524         39.1274          39.478 
       0.245482         37.4235         37.3991         37.7229 
       0.251667         36.1902         35.9646         36.3169 
       0.257832         34.9166         34.7594          35.103 
       0.263955         33.8338          33.671         33.9944 
       0.270079         32.7706         32.5877         32.8951 
        0.27624         31.7691         31.4404         31.7311 
       0.282372         30.5338          30.224         30.5375 
        0.28843         29.1836         28.9769         29.3029 
       0.294538         27.9641         27.7275          28.077 
       0.300721         26.9016         26.5297           26.91 
        0.30691          25.704         25.4442         25.8327 
       0.313033         24.7872         24.4998         24.8831 
       0.319153         23.7654         23.6791         24.0873 
       0.325316         23.3037         22.9464         23.3668 
        0.33145         22.5717         22.2741         22.6692 
       0.337538         21.9168         21.6255         22.0077 
       0.343633         21.2188         20.9707         21.3512 
       0.349808         20.5853         20.2912         20.6849 
       0.355968         19.9134         19.6028          20.043 
       0.362074         19.2252         18.9264         19.3512 
       0.368217         18.5883         18.2704         18.6659 
       0.374374         17.9047         17.6555         18.0831 
       0.380519          17.418         17.0919         17.5079 
       0.386598         16.9298         16.5846         17.0139 
       0.392688          16.505         16.1187         16.5461 
        0.39888         16.0265         15.6752         16.0959 
       0.405048         15.6222         15.2518         15.6529 
       0.411186         15.2299         14.8375          15.277 
       0.417313         14.7468         14.4251         14.8467 
       0.423458         14.3756         14.0139          14.444 
       0.429607         13.9323         13.6074         14.0262 
       0.435692         13.5387         13.2164         13.6521 
       0.441815         13.1847         12.8406         13.3001 
       0.447964         12.8998         12.4843         12.9306 
       0.454126         12.4798         12.1489         12.5889 
       0.460267         12.1706         11.8356         12.2861 
       0.466387         11.8384           11.54         11.9732 
        0.47254         11.5917         11.2546         11.6922 
       0.478662         11.3359         10.9786          11.409 
       0.484765         11.0369         10.7095         11.1435 
       0.490885         10.7679          10.444          10.905 
       0.497035         10.5804         10.1818         10.6457 
       0.503198         10.2949         9.92587         10.3582 
       0.509342         10.0589         9.67953          10.124 
       0.515458         9.79584         9.44418         9.90753 
       0.521598         9.58491         9.21796         9.65022 
       0.527764         9.34433         9.00103         9.43137 
       0.533884         9.17529         8.79527         9.22835 
           0.54         8.96659         8.59748         9.02364 
       0.546137         8.78903         8.40508         8.84004 
       0.552299         8.59801         8.21667         8.62753 
       0.558452          8.3653         8.03308         8.44884 
       0.564573         8.22264         7.85494         8.29888 
       0.570708         8.05285         7.68098         8.11721 
       0.576825         7.85407         7.51229         7.94227 
       0.582926         7.71816         7.34912         7.78583 
       0.589034         7.49741         7.19113         7.63779 
       0.595184          7.3669         7.03778         7.45032 
       0.601379         7.21368         6.88895         7.32656 
       0.607522         7.09768         6.74626          7.1772 
       0.613639         6.98861         6.60842         7.03423 
       0.619772         6.80792         6.47389         6.91138 
       0.625918         6.70073         6.34241         6.76647 
       0.632068         6.59121         6.21419         6.63303 
       0.638161         6.43781         6.09048         6.50674 
         0.6443         6.30925         5.96918         6.37938 
       0.650464         6.17125         5.85082         6.27534 
       0.656582         6.08973         5.73663         6.15539 
       0.662703         5.97793         5.62557         6.03967 
       0.668861         5.87962         5.51695          5.9415 
       0.675024          5.7517         5.41126         5.82534 
       0.681124         5.64002         5.30955         5.71959 
       0.687237         5.55894         5.21037         5.60716 
       0.693381         5.46501         5.11335         5.50295 
       0.699536         5.32376         5.01867         5.41149 
       0.705665         5.24347         4.92682         5.34012 
       0.711789         5.16363         4.83732         5.24398 
       0.717957         5.06499          4.7494         5.14446 
        0.72409         4.98119         4.66412         5.06025 
       0.730186         4.90001         4.58143         4.96784 
       0.736317         4.84269         4.50031         4.88405 
       0.742472         4.75927         4.42088          4.8233 
       0.748622         4.66975         4.34349         4.74248 
        0.75476         4.56752         4.26817         4.65267 
       0.760888           4.504         4.19482         4.58245 
       0.767043         4.45325         4.12295         4.51417 
       0.773185         4.36034         4.05295         4.44726 
       0.779291         4.30251         3.98502          4.3766 
       0.785407         4.23336         3.91857         4.30424 
       0.791564         4.16563         3.85324         4.23887 
       0.797719         4.10839         3.78945         4.16215 
       0.803834         4.04868         3.72752         4.10374 
       0.809972         3.98855         3.66676         4.05268 
       0.816124         3.91355         3.60724         3.98051 
       0.822261         3.84652         3.54921         3.92081 
       0.828378           3.801         3.49266         3.86308 
       0.834502         3.75482          3.4373         3.80166 
       0.840667         3.67787         3.38279         3.74975 
       0.846816         3.62405         3.32964         3.70609 
       0.852925         3.58718         3.27798         3.64794 
       0.859047         3.53388         3.22733          3.6036 
       0.865192         3.48305         3.17759          3.5468 
       0.871341         3.43282         3.12889         3.49501 
       0.877463         3.39382         3.08144         3.44266 
       0.883569         3.33078         3.03511         3.40066 
       0.889708         3.27932          2.9895         3.35324 
       0.895864         3.23969         2.94474         3.30395 
       0.902008         3.18761         2.90099         3.25951 
       0.908149         3.14693         2.85817         3.21812 
       0.914301         3.08875         2.81616         3.16983 
       0.920448         3.05121         2.77504         3.12402 
       0.926574         3.00679          2.7349         3.08654 
       0.932687         2.97224         2.69564          3.0367 
       0.938823          2.9415         2.65703         3.01147 
       0.944975         2.89811         2.61909         2.95909 
       0.951105         2.86236         2.58204          2.9216 
       0.957225         2.83732         2.54578         2.89276 
       0.963368         2.79382         2.51011         2.85032 
       0.969511         2.75117         2.47512          2.8151 
       0.975621         2.70835         2.44099         2.76877 
       0.981748         2.68547         2.40743           2.737 
       0.987916         2.64848          2.3743         2.71246 
        0.99406          2.6069         2.34192         2.67943 
        1.00019          2.5816         2.31022         2.64725 
        1.00632         2.54295         2.27913         2.60979 
        1.01246         2.51343         2.24859         2.57612 
        1.01859          2.4854         2.21865          2.5464 
        1.02471         2.45079         2.18931         2.51591 
        1.03085         2.42669          2.1604         2.47997 
        1.03698         2.39097         2.13208         2.45017 
        1.04314         2.36558         2.10416         2.42352 
        1.04929          2.3327          2.0768         2.39501 
        1.05541          2.3087         2.05005         2.37071 
        1.06154         2.27848         2.02371         2.34287 
        1.06769         2.25197         1.99779         2.31478 
        1.07382         2.22698         1.97242         2.28759 
        1.07993         2.19241         1.94756         2.26068 
        1.08607         2.17855         1.92302         2.23531 
        1.09222         2.14755         1.89889         2.20657 
        1.09836         2.13212          1.8752         2.18474 
        1.10449         2.10528         1.85195         2.16058 
        1.11063         2.07405         1.82907          2.1319 
        1.11677         2.04883          1.8066         2.11202 
         1.1229         2.02679         1.78454         2.08973 
        1.12903         2.00163         1.76284         2.06523 
        1.13518         1.98674         1.74148          2.0439 
        1.14131         1.95667         1.72049         2.02121 
        1.14745         1.92446         1.69987         1.99483 
        1.15359         1.91494         1.67958         1.97699 
        1.15973         1.88419         1.65962          1.9571 
        1.16584         1.87815         1.64008         1.93419 
        1.17197         1.85188         1.62082         1.91354 
        1.17811          1.8321         1.60182         1.89558 
        1.18424         1.82033         1.58318         1.87179 
        1.19038         1.79375         1.56479         1.85326 
        1.19652         1.77194          1.5467         1.83609 
        1.20267         1.75919          1.5289         1.81105 
        1.20881         1.73346         1.51139         1.79617 
        1.21495         1.72169         1.49418         1.78269 
        1.22108         1.70389         1.47725         1.76074 
         1.2272         1.68942         1.46062         1.73915 
        1.23334         1.66697         1.44421         1.72438 
        1.23949         1.64828         1.42801         1.71096 
        1.24562         1.63521         1.41212         1.69284 
        1.25174         1.61655         1.39649          1.6723 
        1.25789         1.60206         1.38105         1.65515 
        1.26402         1.57931         1.36587         1.63876 
        1.27014          1.5643         1.35096         1.62407 
        1.27628         1.55601         1.33623         1.60814 
        1.28244         1.53213          1.3217          1.5913 
        1.28858         1.51994          1.3074         1.57319 
        1.29471          1.5072         1.29335         1.55976 
        1.30084          1.4891         1.27951         1.54941 
        1.30697         1.47572         1.26587         1.53337 
        1.31312         1.45379          1.2524         1.51805 
        1.31925         1.44598         1.23917         1.50569 
        1.32537         1.43339         1.22615         1.49115 
        1.33151         1.42111         1.21327         1.47685 
        1.33765         1.40497         1.20059         1.46291 
        1.34378         1.38757         1.18811         1.45082 
        1.34992         1.38058         1.17581         1.43777 
        1.35606         1.36312         1.16365          1.4204 
         1.3622         1.35271         1.15169         1.40857 
        1.36833         1.33909         1.13993         1.39814 
        1.37445         1.32293         1.12834         1.38583 
        1.38059         1.31105         1.11688         1.37214 
        1.38675         1.30862         1.10555         1.35875 
        1.39288         1.28905         1.09442         1.34715 
        1.39901          1.2778         1.08345         1.33621 
        1.40515          1.2674         1.07261         1.32246 
         1.4113         1.25361         1.06193         1.31182 
        1.41742         1.24251         1.05143         1.30448 
        1.42355         1.23748         1.04105         1.28681 
         1.4297         1.21964         1.03079         1.28038 
        1.43585         1.21106         1.02067         1.26924 
        1.44198         1.20491         1.01072         1.25237 
        1.44809          1.1873         1.00093         1.24747 
        1.45423         1.17834        0.991229         1.23174 
        1.46036         1.16823        0.981677         1.22273 
        1.46649          1.1578         0.97225         1.21585 
        1.47263         1.14596         0.96294         1.20431 
        1.47877         1.13541        0.953757         1.19278 
        1.48491         1.12624        0.944681         1.18501 
        1.49104         1.11574        0.935742          1.1727 
        1.49718         1.10891        0.926914         1.16564 
        1.50333         1.09791        0.918187         1.15213 
        1.50947         1.08969         0.90959         1.14212 
         1.5156          1.0797        0.901117         1.13552 
        1.52172         1.06993        0.892753         1.12479 
        1.52787          1.0599        0.884479         1.11526 
          1.534         1.05389        0.876321         1.10742 
        1.54013         1.04003        0.868275         1.09834 
        1.54627         1.03269        0.860316         1.08865 
        1.55241         1.02398        0.852456         1.07971 
        1.55855         1.01432        0.844706         1.07159 
        1.56467         1.00949        0.837075         1.06409 
         1.5708        0.997562        0.829518         1.05378 
        1.57695        0.992598        0.822043         1.04528 
        1.58308        0.983478        0.814678         1.03952 
        1.58922        0.975578        0.807399          1.0309 
        1.59535        0.967465        0.800212         1.02176 
         1.6015        0.959555        0.793103         1.01281 
        1.60764        0.952436        0.786085         1.00633 
        1.61376        0.942317        0.779172         1.00092 
        1.61989         0.93684        0.772338        0.992306 
        1.62604        0.929167         0.76557        0.984427 
        1.63218        0.923609        0.758889        0.977509 
        1.63831        0.913846        0.752303         0.96987 
        1.64444        0.906459        0.745793         0.96135 
        1.65059        0.899801        0.739346         0.95386 
        1.65673        0.892485        0.732983        0.947661 
        1.66285         0.88492        0.726712        0.940893 
        1.66898        0.880023        0.720514        0.932711 
        1.67512        0.870534        0.714376        0.925928 
        1.68127        0.864459        0.708305        0.919918 
         1.6874         0.85969        0.702318        0.913569 
        1.69353        0.851351        0.696405        0.906311 
        1.69967        0.845427        0.690546        0.898991 
        1.70581        0.838799        0.684757        0.893087 
        1.71193        0.832222        0.679058        0.887482 
        1.71806        0.826098        0.673411        0.880063 
        1.72421        0.820191        0.667818         0.87431 
        1.73035        0.812868        0.662296        0.867961 
        1.73649        0.808628        0.656837         0.86017 
        1.74262        0.802016        0.651445        0.854173 
        1.74876        0.795242        0.646111        0.849524 
        1.75489        0.789421        0.640847         0.84394 
        1.76101         0.78207        0.635644        0.837074 
        1.76715         0.77748        0.630493        0.831511 
        1.77329        0.771692        0.625392          0.8263 
        1.77943        0.765692        0.620347        0.820472 
        1.78557        0.760181        0.615364        0.814159 
        1.79171        0.754915        0.610436        0.807748 
        1.79785          0.7494        0.605562         0.80218 
        1.80399        0.743824        0.600742        0.797368 
        1.81012        0.739184        0.595981         0.79032 
        1.81625        0.732665        0.591275        0.784642 
        1.82239        0.728978        0.586612        0.781592 
        1.82853        0.720378        0.582002        0.777277 
        1.83466        0.717148        0.577447        0.771297 
        1.84078        0.711493        0.572946        0.765204 
        1.84692        0.707654        0.568485        0.760645 
        1.85306        0.702221        0.564067        0.755106 
         1.8592        0.697597        0.559703        0.749288 
        1.86533        0.692768        0.555388        0.745059 
        1.87147        0.687516        0.551114        0.740181 
        1.87761        0.683685        0.546883        0.735495 
