# k  (h/Mpc)    Pcb(k)  (Mpc/h)^3    Pcb_linear(k) (Mpc/h)^3    Pcb_NL(k) (Mpc/h)^3   ShotnoiseSubtracted = false
     0.00783031         8609.79         8717.96         8710.17 
       0.013688           11721         11651.6           11592 
       0.019231         12580.6         12584.7         12483.1 
      0.0249154         12127.3         12360.3           12243 
      0.0312784         11233.5         11370.5         11236.6 
      0.0375637         10120.1         10170.5           10031 
      0.0433917         8960.38         9154.28         9001.21 
      0.0492413         8234.81         8341.22         8186.26 
      0.0555754         7439.79         7693.95         7539.25 
      0.0619321          7156.7         7211.54         7051.44 
       0.067871         6595.92          6821.4         6662.51 
      0.0738098         6191.93          6418.7         6218.09 
      0.0800417         5661.61          5945.6         5750.06 
      0.0862327          5221.8         5430.81          5280.2 
      0.0921407         4804.01         4933.25         4791.09 
      0.0982031         4326.55         4460.67         4372.04 
       0.104506         4034.38         4047.03         4004.36 
       0.110769         3720.68         3729.81         3669.45 
       0.116806          3477.3         3505.34         3446.79 
       0.122832         3327.47         3338.67         3293.84 
       0.129052         3121.22          3196.6          3154.4 
       0.135211         2987.68         3057.64         3014.69 
       0.141259         2876.59          2905.1         2882.89 
       0.147318         2729.44         2731.84         2730.81 
       0.153489         2519.58         2541.97         2518.91 
       0.159709         2382.11         2352.11         2365.13 
       0.165845          2281.3         2181.63         2249.81 
       0.171974         2137.65         2038.41            2116 
       0.178125         2030.38         1924.98         2042.92 
       0.184229         1952.65          1838.7         1951.51 
        0.19034         1840.11         1770.22         1884.74 
       0.196428         1816.74         1709.78         1807.76 
       0.202534         1762.23          1648.1         1754.09 
       0.208729         1687.99         1578.94         1672.82 
       0.214876         1611.73         1502.81         1628.31 
       0.220989         1565.77         1422.65         1567.68 
       0.227147         1486.03         1342.61         1501.32 
        0.23329         1427.85         1268.72         1454.42 
       0.239377         1403.25         1204.99         1400.22 
       0.245482         1315.15         1151.76         1339.11 
       0.251667         1306.72         1107.58          1310.4 
       0.257832         1260.83         1070.47         1270.91 
       0.263955         1222.72         1036.95         1235.12 
       0.270079         1185.48         1003.59         1201.04 
        0.27624         1175.01         968.255         1164.01 
       0.282372         1124.96         930.795         1134.05 
        0.28843         1110.84         892.387          1100.9 
       0.294538         1058.29         853.911         1072.37 
       0.300721         1054.93         817.024         1043.03 
        0.30691         1009.44         783.592         1023.67 
       0.313033         991.128         754.509         991.979 
       0.319153         969.816         729.232         967.715 
       0.325316         939.786         706.669         953.089 
        0.33145         917.762         685.964         920.739 
       0.337538         907.277         665.989         903.724 
       0.343633         882.479         645.824         893.473 
       0.349808         855.258           624.9         876.481 
       0.355968          850.69         603.698         860.634 
       0.362074         837.942         582.866         841.254 
       0.368217         815.062         562.663         817.811 
       0.374374         783.452         543.727         803.567 
       0.380519         780.309         526.372         786.828 
       0.386598         763.299         510.745         775.998 
       0.392688          760.55         496.399         758.381 
        0.39888         738.681         482.742         747.972 
       0.405048         727.578           469.7         739.821 
       0.411186         715.827         456.943         721.648 
       0.417313         702.839         444.241         707.835 
       0.423458         692.171         431.576         697.613 
       0.429607         679.397         419.061         683.384 
       0.435692         665.408          407.02         671.956 
       0.441815         662.094         395.443         667.723 
       0.447964         648.184         384.471         656.029 
       0.454126         634.215         374.143         640.605 
       0.460267         625.039         364.492          638.13 
       0.466387          618.38         355.391         625.939 
        0.47254         607.349         346.601         618.959 
       0.478662          605.85         338.102         608.629 
       0.484765         589.539         329.813         597.749 
       0.490885         584.228         321.637         589.913 
       0.497035         573.361         313.562         584.343 
       0.503198          566.23         305.681         575.962 
       0.509342         561.219         298.095         568.941 
       0.515458          556.92         290.847         565.432 
       0.521598         546.051          283.88         556.282 
       0.527764         534.494         277.199         549.111 
       0.533884         533.465         270.863          542.99 
           0.54         526.621         264.771         536.235 
       0.546137           524.6         258.846         530.115 
       0.552299         515.049         253.044         523.079 
       0.558452         512.055          247.39         518.272 
       0.564573         503.691         241.904         513.886 
       0.570708         497.165         236.546         509.369 
       0.576825         487.177         231.352         500.598 
       0.582926         486.156         226.326         495.356 
       0.589034         481.252         221.461         489.035 
       0.595184         476.752         216.738         483.622 
       0.601379         471.824         212.154         480.582 
       0.607522         464.698         207.761         475.201 
       0.613639         463.702         203.515         471.276 
       0.619772          451.48         199.372         469.194 
       0.625918         450.741         195.324         463.651 
       0.632068         444.641         191.375         457.744 
       0.638161          442.93         187.565         453.188 
         0.6443         434.439         183.829          450.16 
       0.650464         432.185         180.184         442.916 
       0.656582         431.173         176.667         439.232 
       0.662703         427.396         173.247         437.754 
       0.668861         419.875         169.902         433.682 
       0.675024         416.426         166.647         429.648 
       0.681124         414.526         163.515         423.749 
       0.687237         409.974          160.46          420.12 
       0.693381         404.696         157.472         416.772 
       0.699536         400.778         154.557         414.062 
       0.705665          398.61         151.728         410.723 
       0.711789         394.629         148.972         406.737 
       0.717957         391.416         146.264         404.214 
        0.72409         387.886         143.638         401.364 
       0.730186         383.991         141.092         398.104 
       0.736317         380.801         138.593          393.73 
       0.742472         379.392         136.147         390.244 
       0.748622         375.524         133.764         386.985 
        0.75476         371.822         131.444         386.155 
       0.760888         367.363         129.185         381.493 
       0.767043         367.422         126.972         379.073 
       0.773185         362.402         124.816         376.222 
       0.779291         357.304         122.724         372.743 
       0.785407         355.962         120.678         370.277 
       0.791564         352.423         118.666         367.856 
       0.797719         349.908         116.701         365.175 
       0.803834         347.304         114.794         362.709 
       0.809972         344.844         112.923          360.07 
       0.816124         345.222          111.09         356.299 
       0.822261         339.181         109.303          354.22 
       0.828378         337.577         107.561         351.428 
       0.834502         336.118         105.856         349.821 
       0.840667          331.02         104.178         347.293 
       0.846816         330.015         102.541         344.916 
       0.852925         327.175          100.95         342.246 
       0.859047         325.869           99.39          339.94 
       0.865192         323.025         97.8583         337.846 
       0.871341          319.99         96.3583         335.421 
       0.877463         317.861         94.8971         333.515 
       0.883569         315.601         93.4702         331.503 
       0.889708         313.107         92.0658         328.702 
       0.895864          309.35         90.6871         326.912 
       0.902008         309.023         89.3399         324.411 
       0.908149          307.08         88.0212         321.592 
       0.914301         303.353         86.7273         320.308 
       0.920448         300.771         85.4611         317.253 
       0.926574         298.989         84.2248         315.338 
       0.932687         298.784          83.016         312.765 
       0.938823         295.005         81.8268         312.337 
       0.944975         293.852         80.6585         310.598 
       0.951105         291.739         79.5176         308.114 
       0.957225         288.967         78.4009         305.999 
       0.963368         285.588         77.3021         303.468 
       0.969511         284.187         76.2246           301.7 
       0.975621         281.967         75.1737          301.11 
       0.981748         282.266         74.1402         298.688 
       0.987916         278.866         73.1197         297.312 
        0.99406         275.984         72.1226         295.592 
        1.00019         275.948         71.1462         292.859 
        1.00632         273.502          70.189         290.757 
        1.01246         271.186         69.2482         288.955 
        1.01859          270.73         68.3264         287.745 
        1.02471         267.865         67.4227         286.607 
        1.03085         265.069         66.5324         284.842 
        1.03698         264.176         65.6603         283.302 
        1.04314         262.206         64.8003         281.359 
        1.04929          260.03         63.9579         279.357 
        1.05541         259.165          63.134         277.813 
        1.06154         256.728         62.3228         276.338 
        1.06769         255.946         61.5247         274.887 
        1.07382         254.168         60.7434         273.001 
        1.07993         252.151         59.9776         271.639 
        1.08607         251.159          59.222         270.292 
        1.09222         249.272         58.4788         268.613 
        1.09836           246.9         57.7493         267.626 
        1.10449         244.679         57.0333         265.754 
        1.11063         243.034         56.3288         264.024 
        1.11677         242.505         55.6366         262.586 
         1.1229         240.538         54.9573         261.407 
        1.12903         238.985         54.2889         260.084 
        1.13518         237.653         53.6312         258.449 
        1.14131         235.856         52.9849         257.007 
        1.14745         235.266         52.3497         255.603 
        1.15359         232.974          51.725         254.124 
        1.15973         232.445         51.1102         252.603 
        1.16584         229.687         50.5083         250.668 
        1.17197         229.281         49.9154         249.618 
        1.17811         227.377         49.3303         248.861 
        1.18424         225.946         48.7563         247.413 
        1.19038         225.149         48.1899         246.114 
        1.19652         223.496         47.6328         245.151 
        1.20267         222.341         47.0846         243.192 
        1.20881         220.616         46.5453         242.514 
        1.21495          219.08         46.0153         240.445 
        1.22108          218.33         45.4938          239.67 
         1.2272         216.452         44.9816          237.69 
        1.23334         215.106         44.4763           236.9 
        1.23949          213.49         43.9776         236.158 
        1.24562         212.595          43.488         234.458 
        1.25174         209.898         43.0066         233.611 
        1.25789         209.027         42.5312         232.278 
        1.26402         208.138         42.0638         230.709 
        1.27014          206.63         41.6047         230.244 
        1.27628         205.584         41.1511         229.385 
        1.28244         204.908         40.7034          227.53 
        1.28858         203.148         40.2631         226.303 
        1.29471         201.141         39.8303         225.176 
        1.30084          200.12         39.4043         223.989 
        1.30697         198.915          38.984         222.988 
        1.31312         197.978         38.5693         221.442 
        1.31925         196.939          38.162         220.279 
        1.32537         195.801          37.761         219.553 
        1.33151         194.081         37.3644         218.434 
        1.33765         193.206         36.9738          217.19 
        1.34378         191.969         36.5896         216.017 
        1.34992         190.902         36.2106         214.918 
        1.35606          189.95         35.8362         213.592 
         1.3622         188.792         35.4679         212.639 
        1.36833         187.272         35.1057         211.654 
        1.37445         185.674         34.7487         210.287 
        1.38059          185.08         34.3957         209.654 
        1.38675         183.766         34.0467         208.484 
        1.39288         182.864         33.7041         207.083 
        1.39901         182.406         33.3663         206.494 
        1.40515         180.964         33.0325         205.639 
         1.4113         179.037         32.7034         204.426 
        1.41742         178.585         32.3801         203.513 
        1.42355         176.965         32.0606         202.822 
         1.4297         176.059         31.7444         201.584 
        1.43585         174.521         31.4327         200.518 
        1.44198         174.121         31.1264         199.549 
        1.44809         173.082         30.8249         198.484 
        1.45423         171.477         30.5262         197.483 
        1.46036         170.934         30.2321         196.553 
        1.46649         169.879         29.9417         195.889 
        1.47263         169.024          29.655         195.229 
        1.47877         167.869         29.3722         193.966 
        1.48491         166.472         29.0927         193.049 
        1.49104         165.847         28.8174         192.292 
        1.49718         164.058         28.5455         190.846 
        1.50333          163.46         28.2768         190.113 
        1.50947         162.595          28.012         189.349 
         1.5156         161.626         27.7511          188.37 
        1.52172         160.523         27.4935         187.601 
        1.52787          159.58         27.2387         186.577 
          1.534         158.919         26.9875         185.611 
        1.54013         157.274         26.7397         184.842 
        1.54627         156.923         26.4946         184.072 
        1.55241         155.628         26.2525          183.17 
        1.55855          154.92         26.0138         182.105 
        1.56467         154.037         25.7788          181.22 
         1.5708         152.946         25.5461         180.729 
        1.57695         151.972         25.3159         179.881 
        1.58308         151.355         25.0891         178.739 
        1.58922         150.602         24.8649          177.96 
        1.59535         149.272         24.6436         177.173 
         1.6015          148.76         24.4247         176.282 
        1.60764         147.615         24.2085         175.461 
        1.61376           146.8         23.9956         174.834 
        1.61989         145.891         23.7851         174.144 
        1.62604         145.095         23.5767         173.162 
        1.63218          144.22          23.371         172.312 
        1.63831         143.226         23.1682         171.624 
        1.64444         142.479         22.9677         170.692 
        1.65059         141.794         22.7691         169.978 
        1.65673          140.65         22.5732          169.22 
        1.66285         140.318         22.3801         168.425 
        1.66898         139.265         22.1892         167.721 
        1.67512         138.494         22.0001         167.011 
        1.68127         137.466         21.8132         166.205 
         1.6874         136.098         21.6288         165.481 
        1.69353         135.734         21.4467         164.915 
        1.69967         135.107         21.2663         163.977 
        1.70581         134.232          21.088          163.13 
        1.71193         133.409         20.9125         162.461 
        1.71806         132.552         20.7386         161.619 
        1.72421         132.049         20.5663         160.946 
        1.73035         130.943         20.3963         160.239 
        1.73649         130.348         20.2282         159.471 
        1.74262          129.64         20.0621         158.957 
        1.74876             129         19.8978         158.185 
        1.75489         127.733         19.7357         157.295 
        1.76101         127.388         19.5755         156.561 
        1.76715         126.242         19.4168         155.863 
        1.77329         125.861         19.2598         155.194 
        1.77943         124.977         19.1044         154.538 
        1.78557         124.266         18.9509         153.886 
        1.79171          123.54         18.7992         153.322 
        1.79785         122.798         18.6491           152.7 
        1.80399         122.095         18.5006         151.887 
        1.81012         121.451          18.354         151.152 
        1.81625          120.61         18.2091         150.565 
        1.82239         120.283         18.0655         149.985 
        1.82853          119.64         17.9235         149.295 
        1.83466         118.642         17.7832         148.533 
        1.84078         118.243         17.6446         147.873 
        1.84692           117.2         17.5072         147.439 
        1.85306         116.478         17.3712         146.768 
         1.8592         115.641         17.2368         146.059 
        1.86533         115.181         17.1039         145.579 
        1.87147         114.169         16.9723         144.699 
