# k  (h/Mpc)    Pcb(k)  (Mpc/h)^3    Pcb_linear(k) (Mpc/h)^3    Pcb_NL(k) (Mpc/h)^3   ShotnoiseSubtracted = false
     0.00783031          5128.2         5185.46         5182.22 
       0.013688         6957.72         6931.33         6902.13 
       0.019231         7487.71         7486.89         7437.95 
      0.0249154         7251.69          7353.6         7303.72 
      0.0312784          6713.5         6764.91         6714.64 
      0.0375637         6041.17         6051.08         5999.97 
      0.0433917         5372.72         5446.51         5392.55 
      0.0492413         4928.86          4962.8         4908.79 
      0.0555754         4479.13         4577.72         4523.13 
      0.0619321         4285.22         4290.72         4233.92 
       0.067871         3975.18          4058.6         4001.31 
      0.0738098         3732.75         3819.02         3746.21 
      0.0800417         3425.46         3537.54          3466.5 
      0.0862327         3152.49         3231.25         3176.99 
      0.0921407         2888.86         2935.21         2884.13 
      0.0982031          2601.2         2654.04         2623.54 
       0.104506         2410.17         2407.93         2394.77 
       0.110769         2221.43         2219.19         2198.41 
       0.116806         2072.38         2085.64         2065.56 
       0.122832         1985.97         1986.47         1971.78 
       0.129052         1871.54         1901.94         1887.74 
       0.135211         1789.97         1819.27         1805.37 
       0.141259         1718.67          1728.5         1721.82 
       0.147318         1628.04         1625.42         1628.36 
       0.153489         1504.48         1512.45         1505.31 
       0.159709         1413.72         1399.48         1406.71 
       0.165845         1343.24         1298.05         1328.08 
       0.171974         1252.26         1212.84         1245.12 
       0.178125         1188.76         1145.34         1194.16 
       0.184229         1143.58         1094.01         1142.18 
        0.19034         1076.13         1053.27         1101.25 
       0.196428         1060.58          1017.3         1056.26 
       0.202534         1032.03         980.607         1022.85 
       0.208729         985.416         939.457         977.447 
       0.214876         934.437         894.156         946.871 
       0.220989         907.225         846.462         906.413 
       0.227147         853.287         798.842         862.549 
        0.23329         817.232         754.878           831.5 
       0.239377         796.478         716.959         799.023 
       0.245482         745.997         685.289         762.459 
       0.251667         737.564         659.004         743.328 
       0.257832         713.748          636.92         720.057 
       0.263955         691.612         616.978         698.254 
       0.270079         670.803         597.127         677.314 
        0.27624         662.363         576.104         654.501 
       0.282372         635.076         553.816         634.812 
        0.28843         617.213         530.963         613.128 
       0.294538         589.968          508.07         595.887 
       0.300721         584.988         486.123         579.355 
        0.30691         558.242         466.231         564.037 
       0.313033         546.154         448.927          545.13 
       0.319153         527.821         433.887         532.303 
       0.325316         514.143         420.463         522.326 
        0.33145         499.892         408.143         504.566 
       0.337538         494.216         396.258         492.445 
       0.343633         478.986          384.26         484.859 
       0.349808         464.993         371.811         474.404 
       0.355968         459.114         359.195         464.584 
       0.362074         448.555         346.801         452.555 
       0.368217         437.014          334.78          438.38 
       0.374374         422.145         323.513         429.609 
       0.380519         415.844         313.187         419.302 
       0.386598         406.529         303.889         411.366 
       0.392688         402.791         295.354         403.135 
        0.39888         392.122         287.228         394.346 
       0.405048         384.688         279.468          389.55 
       0.411186         376.722         271.878         380.259 
       0.417313         370.178          264.32         370.297 
       0.423458         363.479         256.784         363.912 
       0.429607         355.193         249.338         356.744 
       0.435692         346.298         242.174          350.19 
       0.441815         344.169         235.286         346.802 
       0.447964         338.107         228.757          339.46 
       0.454126         325.286         222.612         331.296 
       0.460267         322.022          216.87         328.439 
       0.466387         318.199         211.455         321.922 
        0.47254         311.963         206.225         317.202 
       0.478662         309.755         201.168         311.372 
       0.484765         301.945         196.236         304.467 
       0.490885         297.796         191.372          301.01 
       0.497035         293.541         186.567         297.524 
       0.503198         286.623         181.878         292.576 
       0.509342          283.73         177.364         288.862 
       0.515458         280.213         173.052         286.537 
       0.521598         276.628         168.907         280.448 
       0.527764         271.978         164.931          275.35 
       0.533884         268.246         161.161         272.224 
           0.54         264.806         157.537         268.746 
       0.546137         263.322         154.011         265.956 
       0.552299         258.772         150.559         261.245 
       0.558452         254.785         147.195         257.748 
       0.564573         250.471         143.931         255.551 
       0.570708         246.973         140.743         252.161 
       0.576825         243.925         137.652         247.727 
       0.582926         241.012         134.662         244.694 
       0.589034         237.231         131.768         242.379 
       0.595184         235.208         128.958         238.607 
       0.601379         233.274          126.23         237.461 
       0.607522           228.2         123.616          233.65 
       0.613639         227.652          121.09         231.276 
       0.619772         222.453         118.625         228.121 
       0.625918         220.721         116.216         226.533 
       0.632068         218.273         113.866         222.749 
       0.638161         216.849           111.6         221.548 
         0.6443         213.543         109.377         218.646 
       0.650464         211.407         107.208         214.954 
       0.656582          209.73         105.116         213.577 
       0.662703         206.476         103.081         211.095 
       0.668861         204.224         101.091         209.075 
       0.675024         201.948         99.1539         206.417 
       0.681124         200.786         97.2902         204.678 
       0.687237         197.362         95.4728         202.187 
       0.693381         195.002          93.695         200.127 
       0.699536         193.561         91.9602         198.704 
       0.705665         193.891         90.2771         197.555 
       0.711789         189.361         88.6373         194.141 
       0.717957         188.619         87.0261          192.77 
        0.72409          186.17         85.4635         192.055 
       0.730186         183.224         83.9484         189.891 
       0.736317         182.728          82.462         187.582 
       0.742472         181.288         81.0066         185.978 
       0.748622         180.068         79.5885         183.987 
        0.75476         178.328         78.2084         182.376 
       0.760888         176.001         76.8642         180.289 
       0.767043         174.542         75.5473         179.463 
       0.773185         172.897         74.2647          178.36 
       0.779291         170.863         73.0199         176.587 
       0.785407         169.993         71.8023         174.474 
       0.791564         168.117         70.6053         173.302 
       0.797719         166.163         69.4364          172.19 
       0.803834         165.507         68.3016         170.063 
       0.809972         163.102         67.1883         168.942 
       0.816124         162.913         66.0977         168.022 
       0.822261         161.067         65.0344         166.335 
       0.828378         159.578         63.9981         164.297 
       0.834502         158.908         62.9837          163.95 
       0.840667         156.964          61.985         163.056 
       0.846816          155.87          61.011         161.188 
       0.852925         154.174         60.0645         159.856 
       0.859047         152.688         59.1363         158.503 
       0.865192         152.216          58.225         157.735 
       0.871341         150.628         57.3325         156.169 
       0.877463         149.262         56.4631         155.511 
       0.883569         148.099         55.6141         154.209 
       0.889708         147.281         54.7785         153.164 
       0.895864         145.894         53.9582         152.208 
       0.902008         144.998         53.1566         150.714 
       0.908149         144.075          52.372         149.624 
       0.914301         142.385         51.6021         149.034 
       0.920448         141.653         50.8487          147.82 
       0.926574         140.818         50.1132         146.056 
       0.932687         139.787         49.3939         145.269 
       0.938823         138.112         48.6864         144.395 
       0.944975          137.49         47.9913         143.538 
       0.951105         136.352         47.3124         142.529 
       0.957225         134.689          46.648         141.751 
       0.963368         134.173         45.9942         140.121 
       0.969511         133.469         45.3531         139.426 
       0.975621         132.847         44.7278         139.679 
       0.981748         131.773         44.1129         137.996 
       0.987916          130.51         43.5057         137.477 
        0.99406         130.031         42.9124          136.39 
        1.00019         128.581         42.3315         135.292 
        1.00632          128.06          41.762         134.554 
        1.01246         126.857         41.2022         133.494 
        1.01859         125.452         40.6537         132.853 
        1.02471         125.961          40.116         132.349 
        1.03085         124.627         39.5863         131.342 
        1.03698         123.325         39.0674         130.285 
        1.04314         122.384         38.5557         129.691 
        1.04929         121.858         38.0545         129.236 
        1.05541         121.024         37.5643         128.541 
        1.06154         120.277         37.0816         127.724 
        1.06769         119.601         36.6068         127.014 
        1.07382         119.122         36.1419         126.188 
        1.07993          118.39         35.6862         125.368 
        1.08607         117.322         35.2367         124.627 
        1.09222         116.681         34.7944         123.672 
        1.09836         115.803         34.3604         123.044 
        1.10449         115.112         33.9344         122.363 
        1.11063         114.318         33.5152         121.403 
        1.11677          113.67         33.1034          120.82 
         1.1229         112.895         32.6992         120.528 
        1.12903         111.712         32.3015          119.59 
        1.13518         111.864         31.9102          118.98 
        1.14131         111.009         31.5256         118.273 
        1.14745         109.781         31.1477         117.654 
        1.15359          109.38          30.776         117.127 
        1.15973         108.888         30.4102         116.488 
        1.16584          108.06         30.0521         115.808 
        1.17197         107.355         29.6993          115.17 
        1.17811         106.775         29.3511         114.396 
        1.18424         105.771         29.0096         113.854 
        1.19038         105.422         28.6726         113.541 
        1.19652         104.934         28.3412         112.583 
        1.20267         104.048          28.015         112.172 
        1.20881         103.438         27.6941         111.517 
        1.21495         102.726         27.3788         110.897 
        1.22108         102.085         27.0685         110.429 
         1.2272         101.536         26.7638         109.887 
        1.23334         100.968         26.4631         109.287 
        1.23949           100.3         26.1663          108.57 
        1.24562         100.045          25.875         108.173 
        1.25174          99.305         25.5886         107.681 
        1.25789         98.7257         25.3057         107.104 
        1.26402         98.1956         25.0277         106.483 
        1.27014         97.2674         24.7545         106.138 
        1.27628         97.0657         24.4846         105.646 
        1.28244         96.1525         24.2182         104.829 
        1.28858         95.6996         23.9562          104.35 
        1.29471         95.3093         23.6987         104.093 
        1.30084         94.6284         23.4453         103.233 
        1.30697         93.8984         23.1952         102.709 
        1.31312         93.5275         22.9485         102.505 
        1.31925          93.258         22.7061         101.893 
        1.32537         92.6488         22.4675         101.302 
        1.33151         91.9099         22.2315         100.926 
        1.33765         91.4648         21.9991         100.472 
        1.34378         90.8817         21.7705         99.8782 
        1.34992         90.3226         21.5451         99.4999 
        1.35606         89.8671         21.3223         99.0317 
         1.3622          89.093         21.1031         98.5648 
        1.36833         88.9972         20.8876         97.8656 
        1.37445          88.309         20.6752         97.4971 
        1.38059         87.7376         20.4652         97.3567 
        1.38675          87.377         20.2576         96.5555 
        1.39288         86.7033         20.0537         96.3227 
        1.39901          86.538         19.8527         95.8232 
        1.40515         86.0981         19.6541         95.3784 
         1.4113          85.388         19.4583          95.061 
        1.41742         84.9464         19.2659         94.5983 
        1.42355         84.5176         19.0758         93.9023 
         1.4297         84.0268         18.8877          93.492 
        1.43585         83.5218         18.7023         93.2486 
        1.44198           83.23           18.52         92.9612 
        1.44809          82.545         18.3406         92.1527 
        1.45423         82.3222         18.1629          91.818 
        1.46036         81.7529         17.9879         91.5376 
        1.46649         81.3347         17.8151         91.2369 
        1.47263         80.9556         17.6445         90.8694 
        1.47877         80.6156         17.4763         90.2647 
        1.48491         80.0639         17.3099         89.9423 
        1.49104         79.5993         17.1462         89.3729 
        1.49718         79.1543         16.9844           88.99 
        1.50333         78.7433         16.8245         88.6995 
        1.50947         78.1789          16.667         88.3522 
         1.5156          77.962         16.5117         87.9948 
        1.52172         77.5417         16.3584         87.6222 
        1.52787         77.1796         16.2068          87.191 
          1.534         76.8835         16.0573         86.8796 
        1.54013         76.3088         15.9099         86.4667 
        1.54627         76.0438         15.7641          86.042 
        1.55241           75.44         15.6201         85.7015 
        1.55855         74.9755         15.4781          85.266 
        1.56467         74.4661         15.3382         84.8306 
         1.5708         74.3219         15.1997         84.6318 
        1.57695         73.9221         15.0628         84.3774 
        1.58308         73.6266         14.9278         83.9367 
        1.58922         73.2528         14.7944         83.5868 
        1.59535         72.8982         14.6628         83.2373 
         1.6015          72.348         14.5325         82.8078 
        1.60764         72.2114         14.4039         82.4942 
        1.61376         71.7294         14.2772         82.2682 
        1.61989         71.1535          14.152          81.802 
        1.62604         70.8996          14.028         81.3903 
        1.63218          70.661         13.9056          81.088 
        1.63831         70.2274         13.7849         80.8037 
        1.64444         70.0088         13.6656          80.458 
        1.65059         69.2872         13.5475         80.0738 
        1.65673         69.1303         13.4309         79.7183 
        1.66285         68.8428          13.316         79.4295 
        1.66898         68.4018         13.2024         79.2072 
        1.67512         67.9533         13.0899         78.9674 
        1.68127         67.6078         12.9787         78.5328 
         1.6874         67.3759          12.869         78.0352 
        1.69353         66.9649         12.7606         77.7432 
        1.69967         66.6915         12.6533         77.5796 
        1.70581         66.4395         12.5472         77.3795 
        1.71193          66.011         12.4428         77.0444 
        1.71806         65.4919         12.3393         76.5855 
        1.72421         65.3625         12.2368         76.1987 
        1.73035         64.9037         12.1356         76.0495 
        1.73649         64.5627         12.0356         75.9126 
        1.74262         64.3198         11.9368         75.3319 
        1.74876         64.1569         11.8391         74.9704 
        1.75489         63.5685         11.7426         74.7896 
        1.76101         63.4369         11.6473         74.4939 
        1.76715         62.9687         11.5529         74.1319 
        1.77329         62.6816         11.4594          73.859 
        1.77943          62.492          11.367         73.5994 
        1.78557         62.2018         11.2757         73.2483 
        1.79171         61.7504         11.1854         72.9351 
        1.79785           61.48         11.0961         72.7241 
        1.80399         61.0713         11.0077         72.5316 
        1.81012         60.9267         10.9205         72.0905 
        1.81625         60.4096         10.8343          71.704 
        1.82239         60.2178         10.7488         71.5651 
        1.82853         59.7872         10.6644         71.4225 
        1.83466         59.5989         10.5809         71.0652 
        1.84078          59.108         10.4984         70.6658 
        1.84692         58.9405         10.4167         70.5638 
        1.85306         58.6256         10.3357         70.3195 
         1.8592         58.3308         10.2558         69.9544 
        1.86533          57.968         10.1767         69.7659 
        1.87147         57.7621         10.0984         69.4899 
