# k  (h/Mpc)    P(k)  (Mpc/h)^3    P_linear(k)  (Mpc/h)^3     P_NL(k)  ShotnoiseSubtracted = false
     0.00783031         6091.58         6162.21         6157.94 
       0.013688         8273.72         8236.56         8199.77 
       0.019231         8896.69         8896.56          8834.5 
      0.0249154         8603.84         8738.08         8671.98 
      0.0312784         7966.99         8038.49         7968.63 
      0.0375637         7171.76         7190.24         7118.43 
      0.0433917         6369.44         6471.83         6394.81 
      0.0492413         5846.58         5897.05         5819.59 
      0.0555754         5303.57         5439.46         5361.54 
      0.0619321         5082.99         5098.43         5017.48 
       0.067871         4705.67         4822.61         4741.49 
      0.0738098          4418.2         4537.92         4435.11 
      0.0800417         4049.92         4203.45         4103.12 
      0.0862327         3729.78         3839.51         3762.62 
      0.0921407         3421.92         3487.74         3415.17 
      0.0982031          3081.1         3153.64         3109.56 
       0.104506         2860.66          2861.2         2841.25 
       0.110769         2637.01         2636.93         2606.74 
       0.116806         2461.07         2478.24         2449.04 
       0.122832         2357.68          2360.4         2338.61 
       0.129052         2218.43         2259.96         2239.08 
       0.135211         2122.41         2161.72         2141.03 
       0.141259         2039.59         2053.88         2043.54 
       0.147318         1932.91         1931.38         1933.72 
       0.153489         1785.55         1797.15         1786.18 
       0.159709         1681.28         1662.92         1671.64 
       0.165845         1601.25         1542.39         1582.01 
       0.171974         1495.16         1441.14         1484.49 
       0.178125         1419.56         1360.94         1426.79 
       0.184229         1365.82         1299.94         1364.25 
        0.19034         1284.83         1251.53         1315.99 
       0.196428         1267.58          1208.8         1261.92 
       0.202534         1232.52         1165.19         1222.75 
       0.208729         1177.83          1116.3         1167.72 
       0.214876         1118.85         1062.47         1133.22 
       0.220989          1086.9          1005.8          1086.7 
       0.227147         1024.93         949.214         1035.99 
        0.23329         982.762         896.974         1000.55 
       0.239377         960.503         851.918         962.176 
       0.245482         899.291         814.287         918.596 
       0.251667         890.739         783.054         896.784 
       0.257832         861.228         756.812         868.996 
       0.263955         834.916         733.115         843.169 
       0.270079         809.654         709.528         818.531 
        0.27624         800.767         684.548         791.664 
       0.282372         767.271         658.064         768.675 
        0.28843         749.268          630.91         743.379 
       0.294538         715.135         603.708         723.313 
       0.300721         710.925         577.628         703.619 
        0.30691         678.743         553.993         686.776 
       0.313033         665.119          533.43         664.237 
       0.319153         645.266         515.562         648.533 
       0.325316         627.277         499.609         637.169 
        0.33145         610.696         484.971         615.414 
       0.337538         604.129         470.849         601.623 
       0.343633         585.788         456.592         593.438 
       0.349808         568.332         441.798         581.167 
       0.355968         562.996          426.81         569.548 
       0.362074         551.435         412.082         555.447 
       0.368217          537.07         397.798         538.635 
       0.374374         517.518         384.411          528.29 
       0.380519         511.698          372.14         516.197 
       0.386598          500.54         361.093         507.415 
       0.392688         497.171          350.95          496.75 
        0.39888         483.478         341.295          487.34 
       0.405048         474.722         332.074         481.936 
       0.411186          465.42         323.055         469.875 
       0.417313         457.712         314.075         458.504 
       0.423458         449.887         305.121         451.128 
       0.429607         440.117         296.273         442.176 
       0.435692         430.064         287.759         434.301 
       0.441815         427.488         279.575         430.577 
       0.447964         419.475         271.818         422.046 
       0.454126         405.254         264.515         412.039 
       0.460267         401.085         257.693         409.134 
       0.466387         396.598         251.258         401.188 
        0.47254         388.586         245.045         395.799 
       0.478662         386.842         239.036         388.603 
       0.484765         376.742         233.175         380.327 
       0.490885         372.117         227.395         376.012 
       0.497035         366.348         221.686          371.94 
       0.503198         358.723         216.114         366.033 
       0.509342         355.804         210.751         361.705 
       0.515458         351.798         205.626         358.985 
       0.521598         346.541         200.701         351.803 
       0.527764         340.282         195.978         346.113 
       0.533884         336.903         191.498         342.286 
           0.54         332.665         187.191          337.95 
       0.546137          331.16         183.002         334.383 
       0.552299         325.006           178.9         329.055 
       0.558452         321.233         174.903         325.134 
       0.564573         315.971         171.024         322.373 
       0.570708         311.116         167.237         318.657 
       0.576825         307.252         163.564         312.914 
       0.582926         304.287         160.011         309.311 
       0.589034         300.153         156.571         306.212 
       0.595184         297.541         153.232         301.512 
       0.601379          295.05         149.992         300.323 
       0.607522         289.342         146.885         296.261 
       0.613639         288.318         143.884         293.157 
       0.619772         281.512         140.955         289.995 
       0.625918          279.93         138.092         287.664 
       0.632068         276.513           135.3         282.973 
       0.638161         275.281         132.607         281.417 
         0.6443         270.603         129.966         278.301 
       0.650464         268.323         127.389         273.733 
       0.656582         266.861         124.902         271.723 
       0.662703         263.407         122.484         269.468 
       0.668861         259.761          120.12          266.72 
       0.675024         257.055         117.818         263.591 
       0.681124         256.101         115.604         261.233 
       0.687237         252.117         113.444         258.327 
       0.693381         248.816         111.332         255.909 
       0.699536         247.195         109.271         253.975 
       0.705665         246.688         107.271         252.595 
       0.711789         242.205         105.322         248.813 
       0.717957         240.942         103.408         247.001 
        0.72409         238.161         101.551         245.963 
       0.730186         234.827         99.7506          243.53 
       0.736317         233.548         97.9844         240.696 
       0.742472         232.228          96.255         238.622 
       0.748622         230.612         94.5699         236.169 
        0.75476         228.548         92.9301         234.547 
       0.760888         225.483         91.3329         231.811 
       0.767043         224.239          89.768         230.674 
       0.773185         221.939         88.2441         229.244 
       0.779291         218.626         86.7649         227.021 
       0.785407         217.908         85.3182          224.64 
       0.791564         215.858         83.8958          223.24 
       0.797719         213.428         82.5069         221.901 
       0.803834          212.51         81.1585         219.442 
       0.809972         209.905         79.8356         217.946 
       0.816124         210.074         78.5397          216.58 
       0.822261          207.04         77.2763         214.672 
       0.828378         205.384         76.0448         212.274 
       0.834502         205.098         74.8395         211.636 
       0.840667         201.902         73.6528         210.464 
       0.846816         200.939         72.4956         208.223 
       0.852925         199.072         71.3708         206.553 
       0.859047         197.353         70.2679         205.098 
       0.865192         196.353         69.1851         203.984 
       0.871341         194.224         68.1246         202.108 
       0.877463         193.036         67.0915         201.276 
       0.883569          191.25         66.0827         199.679 
       0.889708         190.102         65.0898         198.376 
       0.895864         188.154         64.1151         197.263 
       0.902008         187.293         63.1626          195.22 
       0.908149         186.208         62.2303         193.761 
       0.914301         184.111         61.3156         193.104 
       0.920448         182.999         60.4203         191.509 
       0.926574         182.062         59.5463         189.512 
       0.932687         180.773         58.6917          188.24 
       0.938823         178.842         57.8509         187.539 
       0.944975         177.726          57.025         186.564 
       0.951105         176.614         56.2183         185.074 
       0.957225         174.426         55.4288         183.898 
       0.963368         173.375          54.652         181.955 
       0.969511         172.584         53.8902          181.15 
       0.975621         171.668         53.1473          181.38 
       0.981748         170.898         52.4165         179.305 
       0.987916         168.689         51.6951          178.63 
        0.99406         168.183         50.9901         177.351 
        1.00019         167.037         50.2998         175.844 
        1.00632          165.76         49.6231         174.663 
        1.01246         164.626          48.958         173.377 
        1.01859          162.92         48.3063         172.803 
        1.02471         162.908         47.6673         172.191 
        1.03085          161.28         47.0379         170.912 
        1.03698          159.72         46.4213         169.554 
        1.04314         158.864         45.8133         168.834 
        1.04929         157.822         45.2177         168.052 
        1.05541          156.92         44.6353         167.111 
        1.06154         155.812         44.0617          166.26 
        1.06769         155.472         43.4975         165.299 
        1.07382         154.557         42.9451         164.261 
        1.07993         153.414         42.4037         163.233 
        1.08607         152.104         41.8695          162.47 
        1.09222         151.242          41.344         161.385 
        1.09836         150.037         40.8283         160.382 
        1.10449         149.089         40.3221         159.441 
        1.11063         148.245          39.824         158.258 
        1.11677         147.552         39.3346         157.601 
         1.1229         146.112         38.8544         157.026 
        1.12903         145.145         38.3819         155.935 
        1.13518         145.148         37.9169         155.133 
        1.14131         143.669         37.4599         154.134 
        1.14745         142.775         37.0109         153.376 
        1.15359         141.861         36.5691         152.504 
        1.15973         141.492         36.1345         151.897 
        1.16584          140.23          35.709          150.97 
        1.17197         139.442         35.2898         150.059 
        1.17811         138.657         34.8761         149.428 
        1.18424         137.546         34.4703         148.628 
        1.19038         136.945         34.0699         148.009 
        1.19652         136.226          33.676          147.01 
        1.20267         135.144         33.2885         146.301 
        1.20881         134.384         32.9072         145.662 
        1.21495         133.486         32.5325         144.556 
        1.22108         132.719         32.1638         144.158 
         1.2272         131.989         31.8017         143.288 
        1.23334         131.134         31.4444         142.656 
        1.23949         129.743         31.0918         141.704 
        1.24562         129.676         30.7457         141.156 
        1.25174         128.517         30.4054         140.427 
        1.25789         127.892         30.0692         139.761 
        1.26402         127.403         29.7388         138.965 
        1.27014          126.22         29.4142         138.773 
        1.27628         125.851         29.0935         138.159 
        1.28244         124.901          28.777           136.8 
        1.28858         124.238         28.4657         136.156 
        1.29471         123.326         28.1597         135.854 
        1.30084          122.62         27.8586         134.909 
        1.30697         121.866         27.5614         134.221 
        1.31312         121.551         27.2682         133.651 
        1.31925         120.711         26.9802         132.964 
        1.32537         120.242         26.6967         132.289 
        1.33151         118.976         26.4163         131.742 
        1.33765         118.438         26.1402         131.178 
        1.34378         117.602         25.8685         130.354 
        1.34992         117.423         25.6006         129.885 
        1.35606         116.595          25.336         129.141 
         1.3622         115.615         25.0755         128.601 
        1.36833         115.269         24.8194         127.794 
        1.37445         114.328         24.5671         127.119 
        1.38059         113.883         24.3175         126.899 
        1.38675         113.171         24.0708         125.964 
        1.39288         112.448         23.8285         125.622 
        1.39901         112.123         23.5897          124.99 
        1.40515         111.594         23.3537         124.423 
         1.4113         110.272         23.1211         123.978 
        1.41742         110.154         22.8925          123.36 
        1.42355         109.251         22.6666         122.521 
         1.4297         108.715         22.4431         121.955 
        1.43585         108.009         22.2227         121.548 
        1.44198         107.653         22.0062         121.124 
        1.44809         106.779         21.7929         120.241 
        1.45423         106.215         21.5818         119.673 
        1.46036         105.702         21.3738         119.248 
        1.46649         105.182         21.1686         118.892 
        1.47263         104.717         20.9659         118.411 
        1.47877         104.176         20.7659         117.569 
        1.48491         103.387         20.5683         117.277 
        1.49104         102.791         20.3737         116.587 
        1.49718         102.304         20.1815         115.922 
        1.50333         101.619         19.9915         115.552 
        1.50947         100.867         19.8043         115.065 
         1.5156         100.779         19.6198         114.563 
        1.52172         99.8732         19.4377          114.16 
        1.52787         99.6778         19.2576         113.477 
          1.534         99.1589         19.0799         113.055 
        1.54013          98.301         18.9047         112.512 
        1.54627         97.7724         18.7315         112.004 
        1.55241          97.178         18.5603         111.626 
        1.55855         96.8151         18.3916         110.912 
        1.56467           96.11         18.2254         110.383 
         1.5708         95.6148         18.0609         110.084 
        1.57695         95.3275         17.8981         109.659 
        1.58308         94.4617         17.7378         109.146 
        1.58922         94.2567         17.5793         108.661 
        1.59535         93.7914         17.4228         108.175 
         1.6015          93.144         17.2681         107.645 
        1.60764         92.7518         17.1152         107.295 
        1.61376         92.1127         16.9647         107.003 
        1.61989         91.6815         16.8159          106.36 
        1.62604         90.9936         16.6686         105.798 
        1.63218         90.8516         16.5231         105.387 
        1.63831         90.2475         16.3797         105.055 
        1.64444         89.8286          16.238         104.624 
        1.65059         88.9869         16.0976         103.946 
        1.65673         88.6689         15.9591         103.574 
        1.66285         88.2816         15.8225         103.267 
        1.66898         87.8124         15.6876         102.741 
        1.67512         87.1198         15.5539         102.464 
        1.68127         86.6917         15.4217         101.975 
         1.6874         86.2726         15.2914          101.31 
        1.69353         85.8966         15.1626         100.889 
        1.69967         85.3589         15.0351         100.656 
        1.70581         84.9844         14.9091         100.247 
        1.71193         84.6261          14.785         99.7589 
        1.71806         83.8935          14.662         99.5175 
        1.72421         83.7577         14.5402         98.9868 
        1.73035         83.1026           14.42         98.5328 
        1.73649         82.6532         14.3012         98.2827 
        1.74262         82.3061         14.1838         97.7664 
        1.74876         81.8672         14.0676         97.2899 
        1.75489         81.3044          13.953         96.9293 
        1.76101         81.0165         13.8397         96.5339 
        1.76715         80.4959         13.7276         96.0049 
        1.77329          80.107         13.6165          95.664 
        1.77943         79.7683         13.5067          95.333 
        1.78557         79.3521         13.3982         94.7785 
        1.79171          78.861         13.2909         94.4001 
        1.79785         78.5891         13.1847         94.1485 
        1.80399         77.9503         13.0798         93.7782 
        1.81012         77.7399         12.9761         93.3726 
        1.81625         77.1194         12.8737          92.951 
        1.82239         76.7358         12.7722         92.5895 
        1.82853         76.3541         12.6718         92.3557 
        1.83466         75.9622         12.5726         91.9106 
        1.84078         75.3973         12.4746         91.4053 
        1.84692         75.1696         12.3775         91.2825 
        1.85306           74.78         12.2813         90.9217 
         1.8592         74.1993         12.1863         90.3969 
        1.86533         73.8405         12.0923         90.1282 
        1.87147         73.4599         11.9993         89.6785 
        1.87761         73.0675         11.9072         89.1988 
