# k  (h/Mpc)    P(k)  (Mpc/h)^3    P_linear(k)  (Mpc/h)^3     P_NL(k)  ShotnoiseSubtracted = false
     0.00783031         9659.97         9785.19         9775.45 
       0.013688         13162.6         13077.5         13006.7 
       0.019231         14117.3         14124.6         14003.6 
      0.0249154         13590.5         13872.6         13729.1 
      0.0312784         12590.3         12761.6           12594 
      0.0375637         11345.8         11414.8         11239.5 
      0.0433917           10033         10274.2         10080.8 
      0.0492413         9225.02         9361.65         9165.55 
      0.0555754         8320.44         8635.18          8439.9 
      0.0619321         8015.21         8093.75         7891.97 
       0.067871         7373.79         7655.88          7456.2 
      0.0738098         6921.93         7203.91          6952.1 
      0.0800417         6322.72         6672.93         6427.72 
      0.0862327            5835         6095.16         5906.04 
      0.0921407         5374.27         5536.73         5358.51 
      0.0982031         4841.28         5006.35         4894.37 
       0.104506         4521.82          4542.1         4487.43 
       0.110769         4171.31         4186.07         4110.48 
       0.116806          3901.4         3934.15         3860.68 
       0.122832         3731.21         3747.08         3690.49 
       0.129052         3495.96         3587.63         3534.76 
       0.135211         3346.63         3431.68         3377.28 
       0.141259         3224.86         3260.47         3232.39 
       0.147318         3061.67         3066.02         3062.91 
       0.153489          2825.7         2852.92         2824.04 
       0.159709         2675.42         2639.84         2655.17 
       0.165845         2568.22          2448.5         2530.75 
       0.171974         2409.59         2287.77         2382.75 
       0.178125         2289.42         2160.45         2304.37 
       0.184229         2200.54         2063.62         2200.29 
        0.19034         2077.23         1986.77         2126.13 
       0.196428         2050.34         1918.93         2040.08 
       0.202534          1986.4         1849.71          1980.6 
       0.208729         1904.98         1772.09         1888.04 
       0.214876         1823.26         1686.64         1839.34 
       0.220989         1770.71         1596.67         1773.74 
       0.227147         1685.23         1506.85         1702.06 
        0.23329         1620.34         1423.92         1650.28 
       0.239377         1595.56         1352.39         1589.29 
       0.245482         1496.76         1292.66          1521.3 
       0.251667         1488.64         1243.07         1489.75 
       0.257832         1435.39         1201.42         1445.57 
       0.263955         1391.88          1163.8         1405.96 
       0.270079         1349.66         1126.35         1367.93 
        0.27624         1338.02          1086.7         1326.76 
       0.282372         1281.17         1044.66         1294.98 
        0.28843         1270.46         1001.55          1259.4 
       0.294538          1210.4         958.366         1226.71 
       0.300721         1206.58         916.966         1192.76 
        0.30691         1156.32         879.446         1172.96 
       0.313033         1135.54         846.803         1137.68 
       0.319153         1114.84         818.437         1109.35 
       0.325316         1079.35         793.113         1093.67 
        0.33145          1055.3         769.875         1056.77 
       0.337538         1042.36         747.458         1038.85 
       0.343633         1015.86         724.825         1027.44 
       0.349808           984.6          701.34         1008.57 
       0.355968         979.546         677.546         991.134 
       0.362074         966.867         654.166          969.67 
       0.368217         939.811         631.492         943.785 
       0.374374         904.016          610.24         927.926 
       0.380519          902.51         590.759          909.36 
       0.386598         882.411         573.224         897.401 
       0.392688         879.349         557.122         877.136 
        0.39888         854.283         541.794         866.163 
       0.405048         842.751         527.156         856.233 
       0.411186         830.098         512.839          836.31 
       0.417313         814.295         498.583         822.089 
       0.423458         802.246          484.37         810.126 
       0.429607         788.675         470.323         793.872 
       0.435692         772.948         456.808         780.719 
       0.441815         769.296         443.817         776.722 
       0.447964         752.568         431.502          763.77 
       0.454126         740.287         419.908         745.471 
       0.460267         727.739          409.08         743.494 
       0.466387          719.82         398.864         729.338 
        0.47254             709             389         721.465 
       0.478662         706.323         379.461         710.372 
       0.484765         687.885         370.158         698.987 
       0.490885         682.402         360.982         688.938 
       0.497035         668.963         351.919         682.733 
       0.503198         662.851         343.074           673.6 
       0.509342         656.185          334.56          664.59 
       0.515458         652.064         326.425         660.921 
       0.521598         638.574         318.606         651.695 
       0.527764         624.675         311.108         643.838 
       0.533884         624.828         303.996         636.609 
           0.54          616.83          297.16         628.993 
       0.546137         614.052          290.51         621.647 
       0.552299         603.715         283.998         613.491 
       0.558452          600.71         277.652         608.392 
       0.564573         591.052         271.495         603.225 
       0.570708          584.48         265.482         598.008 
       0.576825         570.552         259.652         588.289 
       0.582926         571.388         254.012         582.528 
       0.589034         566.001         248.551         574.457 
       0.595184         560.332         243.251         569.302 
       0.601379         554.095         238.107          565.19 
       0.607522         546.396         233.175         558.613 
       0.613639         546.239         228.411          554.91 
       0.619772         531.614         223.761         553.287 
       0.625918         530.684         219.217         546.201 
       0.632068         523.677         214.785          540.44 
       0.638161         521.747         210.509         533.627 
         0.6443         511.491         206.316          530.82 
       0.650464         509.515         202.225         522.412 
       0.656582         508.218         198.278         518.264 
       0.662703         504.136          194.44           516.5 
       0.668861         495.053         190.686         512.387 
       0.675024         491.431         187.033         508.073 
       0.681124         488.907         183.517         500.408 
       0.687237         484.082         180.089          496.37 
       0.693381         478.246         176.735          492.52 
       0.699536         472.269         173.463         489.388 
       0.705665         470.637         170.288         485.028 
       0.711789         466.384         167.195         480.814 
       0.717957         462.229         164.156         478.315 
        0.72409         458.771         161.208         474.535 
       0.730186         453.759         158.351         470.741 
       0.736317         450.263         155.547         465.719 
       0.742472         448.648         152.802         461.696 
       0.748622         443.533         150.127         458.094 
        0.75476         438.478         147.523         457.752 
       0.760888         433.688         144.988         452.132 
       0.767043         434.263         142.504         448.749 
       0.773185         428.263         140.084         445.501 
       0.779291         423.256         137.736         441.492 
       0.785407          420.88          135.44         438.928 
       0.791564         416.437         133.182          436.31 
       0.797719         414.051         130.977         432.564 
       0.803834         410.728         128.836         430.211 
       0.809972          408.24         126.736         427.291 
       0.816124         408.305         124.679         421.954 
       0.822261         401.399         122.673         419.887 
       0.828378         399.564         120.719         416.913 
       0.834502         396.762         118.805         415.107 
       0.840667         391.723         116.921         412.001 
       0.846816         390.393         115.084         409.325 
       0.852925         386.607         113.299         406.381 
       0.859047         386.074         111.548         403.434 
       0.865192         382.138         109.829         400.839 
       0.871341         378.918         108.145          398.35 
       0.877463         376.459         106.505         395.874 
       0.883569         373.759         104.904         393.476 
       0.889708         370.913         103.328         390.095 
       0.895864         366.822         101.781         387.991 
       0.902008         365.893         100.268         385.423 
       0.908149         363.479         98.7885         381.941 
       0.914301         359.189         97.3364          380.05 
       0.920448         356.345         95.9152         376.779 
       0.926574         353.231         94.5277         374.591 
       0.932687         353.554          93.171         371.714 
       0.938823         348.815         91.8364         371.207 
       0.944975         348.367         90.5252         368.735 
       0.951105         344.833         89.2446         365.652 
       0.957225         342.111         87.9914         363.729 
       0.963368         338.215         86.7582         361.011 
       0.969511         336.508         85.5489         358.553 
       0.975621         333.918         84.3694         357.389 
       0.981748         333.893         83.2094         354.782 
       0.987916         330.561         82.0642         353.336 
        0.99406         325.923          80.945         351.141 
        1.00019         325.965         79.8492         347.642 
        1.00632          323.59          78.775         345.578 
        1.01246         320.613         77.7191         343.459 
        1.01859         320.701         76.6845         341.494 
        1.02471         316.563         75.6703         340.277 
        1.03085         313.685         74.6711         338.584 
        1.03698         312.956         73.6923         336.797 
        1.04314         310.068         72.7271         334.345 
        1.04929         307.568         71.7816          331.88 
        1.05541         306.741          70.857         329.936 
        1.06154         303.017         69.9465         328.092 
        1.06769         301.782         69.0508         326.243 
        1.07382         300.051         68.1739         324.135 
        1.07993         297.824         67.3144         322.636 
        1.08607         296.956         66.4664         320.572 
        1.09222         294.361         65.6322         318.567 
        1.09836         291.787         64.8136         317.683 
        1.10449             289           64.01         315.496 
        1.11063         286.908         63.2193         313.418 
        1.11677         286.287         62.4424         311.696 
         1.1229         284.427           61.68         310.305 
        1.12903         281.999         60.9299         308.736 
        1.13518         280.078         60.1917         306.703 
        1.14131         278.337         59.4663         305.101 
        1.14745           277.5         58.7535         303.374 
        1.15359         274.804         58.0523         301.656 
        1.15973         273.856         57.3623         299.893 
        1.16584          270.97         56.6868          297.52 
        1.17197         270.524         56.0214         296.452 
        1.17811         267.962         55.3646         295.352 
        1.18424         266.106         54.7205         293.825 
        1.19038         264.964         54.0848         292.188 
        1.19652         262.892         53.4596         290.875 
        1.20267         262.041         52.8443         288.376 
        1.20881         259.952          52.239         287.584 
        1.21495         257.799         51.6442          285.35 
        1.22108         256.736         51.0589         283.933 
         1.2272         254.827         50.4841         281.737 
        1.23334         253.017         49.9169         280.649 
        1.23949         251.764         49.3572         280.001 
        1.24562         250.268         48.8077         278.107 
        1.25174          247.36         48.2675         276.981 
        1.25789         245.913         47.7338         275.405 
        1.26402         244.992         47.2093         273.702 
        1.27014         243.171          46.694         272.566 
        1.27628         241.772         46.1849         271.705 
        1.28244         241.048         45.6825         269.957 
        1.28858         238.738         45.1883         268.314 
        1.29471         236.531         44.7026         266.531 
        1.30084          235.47         44.2245         265.255 
        1.30697         233.831         43.7528         264.278 
        1.31312         232.195         43.2873          262.57 
        1.31925         231.868         42.8302         260.855 
        1.32537         230.257         42.3801         259.899 
        1.33151         228.161          41.935         258.701 
        1.33765         226.682         41.4966         257.104 
        1.34378         225.693         41.0654         255.902 
        1.34992         224.268         40.6401         254.258 
        1.35606         223.601           40.22         252.812 
         1.3622         221.864         39.8065         251.701 
        1.36833         219.827            39.4         250.702 
        1.37445         218.219         38.9994         248.851 
        1.38059         216.774         38.6032         248.104 
        1.38675         215.782         38.2115         246.916 
        1.39288         214.043          37.827         244.767 
        1.39901         213.856         37.4479         244.133 
        1.40515          211.97         37.0732         243.113 
         1.4113          210.11         36.7039         241.514 
        1.41742         209.467          36.341         240.388 
        1.42355         207.259         35.9824         239.523 
         1.4297         206.323         35.6276          238.18 
        1.43585         204.703         35.2778         237.057 
        1.44198         203.667          34.934         235.705 
        1.44809         202.887         34.5955         234.564 
        1.45423         200.889         34.2603          233.17 
        1.46036          200.37         33.9302         232.032 
        1.46649         198.681         33.6044         231.314 
        1.47263         197.339         33.2826         230.503 
        1.47877         196.386         32.9652         228.901 
        1.48491         194.829         32.6515          227.73 
        1.49104         194.078         32.3425         226.846 
        1.49718         191.938         32.0374         225.415 
        1.50333         191.198         31.7357         224.495 
        1.50947         190.214         31.4386         223.562 
         1.5156          188.67         31.1458         222.272 
        1.52172         187.631         30.8567         221.002 
        1.52787         186.267         30.5707         220.076 
          1.534         185.701         30.2887         218.968 
        1.54013          183.83         30.0106         217.968 
        1.54627         183.376         29.7355         217.066 
        1.55241         181.634         29.4639          215.94 
        1.55855         180.642          29.196         214.715 
        1.56467         179.574         28.9323         213.665 
         1.5708         178.774          28.671         212.867 
        1.57695         177.009         28.4127          211.88 
        1.58308         176.677         28.1581         210.715 
        1.58922         175.206         27.9065         209.723 
        1.59535          173.86         27.6581         208.762 
         1.6015         173.388         27.4124         207.597 
        1.60764         171.922         27.1699         206.507 
        1.61376          170.54         26.9309         205.799 
        1.61989         169.689         26.6947         205.023 
        1.62604         168.875         26.4608         203.941 
        1.63218         167.736         26.2298         202.958 
        1.63831         166.691         26.0022          202.03 
        1.64444           165.8         25.7772         200.851 
        1.65059         164.688         25.5544         200.113 
        1.65673          163.66         25.3344         199.177 
        1.66285         162.849         25.1177         198.098 
        1.66898          161.89         24.9035         197.214 
        1.67512         161.093         24.6913          196.36 
        1.68127         159.525         24.4815         195.489 
         1.6874          158.19         24.2746          194.72 
        1.69353         157.855         24.0702         194.002 
        1.69967         156.712         23.8677         192.806 
        1.70581         155.763         23.6676         191.794 
        1.71193         154.612         23.4706         190.984 
        1.71806         153.996         23.2754         189.841 
        1.72421         152.978         23.0821         189.132 
        1.73035         151.958         22.8912          188.34 
        1.73649         151.397         22.7026         187.319 
        1.74262         150.085         22.5162         186.753 
        1.74876          149.54         22.3318         185.905 
        1.75489         148.048         22.1499         184.886 
        1.76101         147.432         21.9701         184.045 
        1.76715         146.663          21.792         183.212 
        1.77329         145.991         21.6157         182.283 
        1.77943         144.718         21.4413         181.362 
        1.78557         143.912         21.2691          180.58 
        1.79171         143.038         21.0988         179.939 
        1.79785         142.109         20.9303         179.199 
        1.80399         141.361         20.7637          178.21 
        1.81012          140.45         20.5992         177.364 
        1.81625         139.678         20.4365         176.699 
        1.82239         138.936         20.2754         176.001 
        1.82853         138.261          20.116         175.161 
        1.83466         137.267         19.9586         174.219 
        1.84078         136.542          19.803         173.386 
        1.84692         135.428         19.6488         172.833 
        1.85306         134.873         19.4961         172.033 
         1.8592         133.641         19.3453         171.196 
        1.86533         132.946         19.1961         170.682 
        1.87147         132.085         19.0484         169.883 
        1.87761         131.686         18.9022         168.982 
