# k  (h/Mpc)    P(k)  (Mpc/h)^3    P_linear(k)  (Mpc/h)^3     P_NL(k)  ShotnoiseSubtracted = false
     0.00783031         143.416         144.536         144.397 
       0.013688         192.634         193.339         192.743 
       0.019231         208.644         208.895         207.995 
      0.0249154         204.415         205.208         204.587 
      0.0312784         188.583         188.798         188.541 
      0.0375637          169.05         168.887         168.768 
      0.0433917         151.969         152.018         152.023 
      0.0492413         138.638         138.521         138.551 
      0.0555754         127.638         127.775         127.773 
      0.0619321         119.992         119.766         119.739 
       0.067871         113.139         113.289         113.208 
      0.0738098         106.384         106.602         106.473 
      0.0800417         98.4247         98.7455          98.628 
      0.0862327         90.0246         90.1964         90.1163 
      0.0921407         81.8613         81.9334         81.8908 
      0.0982031         73.9605         74.0851         74.0869 
       0.104506         67.3105         67.2154         67.2477 
       0.110769         62.0173          61.947         61.9715 
       0.116806         58.1168         58.2192         58.2225 
       0.122832          55.455          55.451         55.4489 
       0.129052         52.9621         53.0915         53.0734 
       0.135211         50.6061         50.7838         50.7543 
       0.141259         48.1621         48.2503         48.2254 
       0.147318         45.3777         45.3728          45.365 
       0.153489          42.164         42.2193         42.2095 
       0.159709         39.0317          39.066         39.0812 
       0.165845         36.3528         36.2346          36.283 
       0.171974         33.8347         33.8559          33.906 
       0.178125         31.9733         31.9719           32.04 
       0.184229         30.5877         30.5389         30.6056 
        0.19034         29.3217         29.4016         29.4617 
       0.196428          28.381         28.3977          28.438 
       0.202534          27.453         27.3734         27.4136 
       0.208729         26.2325         26.2247         26.2622 
       0.214876         24.8995         24.9601         25.0181 
       0.220989          23.714         23.6288         23.6977 
       0.227147         22.2594         22.2995         22.3725 
        0.23329         21.0468         21.0722         21.1654 
       0.239377          20.014         20.0138         20.1191 
       0.245482         19.1021         19.1297         19.2269 
       0.251667         18.4385          18.396         18.5014 
       0.257832         17.7903         17.7795         17.8814 
       0.263955         17.2411         17.2228         17.3175 
       0.270079         16.6941         16.6687         16.7576 
        0.27624         16.1601         16.0818         16.1653 
       0.282372         15.5312         15.4597         15.5506 
        0.28843         14.8508         14.8217         14.9172 
       0.294538         14.2239         14.1827          14.286 
       0.300721         13.6592           13.57         13.6833 
        0.30691          13.061         13.0148         13.1308 
       0.313033         12.5886         12.5317         12.6463 
       0.319153         12.0934         12.1119         12.2342 
       0.325316         11.8234         11.7372          11.863 
        0.33145         11.4597         11.3933         11.5108 
       0.337538         11.1209         11.0615         11.1747 
       0.343633         10.7694         10.7266         10.8388 
       0.349808         10.4399          10.379         10.4955 
       0.355968         10.0948         10.0269         10.1587 
       0.362074         9.74224         9.68091         9.80778 
       0.368217         9.41325         9.34536         9.46282 
       0.374374         9.06803         9.03086         9.15875 
       0.380519         8.81268         8.74257         8.86681 
       0.386598         8.56185         8.48306         8.61177 
       0.392688         8.33792         8.24477         8.37248 
        0.39888         8.09739         8.01793         8.14374 
       0.405048         7.88637         7.80132         7.92031 
       0.411186         7.68228         7.58944         7.72085 
       0.417313         7.44752         7.37847         7.50462 
       0.423458         7.25545         7.16813         7.29684 
       0.429607          7.0306         6.96025         7.08524 
       0.435692         6.83115         6.76025         6.89088 
       0.441815         6.64512         6.56799          6.7064 
       0.447964         6.48975         6.38574         6.52003 
       0.454126         6.28837         6.21417         6.34644 
       0.460267         6.12579         6.05392         6.18945 
       0.466387         5.96514         5.90275         6.03256 
        0.47254         5.82966         5.75676         5.88776 
       0.478662          5.6958          5.6156         5.74418 
       0.484765         5.54808         5.47793         5.60807 
       0.490885           5.413         5.34213         5.48117 
       0.497035         5.30757         5.20801         5.34796 
       0.503198         5.16382         5.07711         5.20648 
       0.509342         5.04552         4.95111          5.0844 
       0.515458         4.91281         4.83073         4.97009 
       0.521598         4.80177         4.71501         4.84436 
       0.527764         4.67997         4.60405         4.73319 
       0.533884         4.59205         4.49881         4.62887 
           0.54          4.4858         4.39763         4.52533 
       0.546137          4.3941         4.29923         4.42956 
       0.552299         4.29444         4.20285         4.32503 
       0.558452          4.1857         4.10894         4.23314 
       0.564573         4.10528         4.01783         4.15168 
       0.570708         4.01807         3.92884         4.06003 
       0.576825         3.92325         3.84256          3.9715 
       0.582926         3.85105          3.7591         3.89022 
       0.589034         3.74572         3.67829          3.8131 
       0.595184         3.67494         3.59985         3.72281 
       0.601379         3.59899         3.52372         3.65528 
       0.607522         3.53623         3.45073         3.58034 
       0.613639         3.47708         3.38023         3.50812 
       0.619772         3.39014         3.31141         3.44334 
       0.625918         3.32898         3.24416         3.37128 
       0.632068         3.27171         3.17858         3.30401 
       0.638161         3.19917          3.1153         3.24006 
         0.6443         3.13563         3.05325         3.17594 
       0.650464         3.06699         2.99271         3.12026 
       0.656582         3.01854          2.9343         3.05991 
       0.662703          2.9625          2.8775         3.00147 
       0.668861         2.91424         2.82194         2.94967 
       0.675024         2.85117         2.76788         2.89245 
       0.681124         2.79239         2.71585         2.83869 
       0.687237         2.75118         2.66512         2.78359 
       0.693381         2.70292         2.61549         2.73107 
       0.699536         2.63715         2.56707         2.68417 
       0.705665         2.59428         2.52008         2.64437 
       0.711789         2.55411         2.47431         2.59668 
       0.717957         2.50373         2.42933         2.54772 
        0.72409         2.46276         2.38571         2.50418 
       0.730186         2.41865         2.34342         2.45848 
       0.736317         2.38737         2.30192         2.41611 
       0.742472         2.34441          2.2613         2.38199 
       0.748622         2.30085         2.22171         2.34193 
        0.75476         2.25389         2.18318         2.29808 
       0.760888          2.2172         2.14566         2.26162 
       0.767043         2.19276          2.1089         2.22588 
       0.773185         2.14784          2.0731         2.19141 
       0.779291         2.11487         2.03835         2.15581 
       0.785407         2.08141         2.00436         2.11994 
       0.791564         2.04798         1.97094         2.08644 
       0.797719         2.01877         1.93831         2.04934 
       0.803834          1.9871         1.90664         2.01917 
       0.809972         1.95459         1.87556         1.99107 
       0.816124         1.92039         1.84511         1.95635 
       0.822261          1.8872         1.81543         1.92599 
       0.828378         1.86329          1.7865         1.89674 
       0.834502         1.83818         1.75819         1.86614 
       0.840667         1.80179         1.73031         1.83962 
       0.846816         1.77531         1.70312         1.81661 
       0.852925         1.75538          1.6767         1.78721 
       0.859047         1.72843         1.65079         1.76419 
       0.865192         1.70029         1.62535         1.73599 
       0.871341         1.67429         1.60044         1.70937 
       0.877463         1.65635         1.57616         1.68376 
       0.883569         1.62653         1.55247         1.66174 
       0.889708         1.60198         1.52914         1.63792 
       0.895864         1.57977         1.50624         1.61363 
       0.902008         1.55439         1.48386         1.59067 
       0.908149         1.53267         1.46196         1.56973 
       0.914301         1.50469         1.44047         1.54536 
       0.920448         1.48663         1.41944         1.52339 
       0.926574          1.4648         1.39891         1.50345 
       0.932687         1.44494         1.37883          1.4803 
       0.938823         1.43075         1.35908          1.4655 
       0.944975         1.40887         1.33967         1.44031 
       0.951105         1.39071         1.32072         1.42138 
       0.957225         1.37559         1.30218         1.40566 
       0.963368         1.35505         1.28393         1.38488 
       0.969511         1.33363         1.26603         1.36691 
       0.975621          1.3135         1.24858         1.34519 
       0.981748         1.30189         1.23141         1.32881 
       0.987916         1.28322         1.21446         1.31523 
        0.99406         1.26416          1.1979         1.29883 
        1.00019         1.25138         1.18168          1.2819 
        1.00632         1.23033         1.16578         1.26373 
        1.01246         1.21479         1.15016         1.24695 
        1.01859         1.20167         1.13485         1.23254 
        1.02471         1.18463         1.11984         1.21769 
        1.03085         1.17353         1.10505         1.19962 
        1.03698         1.15539         1.09057         1.18413 
        1.04314          1.1422         1.07628         1.17079 
        1.04929         1.12609         1.06229          1.1564 
        1.05541         1.11452         1.04861         1.14378 
        1.06154          1.0985         1.03513         1.12973 
        1.06769         1.08387         1.02188         1.11539 
        1.07382         1.07267          1.0089         1.10211 
        1.07993         1.05648        0.996181         1.08881 
        1.08607         1.04885        0.983631         1.07622 
        1.09222         1.03307        0.971286         1.06225 
        1.09836         1.02487        0.959171         1.05094 
        1.10449         1.01186        0.947278         1.03848 
        1.11063        0.996435        0.935577         1.02494 
        1.11677        0.983554         0.92408         1.01459 
         1.1229         0.97377        0.912798          1.0029 
        1.12903         0.96082        0.901696        0.991062 
        1.13518        0.952465        0.890773         0.97994 
        1.14131        0.939148        0.880038        0.969218 
        1.14745        0.923823        0.869488        0.956472 
        1.15359        0.917507        0.859111        0.946656 
        1.15973        0.903525        0.848901        0.937078 
        1.16584         0.89873        0.838904        0.925415 
        1.17197        0.886513        0.829056        0.915267 
        1.17811        0.877461        0.819337        0.906284 
        1.18424        0.870508        0.809804        0.894627 
        1.19038         0.85758        0.800397         0.88534 
        1.19652          0.8459        0.791144        0.876281 
        1.20267        0.840293        0.782039        0.864565 
        1.20881        0.828678        0.773081        0.857091 
        1.21495        0.822286        0.764279        0.849702 
        1.22108        0.812686        0.755616        0.838755 
         1.2272        0.805047         0.74711        0.828739 
        1.23334        0.794877        0.738717        0.820902 
        1.23949        0.786223        0.730433          0.8135 
        1.24562         0.77836        0.722301        0.804771 
        1.25174        0.770402        0.714307        0.795268 
        1.25789        0.763247        0.706409        0.786838 
        1.26402        0.752193        0.698647        0.778992 
        1.27014        0.745125        0.691021        0.770729 
        1.27628        0.739458        0.683487        0.762638 
        1.28244        0.728373        0.676052        0.755129 
        1.28858        0.722323        0.668738        0.746219 
        1.29471        0.716898         0.66155        0.739712 
        1.30084        0.707458        0.654476        0.733832 
        1.30697        0.700524        0.647494        0.725794 
        1.31312        0.690599        0.640606        0.718193 
        1.31925        0.685496        0.633841        0.711839 
        1.32537         0.67966        0.627181        0.705052 
        1.33151         0.67372        0.620593        0.697927 
        1.33765        0.666466        0.614106        0.691083 
        1.34378        0.657905        0.607724        0.684545 
        1.34992        0.653085         0.60143        0.678141 
        1.35606        0.645913        0.595212        0.670403 
         1.3622        0.639901        0.589094        0.664165 
        1.36833        0.633264        0.583078        0.658459 
        1.37445        0.625294        0.577149         0.65263 
        1.38059        0.619532        0.571285        0.645722 
        1.38675        0.617812         0.56549        0.639631 
        1.39288        0.609392        0.559799        0.633222 
        1.39901        0.603893        0.554189        0.627763 
        1.40515         0.59868        0.548644        0.621664 
         1.4113        0.591356        0.543178         0.61642 
        1.41742        0.585953        0.537808           0.612 
        1.42355        0.582706        0.532501        0.604083 
         1.4297        0.575143         0.52725        0.599904 
        1.43585        0.570544        0.522073        0.594239 
        1.44198        0.567008        0.516986        0.586866 
        1.44809         0.55963        0.511977         0.58393 
        1.45423        0.555093        0.507016        0.576557 
        1.46036         0.54961        0.502131        0.572187 
        1.46649        0.545584        0.497309        0.568435 
        1.47263         0.53968        0.492547        0.562741 
        1.47877        0.533906         0.48785        0.557762 
        1.48491        0.529935        0.483207        0.553433 
        1.49104        0.523742        0.478635        0.547168 
        1.49718        0.519997        0.474119        0.543797 
        1.50333        0.516111        0.469655        0.537355 
        1.50947        0.511082        0.465258        0.532473 
         1.5156        0.506153        0.460924        0.529121 
        1.52172        0.501904        0.456646        0.523788 
        1.52787         0.49722        0.452414        0.519171 
          1.534         0.49294        0.448241        0.515412 
        1.54013        0.487577        0.444125        0.510883 
        1.54627        0.484562        0.440054        0.506166 
        1.55241         0.47952        0.436034        0.501857 
        1.55855         0.47453         0.43207        0.497687 
        1.56467        0.472988        0.428167        0.494058 
         1.5708        0.467671        0.424301        0.489159 
        1.57695        0.463977        0.420477        0.484548 
        1.58308        0.459545         0.41671        0.481442 
        1.58922         0.45606        0.412987        0.477629 
        1.59535        0.451864        0.409311        0.473274 
         1.6015        0.447844        0.405675        0.468786 
        1.60764        0.444481        0.402085         0.46561 
        1.61376         0.43951        0.398549        0.463026 
        1.61989        0.436918        0.395053        0.458762 
        1.62604        0.433534        0.391591        0.454748 
        1.63218        0.430153        0.388174        0.451229 
        1.63831        0.426432        0.384805        0.447588 
        1.64444        0.422708        0.381476        0.443667 
        1.65059        0.419305        0.378178        0.439975 
        1.65673        0.415892        0.374923        0.436739 
        1.66285        0.412874        0.371716        0.433429 
        1.66898        0.409515        0.368545        0.429682 
        1.67512        0.405352        0.365406        0.426254 
        1.68127        0.401907          0.3623        0.423201 
         1.6874        0.399837        0.359238        0.420218 
        1.69353        0.395679        0.356213        0.416856 
        1.69967        0.393632        0.353216        0.413051 
        1.70581        0.389252        0.350255        0.409783 
        1.71193        0.386534         0.34734         0.40697 
        1.71806        0.382965        0.344452        0.403785 
        1.72421         0.38102        0.341591        0.401173 
        1.73035        0.377346        0.338766         0.39799 
        1.73649        0.375108        0.335974        0.394067 
        1.74262        0.371824        0.333216         0.39114 
        1.74876        0.368791        0.330488        0.388857 
        1.75489        0.366402        0.327795        0.386087 
        1.76101        0.362505        0.325134        0.382761 
        1.76715        0.360152        0.322499        0.380226 
        1.77329        0.357015         0.31989        0.377739 
        1.77943        0.354487        0.317309        0.374782 
        1.78557        0.352364        0.314761        0.371595 
        1.79171        0.349462         0.31224        0.368522 
        1.79785        0.346773        0.309747        0.366011 
        1.80399           0.344        0.307281         0.36385 
        1.81012        0.341766        0.304846        0.360307 
        1.81625        0.338857        0.302439        0.357391 
        1.82239        0.336681        0.300054        0.355817 
        1.82853        0.333341        0.297696          0.3535 
        1.83466        0.331566        0.295366         0.35058 
        1.84078        0.328764        0.293063         0.34785 
        1.84692        0.326364        0.290782        0.345789 
        1.85306        0.324407        0.288522        0.342981 
         1.8592         0.32147         0.28629        0.339976 
        1.86533        0.319654        0.284083        0.337998 
        1.87147        0.317088        0.281897        0.335852 
        1.87761        0.315379        0.279732        0.333638 
