# k  (h/Mpc)    P(k)  (Mpc/h)^3    P_linear(k)  (Mpc/h)^3     P_NL(k)  ShotnoiseSubtracted = false
     0.00783031          8555.5         8662.99         8655.24 
       0.013688         11647.1         11578.1         11518.9 
       0.019231         12501.2         12505.4         12404.4 
      0.0249154         12050.8         12282.3         12165.8 
      0.0312784         11162.7         11298.8         11165.8 
      0.0375637         10056.3         10106.4          9967.7 
      0.0433917         8903.87         9096.55         8944.45 
      0.0492413         8182.88         8288.62         8134.64 
      0.0555754         7392.88         7645.43         7491.71 
      0.0619321         7111.58         7166.07         7006.97 
       0.067871         6554.33         6778.39          6620.5 
      0.0738098         6152.89         6378.23         6178.88 
      0.0800417         5625.91         5908.11          5713.8 
      0.0862327         5188.87         5396.56         5246.91 
      0.0921407         4773.71         4902.14         4760.88 
      0.0982031         4299.27         4432.55         4344.47 
       0.104506         4008.94         4021.51         3979.11 
       0.110769         3697.21         3706.29         3646.31 
       0.116806         3455.37         3483.24         3425.05 
       0.122832         3306.49         3317.62         3273.06 
       0.129052         3101.54         3176.44          3134.5 
       0.135211         2968.84         3038.36         2995.68 
       0.141259         2858.45         2886.78         2864.72 
       0.147318         2712.23         2714.62          2713.6 
       0.153489         2503.69         2525.94         2503.03 
       0.159709         2367.09         2337.28         2350.21 
       0.165845         2266.92         2167.87         2235.62 
       0.171974         2124.18         2025.56         2102.66 
       0.178125         2017.57         1912.84         2030.03 
       0.184229         1940.33         1827.11          1939.2 
        0.19034         1828.51         1759.06         1872.85 
       0.196428         1805.29            1699         1796.37 
       0.202534         1751.12         1637.71         1743.03 
       0.208729         1677.34         1568.98         1662.27 
       0.214876         1601.57         1493.33         1618.04 
       0.220989          1555.9         1413.67         1557.79 
       0.227147         1476.66         1334.14         1491.86 
        0.23329         1418.85         1260.72         1445.25 
       0.239377          1394.4         1197.39         1391.39 
       0.245482         1306.86          1144.5         1330.66 
       0.251667         1298.48          1100.6         1302.14 
       0.257832         1252.88         1063.72          1262.9 
       0.263955         1215.01         1030.41         1227.33 
       0.270079            1178         997.259         1193.47 
        0.27624          1167.6         962.149         1156.67 
       0.282372         1117.87         924.926          1126.9 
        0.28843         1103.84         886.759         1093.95 
       0.294538         1051.61         848.526         1065.61 
       0.300721         1048.28         811.871         1036.45 
        0.30691         1003.07         778.651         1017.21 
       0.313033         984.878         749.749         985.721 
       0.319153         963.701         724.634         961.615 
       0.325316          933.86         702.213          947.08 
        0.33145         911.974         681.638         914.933 
       0.337538         901.556          661.79         898.026 
       0.343633         876.914         641.751         887.839 
       0.349808         849.864         620.958         870.952 
       0.355968         845.325         599.891         855.208 
       0.362074         832.658         579.191         835.949 
       0.368217         809.923         559.115         812.654 
       0.374374         778.512         540.299         798.501 
       0.380519         775.388         523.051         781.864 
       0.386598         758.486         507.525         771.106 
       0.392688         755.754         493.269         753.598 
        0.39888         734.023         479.698         743.255 
       0.405048          722.99         466.738         735.156 
       0.411186         711.313         454.062         717.097 
       0.417313         698.407          441.44         703.372 
       0.423458         687.806         428.855         693.215 
       0.429607         675.113         416.418         679.074 
       0.435692         661.212         404.453         667.718 
       0.441815         657.919          392.95         663.513 
       0.447964         644.096         382.046         651.893 
       0.454126         630.216         371.782         636.563 
       0.460267         621.098         362.194         634.107 
       0.466387         614.481          353.15         621.992 
        0.47254         603.519         344.416         615.056 
       0.478662          602.03          335.97         604.791 
       0.484765         585.821         327.734          593.98 
       0.490885         580.544         319.609         586.194 
       0.497035         569.745         311.585         580.658 
       0.503198         562.659         303.753          572.33 
       0.509342          557.68         296.215         565.353 
       0.515458         553.408         289.013         561.866 
       0.521598         542.608          282.09         552.774 
       0.527764         531.123         275.451         545.649 
       0.533884         530.101         269.155         539.566 
           0.54         523.301         263.102         532.853 
       0.546137         521.292         257.214         526.774 
       0.552299         511.801         251.448          519.78 
       0.558452         508.826          245.83         515.004 
       0.564573         500.515         240.378         510.646 
       0.570708          494.03         235.055         506.157 
       0.576825         484.105         229.893         497.441 
       0.582926          483.09         224.899         492.233 
       0.589034         478.217         220.064         485.951 
       0.595184         473.745         215.372         480.572 
       0.601379         468.849         210.817         477.552 
       0.607522         461.768          206.45         472.204 
       0.613639         460.778         202.232         468.305 
       0.619772         448.633         198.115         466.236 
       0.625918         447.898         194.092         460.727 
       0.632068         441.837         190.168         454.858 
       0.638161         440.137         186.382          450.33 
         0.6443           431.7          182.67         447.321 
       0.650464          429.46         179.048         440.123 
       0.656582         428.454         175.553         436.463 
       0.662703         424.701         172.155         434.993 
       0.668861         417.227         168.831         430.948 
       0.675024           413.8         165.596         426.938 
       0.681124         411.912         162.484         421.077 
       0.687237         407.389         159.449         417.471 
       0.693381         402.144         156.479         414.144 
       0.699536         398.251         153.582         411.451 
       0.705665         396.096         150.771         408.133 
       0.711789          392.14         148.033         404.172 
       0.717957         388.948         145.342         401.665 
        0.72409          385.44         142.732         398.833 
       0.730186         381.569         140.202         395.593 
       0.736317           378.4         137.719         391.248 
       0.742472         376.999         135.289         387.784 
       0.748622         373.156          132.92         384.544 
        0.75476         369.477         130.615          383.72 
       0.760888         365.046          128.37         379.087 
       0.767043         365.105         126.171         376.683 
       0.773185         360.117         124.029         373.849 
       0.779291         355.051          121.95         370.392 
       0.785407         353.718         119.917         367.942 
       0.791564           350.2         117.918         365.536 
       0.797719         347.701         115.965         362.872 
       0.803834         345.114          114.07         360.422 
       0.809972         342.669         112.211           357.8 
       0.816124         343.045         110.389         354.052 
       0.822261         337.042         108.614         351.987 
       0.828378         335.449         106.883         349.212 
       0.834502         333.999         105.189         347.615 
       0.840667         328.933         103.521         345.103 
       0.846816         327.934         101.894         342.741 
       0.852925         325.112         100.313         340.088 
       0.859047         323.814         98.7632         337.796 
       0.865192         320.988         97.2412         335.716 
       0.871341         317.972         95.7507         333.306 
       0.877463         315.857         94.2986         331.412 
       0.883569         313.611         92.8808         329.413 
       0.889708         311.132         91.4853          326.63 
       0.895864         307.399         90.1152          324.85 
       0.902008         307.074         88.7765         322.366 
       0.908149         305.144         87.4662         319.564 
       0.914301          301.44         86.1805         318.288 
       0.920448         298.874         84.9221         315.253 
       0.926574         297.104         83.6937         313.349 
       0.932687           296.9         82.4925         310.793 
       0.938823         293.145         81.3108         310.368 
       0.944975         291.999         80.1499          308.64 
       0.951105           289.9         79.0161         306.171 
       0.957225         287.145         77.9065          304.07 
       0.963368         283.787         76.8147         301.554 
       0.969511         282.395          75.744         299.798 
       0.975621         280.189         74.6997         299.211 
       0.981748         280.486         73.6727         296.804 
       0.987916         277.108         72.6587         295.438 
        0.99406         274.244         71.6678         293.728 
        1.00019         274.208         70.6976         291.012 
        1.00632         271.777         69.7464         288.924 
        1.01246         269.476         68.8116         287.133 
        1.01859         269.023         67.8956         285.931 
        1.02471         266.176         66.9976           284.8 
        1.03085         263.397         66.1129         283.045 
        1.03698         262.511         65.2463         281.515 
        1.04314         260.552         64.3917         279.585 
        1.04929          258.39         63.5546         277.596 
        1.05541         257.531         62.7359         276.062 
        1.06154         255.109         61.9298         274.595 
        1.06769         254.332         61.1368         273.153 
        1.07382         252.565         60.3604         271.279 
        1.07993         250.561         59.5994         269.926 
        1.08607         249.575         58.8485         268.588 
        1.09222           247.7           58.11         266.919 
        1.09836         245.343         57.3852         265.938 
        1.10449         243.136         56.6737         264.079 
        1.11063         241.502         55.9736         262.359 
        1.11677         240.975         55.2857          260.93 
         1.1229         239.021         54.6108         259.759 
        1.12903         237.478         53.9466         258.444 
        1.13518         236.154          53.293         256.819 
        1.14131         234.369         52.6508         255.386 
        1.14745         233.782         52.0196         253.991 
        1.15359         231.505         51.3988         252.522 
        1.15973         230.979         50.7879          251.01 
        1.16584         228.239         50.1898         249.087 
        1.17197         227.835         49.6006         248.044 
        1.17811         225.943         49.0192         247.291 
        1.18424         224.521         48.4488         245.853 
        1.19038         223.729          47.886         244.562 
        1.19652         222.087         47.3325         243.605 
        1.20267         220.939         46.7877         241.659 
        1.20881         219.225         46.2518         240.984 
        1.21495         217.699         45.7252         238.929 
        1.22108         216.953         45.2069         238.159 
         1.2272         215.088          44.698         236.191 
        1.23334         213.749         44.1958         235.406 
        1.23949         212.144         43.7003         234.669 
        1.24562         211.255         43.2137         232.979 
        1.25174         208.575         42.7354         232.138 
        1.25789         207.709          42.263         230.813 
        1.26402         206.826         41.7986         229.254 
        1.27014         205.327         41.3423         228.792 
        1.27628         204.287         40.8916         227.938 
        1.28244         203.616         40.4467         226.095 
        1.28858         201.867         40.0092         224.876 
        1.29471         199.873         39.5791         223.756 
        1.30084         198.858         39.1559         222.576 
        1.30697         197.661         38.7382         221.581 
        1.31312         196.729         38.3261         220.046 
        1.31925         195.697         37.9213          218.89 
        1.32537         194.566         37.5229         218.169 
        1.33151         192.857         37.1288         217.057 
        1.33765         191.987         36.7406          215.82 
        1.34378         190.758         36.3588         214.655 
        1.34992         189.698         35.9823         213.563 
        1.35606         188.753         35.6103         212.245 
         1.3622         187.601         35.2442         211.298 
        1.36833         186.091         34.8843         210.319 
        1.37445         184.503         34.5296         208.961 
        1.38059         183.913         34.1788         208.332 
        1.38675         182.607          33.832         207.169 
        1.39288         181.711         33.4915         205.778 
        1.39901         181.256         33.1559         205.192 
        1.40515         179.823         32.8242         204.342 
         1.4113         177.908         32.4972         203.137 
        1.41742         177.459         32.1759         202.229 
        1.42355         175.849         31.8584         201.543 
         1.4297         174.949         31.5443         200.313 
        1.43585          173.42         31.2345         199.254 
        1.44198         173.023         30.9302          198.29 
        1.44809         171.991         30.6305         197.232 
        1.45423         170.395         30.3337         196.238 
        1.46036         169.857         30.0414         195.314 
        1.46649         168.808         29.7529         194.654 
        1.47263         167.959          29.468         193.998 
        1.47877         166.811          29.187         192.743 
        1.48491         165.422         28.9092         191.831 
        1.49104         164.801         28.6357         191.079 
        1.49718         163.023         28.3655         189.642 
        1.50333         162.429         28.0985         188.914 
        1.50947          161.57         27.8354         188.155 
         1.5156         160.607         27.5761         187.182 
        1.52172          159.51         27.3201         186.418 
        1.52787         158.573         27.0669         185.401 
          1.534         157.917         26.8173         184.441 
        1.54013         156.282          26.571         183.676 
        1.54627         155.933         26.3275         182.911 
        1.55241         154.647          26.087         182.015 
        1.55855         153.944         25.8498         180.957 
        1.56467         153.065         25.6163         180.077 
         1.5708         151.982          25.385         179.589 
        1.57695         151.014         25.1562         178.746 
        1.58308         150.401         24.9309         177.611 
        1.58922         149.652         24.7081         176.838 
        1.59535          148.33         24.4882         176.056 
         1.6015         147.822         24.2706         175.171 
        1.60764         146.684         24.0559         174.355 
        1.61376         145.875         23.8443         173.732 
        1.61989         144.971         23.6352         173.046 
        1.62604          144.18         23.4281          172.07 
        1.63218          143.31         23.2236         171.225 
        1.63831         142.323         23.0221         170.542 
        1.64444         141.581         22.8229         169.615 
        1.65059           140.9         22.6256         168.906 
        1.65673         139.763         22.4308         168.153 
        1.66285         139.433         22.2389         167.363 
        1.66898         138.387         22.0492         166.663 
        1.67512          137.62         21.8614         165.958 
        1.68127         136.599         21.6756         165.157 
         1.6874         135.239         21.4924         164.437 
        1.69353         134.878         21.3114         163.875 
        1.69967         134.255         21.1322         162.943 
        1.70581         133.386          20.955         162.102 
        1.71193         132.567         20.7806         161.436 
        1.71806         131.716         20.6078           160.6 
        1.72421         131.217         20.4366         159.931 
        1.73035         130.117         20.2676         159.229 
        1.73649         129.526         20.1006         158.465 
        1.74262         128.822         19.9356         157.954 
        1.74876         128.186         19.7723         157.187 
        1.75489         126.927         19.6113         156.303 
        1.76101         126.585         19.4521         155.574 
        1.76715         125.446         19.2944          154.88 
        1.77329         125.067         19.1383         154.216 
        1.77943         124.189         18.9839         153.563 
        1.78557         123.482         18.8314         152.915 
        1.79171         122.761         18.6806         152.355 
        1.79785         122.024         18.5315         151.737 
        1.80399         121.326          18.384         150.929 
        1.81012         120.686         18.2383         150.199 
        1.81625          119.85         18.0942         149.616 
        1.82239         119.525         17.9516         149.039 
        1.82853         118.886         17.8105         148.354 
        1.83466         117.894         17.6711         147.597 
        1.84078         117.497         17.5333          146.94 
        1.84692         116.461         17.3968          146.51 
        1.85306         115.743         17.2616         145.842 
         1.8592         114.912         17.1281         145.138 
        1.86533         114.455          16.996         144.661 
        1.87147         113.449         16.8652         143.787 
        1.87761         113.173         16.7358         143.011 
