# k  (h/Mpc)    P(k)  (Mpc/h)^3    P_linear(k)  (Mpc/h)^3     P_NL(k)  ShotnoiseSubtracted = false
     0.00783031         2018.92         2038.22          2037.1 
       0.013688         2727.12         2725.06          2715.6 
       0.019231         2943.83         2943.76         2928.47 
      0.0249154         2866.57          2891.5          2878.8 
      0.0312784         2650.68         2660.12         2650.67 
      0.0375637          2381.5         2379.47         2370.84 
      0.0433917         2128.95         2141.77         2133.94 
      0.0492413          1948.4         1951.57         1944.08 
      0.0555754         1782.21         1800.16         1792.25 
      0.0619321         1692.37         1687.31         1679.02 
       0.067871         1582.14         1596.04         1587.13 
      0.0738098         1486.46         1501.82         1490.22 
      0.0800417         1369.71         1391.14         1379.89 
      0.0862327          1257.1         1270.69         1262.31 
      0.0921407         1147.25         1154.28         1146.72 
      0.0982031         1033.96         1043.71         1039.74 
       0.104506         950.116         946.926         945.967 
       0.110769         875.449         872.704         870.352 
       0.116806         816.853         820.185         817.835 
       0.122832         782.613         781.188         779.738 
       0.129052         742.156         747.947         746.434 
       0.135211         709.089         715.435          714.02 
       0.141259         678.386         679.743         679.404 
       0.147318         641.498         639.204          640.81 
       0.153489         594.017         594.778         594.466 
       0.159709         553.546         550.355         552.596 
       0.165845         521.278         510.465         516.932 
       0.171974         483.849         476.955          483.52 
       0.178125         458.712         450.413         459.932 
       0.184229         440.501         430.226         439.928 
        0.19034         417.126         414.204           423.7 
       0.196428         408.139         400.061          407.51 
       0.202534         397.236          385.63         393.638 
       0.208729         378.678         369.447         376.946 
       0.214876         358.092         351.633         362.047 
       0.220989         345.719         332.877         344.464 
       0.227147         323.019          314.15         326.099 
        0.23329         307.532         296.861         311.467 
       0.239377         296.023         281.949         297.933 
       0.245482         279.326         269.495         284.313 
       0.251667         273.554         259.158          275.38 
       0.257832         264.719         250.473         266.449 
       0.263955         256.157         242.631         258.024 
       0.270079         248.498         234.824         249.766 
        0.27624         243.252         226.557         240.892 
       0.282372          233.78         217.792         232.825 
        0.28843         224.295         208.805         224.125 
       0.294538         215.294         199.802         216.248 
       0.300721         210.275         191.171         208.957 
        0.30691         200.624         183.349          201.66 
       0.313033         194.629         176.543         194.517 
       0.319153         186.101         170.629         189.475 
       0.325316         183.111          165.35         184.831 
        0.33145         177.195         160.505         178.915 
       0.337538         173.842         155.832         173.863 
       0.343633         168.459         151.113         169.619 
       0.349808          163.74         146.217         165.183 
       0.355968         159.527         141.256         161.357 
       0.362074         154.682         136.382         156.303 
       0.368217         150.436         131.655         150.749 
       0.374374         145.939         127.224         147.219 
       0.380519         142.333         123.163         142.948 
       0.386598         138.663         119.507         139.473 
       0.392688         136.179          116.15         136.444 
        0.39888          132.61         112.954         132.681 
       0.405048         129.875         109.903         129.797 
       0.411186         127.206         106.918          127.51 
       0.417313         123.417         103.946         123.646 
       0.423458         120.707         100.983         121.018 
       0.429607         117.559          98.054         118.004 
       0.435692          113.96         95.2365         115.552 
       0.441815         112.683         92.5279         113.693 
       0.447964         110.917         89.9605         110.677 
       0.454126         106.463         87.5435         107.928 
       0.460267          104.85         85.2859         106.193 
       0.466387         102.453         83.1562         103.709 
        0.47254         101.051         81.0997          101.88 
       0.478662         99.4142          79.111         99.7306 
       0.484765         96.9325         77.1715         97.4757 
       0.490885         94.9727         75.2584         96.1565 
       0.497035         93.6954          73.369         94.5133 
       0.503198         91.3841         71.5249         92.2243 
       0.509342         89.2224         69.7498         90.7355 
       0.515458         87.7713         68.0539         89.6587 
       0.521598         86.5893         66.4238         87.2324 
       0.527764         85.0283         64.8605         85.2114 
       0.533884         83.5477         63.3779         83.8782 
           0.54         82.1143         61.9526         82.4955 
       0.546137         81.0317         60.5663         81.4505 
       0.552299         79.9008         59.2085         79.6267 
       0.558452         77.6301         57.8856         78.1632 
       0.564573         76.4294          56.602         77.2838 
       0.570708         75.6016         55.3484         75.9541 
       0.576825         73.9249         54.1329         74.6829 
       0.582926         72.6949         52.9571         73.5119 
       0.589034          70.934         51.8186         72.5548 
       0.595184         70.1508         50.7136         71.1994 
       0.601379         69.2978         49.6411         70.3413 
       0.607522         67.7592         48.6129          68.869 
       0.613639         67.4931         47.6197         67.9423 
       0.619772         65.7838         46.6502         66.9078 
       0.625918         65.5081         45.7028         66.2349 
       0.632068         64.5116         44.7789         64.9401 
       0.638161         63.4207         43.8874         64.1074 
         0.6443         62.3627         43.0134         62.9924 
       0.650464         61.4111         42.1604         62.1778 
       0.656582         61.0008         41.3376         61.4634 
       0.662703         59.8323         40.5373         60.3796 
       0.668861         59.0279         39.7546         59.7438 
       0.675024         58.1474          38.993         58.7589 
       0.681124         57.2065         38.2601         57.9482 
       0.687237         56.3188         37.5454         57.0939 
       0.693381         55.8818         36.8463         56.3475 
       0.699536         54.7181         36.1641         55.8436 
       0.705665         54.7788         35.5022         55.2104 
       0.711789         53.5107         34.8573         54.1653 
       0.717957         52.9943         34.2237         53.6694 
        0.72409         52.2352         33.6092         53.1437 
       0.730186         51.5234         33.0134         52.3476 
       0.736317         51.1582         32.4288         51.6564 
       0.742472         50.2751         31.8565         51.1931 
       0.748622         49.8907         31.2988         50.4018 
        0.75476         49.1468         30.7561         49.8498 
       0.760888         48.5348         30.2274         49.3215 
       0.767043         48.0213         29.7095         48.8768 
       0.773185         47.2888         29.2052         48.2835 
       0.779291         47.0624         28.7156         47.7996 
       0.785407          46.552         28.2368         47.1609 
       0.791564         45.7309         27.7661         46.6158 
       0.797719         44.9916         27.3064         46.1219 
       0.803834         44.9204         26.8601         45.5429 
       0.809972         44.3979         26.4223         45.1687 
       0.816124         43.4473         25.9934         44.6045 
       0.822261         43.3445         25.5753         44.0154 
       0.828378         42.8885         25.1677         43.5246 
       0.834502         42.3901         24.7688         43.3526 
       0.840667         41.9934         24.3761         42.7193 
       0.846816         41.3741         23.9931         42.3448 
       0.852925         41.0486         23.6208         42.1683 
       0.859047         40.5446         23.2558         41.4573 
       0.865192         40.2574         22.8974         41.0709 
       0.871341          40.017         22.5465         40.7643 
       0.877463         39.2688         22.2045         40.3132 
       0.883569         38.8994         21.8707         40.0307 
       0.889708         38.5322         21.5421         39.5039 
       0.895864         38.2563         21.2195         39.1209 
       0.902008         37.9595         20.9042         38.8047 
       0.908149         37.5882         20.5957         38.4942 
       0.914301         37.4025         20.2929         38.2422 
       0.920448         36.6477         19.9967         37.7364 
       0.926574         36.5002         19.7074         37.3452 
       0.932687         36.1128         19.4245         37.0056 
       0.938823         35.6927         19.1463         36.6947 
       0.944975         35.4006         18.8729         36.3133 
       0.951105         35.1599          18.606         35.9685 
       0.957225         34.7548         18.3447         35.7567 
       0.963368         34.4904         18.0876         35.3717 
       0.969511          34.252         17.8355         35.1061 
       0.975621         34.0095         17.5896         34.7976 
       0.981748         33.5669         17.3477          34.572 
       0.987916         33.3676          17.109         34.1817 
        0.99406          33.025         16.8756         33.9299 
        1.00019         32.6164         16.6472         33.6514 
        1.00632         32.5647         16.4232         33.4309 
        1.01246         32.2373         16.2031         33.2243 
        1.01859         31.8342         15.9874         32.8771 
        1.02471         31.7704         15.7759         32.5853 
        1.03085         31.4586         15.5676         32.3491 
        1.03698         30.9915         15.3636         32.0783 
        1.04314         30.8165         15.1623          31.752 
        1.04929         30.5259         14.9652         31.5834 
        1.05541         30.2549         14.7725          31.409 
        1.06154         30.0643         14.5826         31.0459 
        1.06769         29.8908         14.3959         30.8171 
        1.07382         29.5916         14.2131         30.6516 
        1.07993         29.4699         14.0339         30.3794 
        1.08607         29.1157         13.8571         30.1382 
        1.09222         28.9322         13.6832         29.9578 
        1.09836          28.592         13.5125         29.7023 
        1.10449         28.5249          13.345          29.459 
        1.11063         28.1921         13.1801         29.3183 
        1.11677         28.0902         13.0182         29.0434 
         1.1229         27.9486         12.8592         28.8486 
        1.12903         27.5976         12.7028         28.6949 
        1.13518         27.3473         12.5489         28.4133 
        1.14131         27.2534         12.3977         28.2249 
        1.14745         27.0649         12.2491         28.0375 
        1.15359         26.8847         12.1029         27.8594 
        1.15973         26.6346         11.9591         27.6653 
        1.16584         26.3445         11.8182         27.5412 
        1.17197         26.3364         11.6795         27.3371 
        1.17811         26.0415         11.5426         27.0598 
        1.18424         25.8107         11.4083         26.9382 
        1.19038         25.7387         11.2757         26.7667 
        1.19652         25.5282         11.1454         26.5424 
        1.20267         25.3114         11.0171         26.3768 
        1.20881         25.2453         10.8909         26.2885 
        1.21495         25.0417         10.7669         26.1035 
        1.22108         24.8112         10.6449         25.9018 
         1.2272         24.5893         10.5251         25.7128 
        1.23334         24.4334         10.4068         25.6093 
        1.23949          24.247         10.2901         25.4036 
        1.24562         24.2109         10.1756         25.2251 
        1.25174           24.04         10.0629         25.1046 
        1.25789         23.9053         9.95168         24.9297 
        1.26402         23.7656         9.84233         24.7404 
        1.27014         23.5574          9.7349         24.6174 
        1.27628         23.3113         9.62876         24.4562 
        1.28244         23.2595         9.52402         24.3859 
        1.28858           23.16         9.42098         24.1611 
        1.29471         22.9275         9.31972         24.0105 
        1.30084         22.7599         9.22005         23.9541 
        1.30697         22.6559         9.12171         23.7563 
        1.31312         22.4354         9.02467         23.5964 
        1.31925         22.3059         8.92936         23.5222 
        1.32537         22.2527         8.83553         23.4077 
        1.33151         22.0473         8.74273         23.2249 
        1.33765         21.9304         8.65133         23.0855 
        1.34378         21.8321         8.56143         22.9815 
        1.34992         21.5911         8.47276         22.8451 
        1.35606         21.5532         8.38517         22.6804 
         1.3622         21.4441         8.29898         22.5689 
        1.36833         21.2721         8.21422         22.4926 
        1.37445         21.1777          8.1307         22.3163 
        1.38059         21.0782          8.0481         22.1606 
        1.38675         20.8676         7.96645         22.0832 
        1.39288         20.7715         7.88627         21.9444 
        1.39901         20.5976         7.80724         21.8461 
        1.40515         20.5385         7.72913         21.7418 
         1.4113         20.4184         7.65213         21.6302 
        1.41742         20.2774         7.57647         21.5085 
        1.42355         20.1836         7.50171         21.3451 
         1.4297         20.0403         7.42774         21.2827 
        1.43585         19.9881         7.35481         21.1936 
        1.44198         19.8098         7.28314         21.0565 
        1.44809         19.7353         7.21258         20.9696 
        1.45423         19.6029         7.14269         20.8521 
        1.46036         19.5369         7.07387          20.718 
        1.46649         19.4273         7.00593         20.6078 
        1.47263         19.2628         6.93885         20.5358 
        1.47877         19.1877         6.87268         20.4644 
        1.48491         19.0711         6.80727         20.2869 
        1.49104         19.0031         6.74287         20.2175 
        1.49718         18.8676         6.67925         20.1322 
        1.50333          18.766         6.61636           20.03 
        1.50947         18.6796         6.55441         19.9418 
         1.5156         18.5552         6.49336          19.839 
        1.52172         18.4273         6.43309          19.716 
        1.52787         18.3415         6.37347         19.6106 
          1.534         18.2626         6.31468         19.5262 
        1.54013         18.1474          6.2567         19.3934 
        1.54627         18.0383         6.19935         19.2995 
        1.55241         17.9534         6.14271         19.2588 
        1.55855         17.8869         6.08687         19.1674 
        1.56467         17.7744         6.03188         19.0546 
         1.5708         17.7313         5.97742         18.9976 
        1.57695         17.5628         5.92355         18.9186 
        1.58308         17.5088         5.87048         18.8131 
        1.58922         17.4213         5.81803         18.7519 
        1.59535          17.344         5.76624         18.6516 
         1.6015         17.2163         5.71502         18.5548 
        1.60764         17.1564         5.66445         18.4693 
        1.61376          17.112         5.61464         18.3775 
        1.61989         16.9478         5.56539         18.3145 
        1.62604         16.9302         5.51662         18.2547 
        1.63218         16.8172         5.46847         18.1567 
        1.63831         16.7524         5.42102         18.0576 
        1.64444         16.6359         5.37411          18.003 
        1.65059         16.5551         5.32765         17.8983 
        1.65673         16.4925          5.2818         17.8338 
        1.66285         16.3593         5.23661         17.7767 
        1.66898         16.3185         5.19195         17.6755 
        1.67512         16.2529         5.14772          17.598 
        1.68127         16.1341         5.10397         17.5067 
         1.6874         16.0786         5.06083         17.4212 
        1.69353         16.0212         5.01822         17.3783 
        1.69967         15.9026           4.976         17.3136 
        1.70581         15.8004         4.93429         17.2449 
        1.71193         15.7555         4.89322         17.1719 
        1.71806         15.7228         4.85253         17.0781 
        1.72421         15.6026         4.81223         17.0256 
        1.73035         15.5663         4.77243         16.9446 
        1.73649         15.4917          4.7331         16.8408 
        1.74262         15.4037         4.69425         16.8251 
        1.74876         15.3352         4.65581         16.7538 
        1.75489         15.2791         4.61788         16.6436 
        1.76101         15.1665         4.58039         16.5709 
        1.76715         15.1545         4.54327         16.5303 
        1.77329         15.0677         4.50651         16.4581 
        1.77943         14.9632         4.47015         16.3851 
        1.78557         14.9166         4.43425         16.3482 
        1.79171          14.863         4.39874         16.2718 
        1.79785          14.785         4.36362         16.1838 
        1.80399         14.7135         4.32888         16.1389 
        1.81012         14.6401         4.29458         16.0804 
        1.81625         14.5588         4.26066         16.0246 
        1.82239         14.5154         4.22707          15.972 
        1.82853         14.4001         4.19385         15.8854 
        1.83466         14.3718         4.16102         15.8242 
        1.84078         14.2702         4.12859         15.7815 
        1.84692         14.2536         4.09645         15.6978 
        1.85306         14.1794         4.06461         15.6423 
         1.8592         14.1118         4.03316         15.6047 
        1.86533          14.057         4.00207         15.5309 
        1.87147         13.9877         3.97127         15.4682 
        1.87761         13.9294         3.94078         15.4161 
