# k  (h/Mpc)    Pcb(k)  (Mpc/h)^3    Pcb_linear(k) (Mpc/h)^3    Pcb_NL(k) (Mpc/h)^3   ShotnoiseSubtracted = false
     0.00783031         11876.7         12039.3         12024.9 
       0.013688         16208.9         16089.2         15992.9 
       0.019231         17360.9           17377         17211.5 
      0.0249154         16672.7         17066.6         16862.5 
      0.0312784         15447.9         15699.7           15453 
      0.0375637         13928.4         14042.7         13783.4 
      0.0433917         12288.7         12639.5         12351.4 
      0.0492413         11308.7         11516.8         11224.2 
      0.0555754         10168.7         10623.1         10332.9 
      0.0619321         9819.83         9956.97         9658.01 
       0.067871         9004.67         9418.28          9123.7 
      0.0738098         8452.83         8862.26         8491.39 
      0.0800417          7707.1         8209.03         7848.85 
      0.0862327          7120.4         7498.26         7220.04 
      0.0921407         6571.81         6811.28         6550.29 
      0.0982031          5923.8         6158.79         5993.09 
       0.104506         5548.54         5587.67         5505.56 
       0.110769         5121.34         5149.68         5040.38 
       0.116806         4797.67         4839.77         4733.17 
       0.122832         4583.35         4609.64         4526.87 
       0.129052         4286.63         4413.48         4337.34 
       0.135211         4103.08         4221.63         4141.71 
       0.141259         3959.74         4011.01         3970.86 
       0.147318         3763.79          3771.8         3764.34 
       0.153489          3473.1         3509.65         3468.98 
       0.159709         3296.04         3247.51         3269.29 
       0.165845          3177.8         3012.13         3126.88 
       0.171974         2987.53         2814.39         2949.98 
       0.178125         2840.85         2657.78         2861.06 
       0.184229         2726.66         2538.65         2729.73 
        0.19034         2584.97         2444.11         2640.31 
       0.196428          2548.7         2360.65         2536.11 
       0.202534         2463.25          2275.5         2464.42 
       0.208729         2367.95         2180.01         2348.43 
       0.214876         2276.36         2074.89         2289.91 
       0.220989         2209.44         1964.21         2214.85 
       0.227147         2112.91         1853.71         2133.21 
        0.23329         2033.88         1751.69         2070.24 
       0.239377         2009.07          1663.7         1994.83 
       0.245482         1888.82         1590.21         1913.02 
       0.251667         1881.05         1529.22         1875.16 
       0.257832         1812.27         1477.97         1821.62 
       0.263955         1756.87         1431.69         1774.55 
       0.270079         1704.34         1385.63         1727.78 
        0.27624         1688.75         1336.85         1677.75 
       0.282372         1618.62         1285.13         1643.95 
        0.28843         1615.86          1232.1         1604.09 
       0.294538         1541.22         1178.97         1561.68 
       0.300721         1534.58         1128.05         1517.83 
        0.30691         1476.12         1081.89          1497.1 
       0.313033         1448.67         1041.73         1454.45 
       0.319153         1430.74         1006.83         1417.06 
       0.325316          1383.3         975.681         1399.49 
        0.33145         1354.98         947.095            1353 
       0.337538          1335.9         919.515         1333.39 
       0.343633         1307.37         891.673         1318.96 
       0.349808         1268.27         862.784         1296.41 
       0.355968          1260.6         833.511         1275.71 
       0.362074         1248.24          804.75         1249.98 
       0.368217         1211.72         776.856         1219.47 
       0.374374         1169.36          750.71         1199.87 
       0.380519         1171.19         726.749            1178 
       0.386598         1143.36         705.173         1162.49 
       0.392688         1138.04         685.367         1138.31 
        0.39888         1107.61          666.51         1125.04 
       0.405048         1095.75         648.503         1110.52 
       0.411186         1080.23          630.89         1088.05 
       0.417313         1058.88         613.353          1073.6 
       0.423458         1043.07         595.866          1056.3 
       0.429607         1028.17         578.587         1037.03 
       0.435692         1009.78         561.962         1019.41 
       0.441815         1004.86         545.979         1016.77 
       0.447964         982.266         530.829         1001.67 
       0.454126         973.428         516.569         976.365 
       0.460267          953.93         503.245         975.629 
       0.466387         941.697         490.679         957.163 
        0.47254         934.487         478.544         946.687 
       0.478662         926.639          466.81         934.745 
       0.484765         904.943         455.365         922.942 
       0.490885         898.982         444.077         907.559 
       0.497035         879.506         432.928         900.077 
       0.503198         875.326         422.046         889.775 
       0.509342         864.588         411.573         875.632 
       0.515458         861.376         401.565         871.469 
       0.521598         842.639         391.946         862.763 
       0.527764          824.68         382.722         853.438 
       0.533884         826.254         373.973         844.045 
           0.54         817.003         365.563         835.172 
       0.546137         810.252         357.382         825.496 
       0.552299         800.069         349.372         814.396 
       0.558452         794.882         341.565         808.454 
       0.564573         782.802         333.991         801.131 
       0.570708         776.166         326.594         793.404 
       0.576825         755.245         319.421         782.367 
       0.582926         759.374         312.483         776.115 
       0.589034         752.225         305.766         764.696 
       0.595184         744.436         299.245         759.324 
       0.601379         735.365         292.916         753.443 
       0.607522         725.739          286.85          743.62 
       0.613639         727.353         280.989         740.461 
       0.619772         709.496         275.268         738.724 
       0.625918         705.818         269.678         729.444 
       0.632068         697.913         264.226         724.185 
       0.638161         695.615         258.966         712.248 
         0.6443         682.124         253.808         709.351 
       0.650464         681.085         248.776         699.374 
       0.656582         678.003          243.92         694.533 
       0.662703         673.007         239.198         690.713 
       0.668861         661.167          234.58         687.011 
       0.675024         656.269         230.086         682.713 
       0.681124         653.127         225.761          671.41 
       0.687237          647.34         221.544         666.534 
       0.693381         640.307         217.418         660.821 
       0.699536         629.353         213.393         656.413 
       0.705665         630.249         209.487         650.393 
       0.711789         624.446         205.682         644.875 
       0.717957         618.567         201.943         643.029 
        0.72409         615.469         198.317         637.543 
       0.730186         606.751         194.802         631.927 
       0.736317         603.486         191.352         625.893 
       0.742472         600.713         187.975         621.136 
       0.748622          594.22         184.684         616.258 
        0.75476         585.374         181.482          616.56 
       0.760888         580.432         178.363         609.147 
       0.767043         579.908         175.307         602.742 
       0.773185         573.735         172.331         599.195 
       0.779291         569.064         169.442         593.928 
       0.785407         563.708         166.617         590.599 
       0.791564         557.907         163.839         588.611 
       0.797719         555.303         161.126         582.528 
       0.803834         550.947         158.493         579.563 
       0.809972         547.243          155.91         576.573 
       0.816124         546.494         153.379         568.582 
       0.822261         538.056         150.912         565.773 
       0.828378         535.279         148.507         562.218 
       0.834502         529.908         146.153         560.432 
       0.840667         525.425         143.836         556.166 
       0.846816         522.751         141.576         552.225 
       0.852925         517.438         139.379         548.679 
       0.859047         518.029         137.225         543.821 
       0.865192         511.664          135.11         540.431 
       0.871341          507.24          133.04         537.822 
       0.877463         505.734         131.022         534.397 
       0.883569         500.289         129.052         530.611 
       0.889708         497.855         127.113          526.18 
       0.895864         494.045         125.209         523.494 
       0.902008         490.921         123.349         520.432 
       0.908149         486.251         121.529         515.718 
       0.914301         482.628         119.742         512.285 
       0.920448         479.408         117.994         509.474 
       0.926574          472.44         116.287         505.837 
       0.932687         472.614         114.618         502.802 
       0.938823         467.008         112.976         501.471 
       0.944975         467.688         111.363         497.641 
       0.951105         460.827         109.788         493.107 
       0.957225         457.735         108.246         491.926 
       0.963368         453.877         106.729         488.511 
       0.969511         452.004         105.241         484.977 
       0.975621         448.452          103.79          482.14 
       0.981748         446.368         102.363         478.696 
       0.987916         443.085         100.955         477.667 
        0.99406         435.821         99.5778         474.077 
        1.00019         435.098         98.2298         468.996 
        1.00632         432.636         96.9082         466.712 
        1.01246         429.044         95.6093         463.953 
        1.01859         428.849         94.3366         460.538 
        1.02471         423.063         93.0889         459.209 
        1.03085         420.675         91.8597         457.675 
        1.03698         419.307         90.6556         455.069 
        1.04314         415.131         89.4682         451.979 
        1.04929         410.345         88.3051          448.26 
        1.05541         410.426         87.1676         445.297 
        1.06154         405.128         86.0475         442.676 
        1.06769         402.025         84.9456         439.775 
        1.07382         400.193         83.8669         437.486 
        1.07993         397.656         82.8096         435.281 
        1.08607         396.482         81.7663         432.091 
        1.09222          392.64         80.7402         429.371 
        1.09836         390.016          79.733         428.348 
        1.10449         385.993         78.7445          425.53 
        1.11063         382.543         77.7718         422.042 
        1.11677          382.44          76.816         420.548 
         1.1229          380.24         75.8782         418.091 
        1.12903         376.373         74.9554         415.823 
        1.13518         372.714         74.0473         413.189 
        1.14131         371.618         73.1549         410.794 
        1.14745         368.312          72.278         408.568 
        1.15359         366.306         71.4153         406.649 
        1.15973         363.715         70.5666         404.202 
        1.16584         361.262         69.7356         401.822 
        1.17197         359.915         68.9169         399.673 
        1.17811         356.611          68.109         397.697 
        1.18424         353.148         67.3166         396.028 
        1.19038         351.099         66.5346         393.636 
        1.19652         349.017         65.7654         391.443 
        1.20267         347.506         65.0086         388.591 
        1.20881         345.815         64.2639         386.707 
        1.21495          342.55         63.5322         384.241 
        1.22108         340.655         62.8121         382.114 
         1.2272          337.93          62.105         379.532 
        1.23334         335.531         61.4073         377.412 
        1.23949         334.139         60.7187         376.117 
        1.24562         331.956         60.0428         374.195 
        1.25174         328.651         59.3782         372.225 
        1.25789         325.842         58.7217          370.26 
        1.26402         324.363         58.0764         368.547 
        1.27014         321.873         57.4425         365.712 
        1.27628         319.917         56.8162         364.945 
        1.28244         319.277         56.1982         363.351 
        1.28858         315.493         55.5902         360.743 
        1.29471         313.018         54.9927         358.126 
        1.30084         311.968         54.4046         356.443 
        1.30697         309.441         53.8243         355.084 
        1.31312         306.656         53.2517         353.237 
        1.31925          306.33         52.6893         350.782 
        1.32537         304.703         52.1356         348.685 
        1.33151         301.033         51.5881          347.48 
        1.33765         299.263         51.0488          345.68 
        1.34378         297.989         50.5183         343.589 
        1.34992         295.673         49.9951         341.223 
        1.35606         294.472         49.4782         339.525 
         1.3622          292.18         48.9696         338.204 
        1.36833         290.016         48.4695         336.884 
        1.37445         288.462         47.9767         334.196 
        1.38059         285.347         47.4892         333.315 
        1.38675         284.471         47.0075         332.031 
        1.39288         282.281         46.5344         328.833 
        1.39901         281.208         46.0681         327.385 
        1.40515         278.989         45.6071         325.668 
         1.4113         277.533         45.1528          323.72 
        1.41742         275.562         44.7063         322.481 
        1.42355         273.036         44.2652           320.7 
         1.4297         271.567         43.8287         319.019 
        1.43585         269.897         43.3984         318.078 
        1.44198         268.236         42.9755         315.872 
        1.44809         266.402         42.5591         314.791 
        1.45423         264.095         42.1467         312.131 
        1.46036          263.23         41.7406         310.761 
        1.46649         260.658         41.3398         309.698 
        1.47263         259.226         40.9439         307.822 
        1.47877         257.683         40.5535         305.955 
        1.48491         255.738         40.1675         304.355 
        1.49104         254.929         39.7875          302.86 
        1.49718         252.363         39.4121         301.857 
        1.50333         250.917          39.041          300.64 
        1.50947         249.297         38.6755         299.056 
         1.5156         247.132         38.3152         297.137 
        1.52172         246.483         37.9596          295.14 
        1.52787         244.403         37.6078         294.002 
          1.534           243.2         37.2609         292.842 
        1.54013         240.801         36.9188         291.231 
        1.54627         240.082         36.5804         289.846 
        1.55241         238.093         36.2462         288.697 
        1.55855         236.689         35.9167         287.291 
        1.56467         234.919         35.5922         285.341 
         1.5708         234.623         35.2708         283.788 
        1.57695         232.009          34.953         282.648 
        1.58308         230.785         34.6398         281.133 
        1.58922         228.237         34.3303         279.695 
        1.59535         227.008         34.0248           278.7 
         1.6015         226.583         33.7225          277.28 
        1.60764          224.57         33.4241         275.525 
        1.61376         222.938         33.1302          274.28 
        1.61989         221.544         32.8396         273.121 
        1.62604         220.205         32.5518         271.665 
        1.63218         218.806         32.2677         270.496 
        1.63831          217.38         31.9877          269.41 
        1.64444         216.593         31.7109          267.71 
        1.65059          214.43         31.4368         266.556 
        1.65673         213.566         31.1662         265.418 
        1.66285         211.974         30.8996         263.911 
        1.66898         210.378          30.636         262.334 
        1.67512         209.699          30.375         261.391 
        1.68127         207.348         30.1169         260.125 
         1.6874         206.219         29.8623         258.806 
        1.69353          205.14         29.6109         258.022 
        1.69967         203.701         29.3618         256.467 
        1.70581         202.514         29.1157         255.132 
        1.71193         201.084         28.8733         254.121 
        1.71806         200.283         28.6332         252.579 
        1.72421         198.524         28.3954         251.519 
        1.73035         197.702         28.1606         250.307 
        1.73649         196.399         27.9285         248.859 
        1.74262         195.064         27.6992         248.186 
        1.74876          193.78         27.4724         246.987 
        1.75489         192.207         27.2486         245.591 
        1.76101         191.248         27.0274          244.63 
        1.76715         190.278         26.8083         243.621 
        1.77329         189.241         26.5915         242.434 
        1.77943         188.007         26.3769         241.175 
        1.78557         186.598         26.1651         239.969 
        1.79171         185.304         25.9555         238.929 
        1.79785          183.91         25.7483         237.856 
        1.80399         183.005         25.5433         236.636 
        1.81012         181.766         25.3409         235.787 
        1.81625         180.933         25.1408         234.738 
        1.82239         179.499         24.9425         233.366 
        1.82853         178.852         24.7465         232.317 
        1.83466         177.272         24.5529         231.178 
        1.84078         176.401         24.3615         230.039 
        1.84692         174.894         24.1718         229.355 
        1.85306         174.229         23.9839         228.201 
         1.8592         172.859         23.7984         226.942 
        1.86533          171.93         23.6149         226.346 
        1.87147         170.611         23.4332         225.489 
