# k  (h/Mpc)    Pcb(k)  (Mpc/h)^3    Pcb_linear(k) (Mpc/h)^3    Pcb_NL(k) (Mpc/h)^3   ShotnoiseSubtracted = false
     0.00783031         5791.71         5858.04         5854.12 
       0.013688         7863.66         7830.12         7795.82 
       0.019231         8458.03          8457.6         8399.86 
      0.0249154         8183.52         8306.97         8246.32 
      0.0312784         7577.28         7641.92         7578.75 
      0.0375637         6820.13         6835.52          6770.8 
      0.0433917          6059.9         6152.56         6083.47 
      0.0492413         5561.42         5606.14         5536.75 
      0.0555754         5047.89         5171.13         5101.23 
      0.0619321         4835.15         4846.92         4774.27 
       0.067871         4479.22         4584.72         4511.76 
      0.0738098         4205.73         4314.07         4221.54 
      0.0800417          3856.6          3996.1          3905.8 
      0.0862327         3550.93         3650.11         3580.98 
      0.0921407         3256.55          3315.7         3250.48 
      0.0982031          2932.2         2998.08         2958.67 
       0.104506          2720.6         2720.06         2702.48 
       0.110769         2507.78         2506.85          2479.9 
       0.116806          2340.1         2355.99         2329.93 
       0.122832         2242.07         2243.97         2224.63 
       0.129052          2110.7         2148.48          2129.9 
       0.135211         2019.13         2055.09         2036.75 
       0.141259         1939.81         1952.56         1943.49 
       0.147318         1838.07         1836.11         1838.72 
       0.153489         1698.13          1708.5         1698.86 
       0.159709         1597.91         1580.89         1589.15 
       0.165845         1520.65         1466.31         1502.75 
       0.171974         1419.15         1370.05         1409.69 
       0.178125         1347.33         1293.81         1353.95 
       0.184229         1296.28         1235.82         1294.75 
        0.19034         1219.46          1189.8         1248.74 
       0.196428         1202.73         1149.17          1197.5 
       0.202534         1169.79         1107.72          1160.1 
       0.208729         1117.56         1061.23         1108.13 
       0.214876         1060.94         1010.06         1074.78 
       0.220989         1030.49         956.184         1030.06 
       0.227147         970.883         902.392         981.391 
        0.23329         930.592         852.729         947.267 
       0.239377         908.701         809.895         910.735 
       0.245482         850.832         774.119         869.325 
       0.251667         842.259         744.427         848.315 
       0.257832         814.604          719.48         821.937 
       0.263955         789.608         696.953         797.351 
       0.270079         765.758         674.529         773.848 
        0.27624         756.979         650.781         748.221 
       0.282372          725.47         625.604         726.217 
        0.28843         707.297         599.789         701.999 
       0.294538         675.387         573.928         682.821 
       0.300721         670.909         549.136         664.145 
        0.30691         640.415         526.666         647.697 
       0.313033         627.261         507.119         626.288 
       0.319153         607.753         490.129         611.515 
       0.325316         591.179         474.965         600.564 
        0.33145         575.299         461.049         580.075 
       0.337538         569.035         447.623         566.757 
       0.343633         551.645         434.069         558.739 
       0.349808         535.321         420.006         547.032 
       0.355968          529.75         405.756         535.957 
       0.362074         518.439         391.755         522.494 
       0.368217         504.997         378.176         506.503 
       0.374374         486.989         365.448         496.639 
       0.380519         480.921         353.784           485.1 
       0.386598         470.366         343.281         476.541 
       0.392688         466.833         333.639         466.695 
        0.39888         454.141         324.459         457.413 
       0.405048          445.77         315.694         452.212 
       0.411186         436.841          307.12         441.033 
       0.417313         429.557         298.582         430.056 
       0.423458         422.075          290.07         422.976 
       0.429607         412.744         281.658         414.626 
       0.435692         403.046         273.565         407.162 
       0.441815         400.602         265.784          403.53 
       0.447964         393.245          258.41         395.363 
       0.454126         379.336         251.468         385.947 
       0.460267         375.499         244.982         383.029 
       0.466387         371.237         238.864         375.549 
        0.47254         363.776         232.957         370.346 
       0.478662         361.856         227.245         363.587 
       0.484765         352.522         221.673         355.721 
       0.490885         348.021         216.178         351.701 
       0.497035         342.775         210.751         347.812 
       0.503198         335.294         205.453         342.211 
       0.509342         332.408         200.355         338.083 
       0.515458         328.519         195.483         335.483 
       0.521598         323.859         190.801         328.632 
       0.527764         318.164          186.31         323.108 
       0.533884         314.586         182.052         319.514 
           0.54         310.614         177.958         315.459 
       0.546137         309.114         173.975         312.156 
       0.552299         303.484         170.075             307 
       0.558452          299.59         166.275         303.199 
       0.564573         294.647         162.588         300.626 
       0.570708         290.198         158.987         296.985 
       0.576825         286.681         155.496         291.661 
       0.582926         283.683         152.118         288.245 
       0.589034         279.633         148.848          285.43 
       0.595184         277.222         145.674         280.993 
       0.601379         274.926         142.593          279.86 
       0.607522         269.398          139.64         275.855 
       0.613639         268.518         136.786         272.975 
       0.619772         262.269         134.002         269.755 
       0.625918         260.577          131.28         267.702 
       0.632068         257.507         128.626         263.289 
       0.638161          256.23         126.066         261.885 
         0.6443         252.001         123.555         258.812 
       0.650464         249.758         121.105         254.525 
       0.656582         248.196         118.741         252.732 
       0.662703         244.775         116.443         250.356 
       0.668861         241.617         114.194         247.849 
       0.675024         239.037         112.007         244.852 
       0.681124          238.03         109.901         242.755 
       0.687237         234.175         107.848         239.956 
       0.693381         231.191          105.84          237.65 
       0.699536         229.665          103.88         235.866 
       0.705665         229.477         101.979         234.597 
       0.711789         224.896         100.127         230.892 
       0.717957         223.836         98.3068         229.213 
        0.72409         221.152         96.5416         228.312 
       0.730186         217.883         94.8301         225.953 
       0.736317         216.909         93.1511         223.292 
       0.742472         215.548          91.507         221.378 
       0.748622         214.078          89.905         219.063 
        0.75476         212.125         88.3461         217.404 
       0.760888         209.299         86.8277         214.887 
       0.767043          207.93           85.34         213.858 
       0.773185         205.885         83.8912          212.56 
       0.779291         202.992          82.485         210.485 
       0.785407         202.213         81.1096         208.157 
       0.791564         200.236         79.7574         206.847 
       0.797719         197.934          78.437         205.584 
       0.803834         197.125         77.1551         203.198 
       0.809972         194.554         75.8975         201.836 
       0.816124         194.609         74.6655         200.643 
       0.822261         191.985         73.4645         198.797 
       0.828378         190.353         72.2937         196.491 
       0.834502         189.957         71.1479         195.963 
       0.840667         187.181         70.0197         194.913 
       0.846816         186.161         68.9195         192.754 
       0.852925         184.331         67.8503         191.193 
       0.859047         182.676         66.8018         189.776 
       0.865192         181.862         65.7723         188.786 
       0.871341         179.906         64.7642         186.997 
       0.877463         178.677          63.782         186.239 
       0.883569         177.073          62.823          184.71 
       0.889708         176.058         61.8791         183.521 
       0.895864         174.323         60.9524         182.457 
       0.902008         173.398          60.047         180.576 
       0.908149          172.38         59.1606         179.251 
       0.914301         170.407          58.291         178.614 
       0.920448          169.46         57.4399         177.173 
       0.926574         168.545          56.609         175.213 
       0.932687         167.295         55.7965         174.103 
       0.938823         165.456         54.9973         173.335 
       0.944975         164.498         54.2121           172.4 
       0.951105         163.374         53.4452         171.057 
       0.957225         161.349         52.6947         170.035 
       0.963368         160.529         51.9562         168.178 
       0.969511         159.767          51.232         167.415 
       0.975621         158.988         50.5256         167.692 
       0.981748         158.055         49.8309         165.715 
       0.987916         156.156         49.1451         165.102 
        0.99406         155.695         48.4749         163.865 
        1.00019         154.396         47.8187          162.49 
        1.00632         153.396         47.1753         161.481 
        1.01246         152.232          46.543         160.263 
        1.01859         150.574         45.9234         159.664 
        1.02471         150.821          45.316         159.092 
        1.03085         149.307         44.7177         157.901 
        1.03698         147.783         44.1315         156.621 
        1.04314         146.898         43.5535         155.965 
        1.04929         146.058         42.9873         155.313 
        1.05541         145.156         42.4335         154.447 
        1.06154         144.145         41.8883         153.614 
        1.06769         143.705         41.3519          152.73 
        1.07382         142.966         40.8268         151.764 
        1.07993         141.951          40.312         150.804 
        1.08607         140.709         39.8042         150.034 
        1.09222         139.917         39.3046         148.973 
        1.09836         138.827         38.8144          148.09 
        1.10449         137.992         38.3331         147.256 
        1.11063         137.172         37.8596          146.14 
        1.11677         136.475         37.3943         145.506 
         1.1229         135.247         36.9378         145.041 
        1.12903         134.182         36.4886         143.984 
        1.13518         134.279         36.0465         143.257 
        1.14131         132.993         35.6121         142.348 
        1.14745         131.964         35.1852         141.643 
        1.15359         131.242         34.7653         140.872 
        1.15973         130.843         34.3521         140.282 
        1.16584         129.743         33.9476         139.444 
        1.17197         128.946          33.549         138.626 
        1.17811         128.238         33.1558         137.919 
        1.18424         127.143           32.77         137.225 
        1.19038         126.606         32.3893         136.704 
        1.19652         125.986         32.0149         135.695 
        1.20267         124.953         31.6464         135.085 
        1.20881         124.259         31.2839         134.442 
        1.21495         123.421         30.9277         133.509 
        1.22108         122.666         30.5772         133.076 
         1.2272         122.036          30.233          132.33 
        1.23334          121.28         29.8933         131.703 
        1.23949         120.125         29.5581         130.822 
        1.24562         120.014         29.2291         130.352 
        1.25174         119.028         28.9055         129.683 
        1.25789         118.377          28.586         129.051 
        1.26402         117.907         28.2719         128.325 
        1.27014         116.774         27.9633         128.073 
        1.27628         116.493         27.6584         127.492 
        1.28244         115.523         27.3575         126.303 
        1.28858         114.927         27.0616         125.714 
        1.29471         114.221         26.7707         125.445 
        1.30084         113.498         26.4844         124.513 
        1.30697         112.747         26.2019         123.881 
        1.31312         112.411         25.9231         123.456 
        1.31925         111.816         25.6494         122.782 
        1.32537         111.275         25.3799         122.125 
        1.33151         110.187         25.1133         121.646 
        1.33765         109.645         24.8507         121.115 
        1.34378         108.894         24.5925         120.369 
        1.34992         108.622         24.3378         119.938 
        1.35606         107.932         24.0862         119.277 
         1.3622         106.979         23.8386         118.773 
        1.36833         106.759         23.5952         117.982 
        1.37445         105.862         23.3552         117.415 
        1.38059         105.325          23.118         117.231 
        1.38675         104.775         22.8834         116.323 
        1.39288         104.046         22.6531         116.034 
        1.39901         103.838         22.4261         115.437 
        1.40515         103.338         22.2017         114.924 
         1.4113          102.19         21.9805          114.53 
        1.41742         101.968         21.7632          113.93 
        1.42355         101.198         21.5485         113.124 
         1.4297         100.718          21.336         112.619 
        1.43585         100.046         21.1265         112.284 
        1.44198         99.7304         20.9207         111.915 
        1.44809         98.9171         20.7179         111.037 
        1.45423          98.489         20.5172          110.56 
        1.46036         97.9409         20.3195         110.189 
        1.46649         97.4311         20.1244          109.85 
        1.47263         97.0035         19.9317         109.405 
        1.47877         96.5406         19.7416         108.634 
        1.48491         95.8272         19.5537         108.355 
        1.49104         95.2797         19.3687         107.671 
        1.49718         94.8358          19.186         107.124 
        1.50333         94.2087         19.0053         106.768 
        1.50947         93.5238         18.8274          106.32 
         1.5156         93.4069          18.652         105.876 
        1.52172         92.6455         18.4789         105.477 
        1.52787         92.3721         18.3076         104.895 
          1.534         91.9663         18.1388         104.513 
        1.54013         91.1909         17.9722         104.002 
        1.54627         90.7468         17.8075         103.522 
        1.55241         90.1243         17.6448         103.158 
        1.55855         89.7455         17.4844          102.53 
        1.56467         89.0913         17.3264         102.035 
         1.5708         88.7449           17.17         101.772 
        1.57695         88.4126         17.0153         101.411 
        1.58308          87.744         16.8628         100.933 
        1.58922         87.4614         16.7122         100.494 
        1.59535         87.0528         16.5634         100.043 
         1.6015         86.4023         16.4163         99.5379 
        1.60764         86.1285          16.271         99.2044 
        1.61376          85.515         16.1279         98.9444 
        1.61989         85.0492         15.9864         98.3594 
        1.62604         84.5147         15.8464         97.8365 
        1.63218         84.3415         15.7081         97.4549 
        1.63831         83.7922         15.5717         97.1441 
        1.64444         83.4574          15.437          96.745 
        1.65059         82.6275         15.3035          96.163 
        1.65673         82.4106         15.1718         95.7963 
        1.66285         82.0147          15.042         95.4928 
        1.66898         81.5795         14.9137         95.0666 
        1.67512         80.9406         14.7867          94.816 
        1.68127         80.5592          14.661          94.349 
         1.6874         80.1872         14.5371         93.7281 
        1.69353         79.8199         14.4147         93.3441 
        1.69967         79.3526         14.2934          93.151 
        1.70581          79.021         14.1736         92.8156 
        1.71193         78.6583         14.0556         92.3677 
        1.71806         77.9831         13.9388         92.0586 
        1.72421         77.8802          13.823          91.566 
        1.73035         77.2559         13.7087         91.2229 
        1.73649         76.8406         13.5957         91.0338 
        1.74262         76.5394         13.4841         90.4714 
        1.74876         76.1771         13.3737         90.0233 
        1.75489         75.6158         13.2647         89.7373 
        1.76101         75.3903          13.157         89.3848 
        1.76715         74.8663         13.0504         88.8962 
        1.77329         74.5278         12.9448         88.5693 
        1.77943         74.2347         12.8404         88.2624 
        1.78557         73.8609         12.7373         87.7704 
        1.79171         73.3982         12.6353         87.4127 
        1.79785         73.1301         12.5344         87.1811 
        1.80399         72.5392         12.4346         86.8781 
        1.81012         72.3777         12.3361         86.4578 
        1.81625         71.7653         12.2386         86.0429 
        1.82239         71.4589         12.1421         85.7619 
        1.82853         71.0263         12.0467         85.5726 
        1.83466         70.7437         11.9524         85.1512 
        1.84078         70.1621         11.8593         84.6652 
        1.84692         69.9831         11.7669         84.5565 
        1.85306         69.6281         11.6755         84.2344 
         1.8592         69.1424         11.5852         83.7576 
        1.86533          68.771         11.4958         83.5281 
        1.87147         68.4697         11.4074         83.1455 
