# k  (h/Mpc)    Pcb(k)  (Mpc/h)^3    Pcb_linear(k) (Mpc/h)^3    Pcb_NL(k) (Mpc/h)^3   ShotnoiseSubtracted = false
     0.00783031         2521.76         2546.62         2545.26 
       0.013688         3409.32         3404.61         3392.42 
       0.019231         3678.15         3677.77         3657.89 
      0.0249154         3577.98         3612.45         3595.25 
      0.0312784         3309.43         3323.35         3309.55 
      0.0375637          2974.3         2972.72         2959.67 
      0.0433917         2656.35         2675.74         2663.32 
      0.0492413         2432.23         2438.13         2426.06 
      0.0555754         2222.16         2248.96         2236.41 
      0.0619321          2113.3         2107.97         2094.84 
       0.067871         1972.79         1993.94         1980.12 
      0.0738098         1853.29         1876.24         1858.37 
      0.0800417         1706.45         1737.96          1720.6 
      0.0862327         1566.99         1587.48         1574.46 
      0.0921407          1431.1         1442.05         1430.14 
      0.0982031         1289.43         1303.91         1297.42 
       0.104506         1186.78            1183         1181.05 
       0.110769         1093.56         1090.27         1086.22 
       0.116806         1020.09         1024.66         1020.68 
       0.122832         977.584         975.941          973.36 
       0.129052         925.919         934.412         931.798 
       0.135211          884.81         893.795         891.335 
       0.141259         847.135         849.204         848.422 
       0.147318         801.369         798.559         800.663 
       0.153489         741.718         743.058         742.256 
       0.159709         692.254         687.559         690.615 
       0.165845         653.008         637.725         647.134 
       0.171974          606.43         595.861         605.491 
       0.178125         575.143         562.702         576.813 
       0.184229         552.565         537.482         551.798 
        0.19034         522.353         517.466         531.517 
       0.196428          511.98         499.796         510.855 
       0.202534         498.455         481.768         493.696 
       0.208729         475.222         461.552         472.624 
       0.214876         449.424         439.295         454.724 
       0.220989         434.531         415.864         433.092 
       0.227147          406.28         392.468         410.315 
        0.23329         387.306         370.869          392.66 
       0.239377         373.727         352.239         376.001 
       0.245482         351.944          336.68         358.736 
       0.251667         345.417         323.766         347.921 
       0.257832         334.413         312.917         336.712 
       0.263955         323.604         303.119         326.112 
       0.270079         313.953         293.366         315.753 
        0.27624         307.878         283.038         304.577 
       0.282372           295.8         272.088         294.587 
        0.28843          284.29          260.86          283.74 
       0.294538          272.79         249.613         274.193 
       0.300721         267.286          238.83         265.373 
        0.30691         255.005         229.058         256.477 
       0.313033         247.775         220.556         247.461 
       0.319153         237.219         213.167          241.26 
       0.325316             233         206.572         235.624 
        0.33145         225.628          200.52         227.969 
       0.337538         221.815          194.68         221.644 
       0.343633         214.979         188.786         216.609 
       0.349808         208.925         182.669         211.158 
       0.355968         204.014         176.472         206.415 
       0.362074         198.027         170.382         200.172 
       0.368217         192.748         164.477         193.183 
       0.374374         187.082         158.941         188.833 
       0.380519         182.649         153.868          183.53 
       0.386598         178.032           149.3         179.191 
       0.392688         175.086         145.106         175.497 
        0.39888         170.592         141.114         170.702 
       0.405048         167.141         137.302         167.363 
       0.411186         163.693         133.573          164.31 
       0.417313         159.233          129.86         159.359 
       0.423458         155.871         126.157           156.1 
       0.429607          151.89         122.499         152.435 
       0.435692         147.257         118.979         149.359 
       0.441815          145.92         115.595         147.184 
       0.447964         143.647         112.388         143.402 
       0.454126         137.757         109.369         139.854 
       0.460267         135.881         106.548          137.83 
       0.466387         133.163         103.887         134.715 
        0.47254         131.223         101.318         132.431 
       0.478662         129.249         98.8334         129.741 
       0.484765         126.083         96.4104         126.776 
       0.490885         123.711         94.0204          125.14 
       0.497035         122.064           91.66         123.179 
       0.503198         119.004          89.356         120.415 
       0.509342         116.421         87.1386         118.546 
       0.515458         114.695         85.0197         117.271 
       0.521598         113.275         82.9833         114.215 
       0.527764         111.342         81.0303         111.587 
       0.533884         109.386         79.1781         109.976 
           0.54         107.609         77.3975         108.305 
       0.546137         106.378         75.6653         107.027 
       0.552299         104.915         73.9694         104.709 
       0.558452         102.124         72.3165         102.845 
       0.564573         100.407         70.7129         101.747 
       0.570708         99.4566         69.1468         100.071 
       0.576825         97.4593         67.6283         98.4459 
       0.582926         95.8624         66.1593         96.9266 
       0.589034          93.677         64.7372         95.7877 
       0.595184         92.7123         63.3566         94.1828 
       0.601379         91.7366         62.0166          93.088 
       0.607522         89.5414         60.7322         91.1278 
       0.613639         89.3792         59.4912         90.0617 
       0.619772         87.1499         58.2802          88.641 
       0.625918         86.7101         57.0966         87.9179 
       0.632068         85.4875         55.9423         86.2298 
       0.638161         84.1852         54.8286         85.2944 
         0.6443         82.9293         53.7366         83.8248 
       0.650464         81.7212         52.6711         82.6307 
       0.656582         81.0769         51.6431         81.8821 
       0.662703         79.4971         50.6433         80.4449 
       0.668861         78.6425         49.6655         79.6491 
       0.675024         77.5431          48.714         78.4486 
       0.681124          76.368         47.7984          77.405 
       0.687237         75.1799         46.9055         76.3433 
       0.693381         74.5695         46.0321         75.3693 
       0.699536         73.2199         45.1798         74.8416 
       0.705665         73.4572         44.3529          74.003 
       0.711789         71.6374         43.5473         72.5709 
       0.717957         71.0767         42.7557         72.0523 
        0.72409         70.0546          41.988         71.4524 
       0.730186         69.0475         41.2436         70.4107 
       0.736317         68.7207         40.5134         69.4822 
       0.742472         67.5787         39.7983         68.8298 
       0.748622         67.1122         39.1016         67.8663 
        0.75476         66.2173         38.4236         67.1963 
       0.760888         65.3706         37.7632         66.4804 
       0.767043         64.6984         37.1162         65.9707 
       0.773185          63.838          36.486         65.2544 
       0.779291         63.5096         35.8745         64.6034 
       0.785407         62.8906         35.2763         63.7501 
       0.791564         61.8284         34.6882         63.0403 
       0.797719         60.9288         34.1139         62.4886 
       0.803834         60.8142         33.5564         61.7401 
       0.809972         59.9466         33.0094         61.2162 
       0.816124         58.9142         32.4736         60.5781 
       0.822261         58.7604         31.9512         59.7757 
       0.828378         58.1751         31.4421         59.0874 
       0.834502         57.4926         30.9437         58.9536 
       0.840667         57.0323         30.4531          58.158 
       0.846816         56.2652         29.9746         57.6537 
       0.852925         55.8072         29.5095         57.3882 
       0.859047         55.0756         29.0535         56.4884 
       0.865192         54.8022         28.6058         56.0223 
       0.871341         54.4842         28.1673         55.5953 
       0.877463          53.439         27.7402         55.0524 
       0.883569         53.0584         27.3231         54.7073 
       0.889708         52.6939         26.9125         54.0155 
       0.895864         52.2256         26.5095         53.5458 
       0.902008         51.8247         26.1157         53.1252 
       0.908149         51.3606         25.7302         52.7267 
       0.914301         51.0916          25.352         52.3958 
       0.920448         50.1711         24.9818         51.7728 
       0.926574         50.0032         24.6205         51.2254 
       0.932687         49.4712         24.2671         50.8909 
       0.938823         48.8733         23.9195         50.4149 
       0.944975         48.6266          23.578         49.9021 
       0.951105         48.2396         23.2444         49.5881 
       0.957225         47.6794          22.918         49.2047 
       0.963368         47.3875         22.5968         48.7247 
       0.969511         47.0731         22.2819         48.3654 
       0.975621         46.7246         21.9747         48.0496 
       0.981748         46.1349         21.6725         47.6991 
       0.987916         45.9001         21.3742         47.2137 
        0.99406         45.5275         21.0828         46.9153 
        1.00019         44.9418         20.7973         46.5336 
        1.00632          44.844         20.5175         46.2505 
        1.01246          44.419         20.2425         45.9258 
        1.01859         43.9217         19.9731         45.5168 
        1.02471         43.8908         19.7089         45.1808 
        1.03085         43.4375         19.4487         44.8478 
        1.03698         42.8366         19.1937         44.4808 
        1.04314         42.5345         18.9423         44.0501 
        1.04929         42.2861         18.6961         43.8616 
        1.05541         41.8729         18.4552         43.6626 
        1.06154         41.6763         18.2181         43.1461 
        1.06769         41.3704         17.9848         42.8579 
        1.07382         41.0459         17.7564         42.6603 
        1.07993         40.8887         17.5326         42.2585 
        1.08607         40.3941         17.3117         41.9649 
        1.09222         40.2047         17.0944         41.7641 
        1.09836         39.7423         16.8812         41.4429 
        1.10449         39.6473         16.6719          41.086 
        1.11063         39.1198         16.4659         40.9165 
        1.11677         39.0085         16.2636         40.5855 
         1.1229         38.8605          16.065         40.2914 
        1.12903         38.3481         15.8697         40.0646 
        1.13518         38.0893         15.6774         39.6838 
        1.14131         38.0121         15.4885         39.4859 
        1.14745         37.7015         15.3028         39.2638 
        1.15359         37.4767         15.1202           39.04 
        1.15973          37.084         14.9405         38.7847 
        1.16584         36.7626         14.7645         38.5724 
        1.17197         36.8095         14.5912         38.2882 
        1.17811         36.3252         14.4201         37.9201 
        1.18424         36.0129         14.2524         37.7744 
        1.19038         35.9601         14.0868         37.6088 
        1.19652         35.7036          13.924          37.267 
        1.20267          35.442         13.7637          37.089 
        1.20881          35.265          13.606          36.919 
        1.21495         34.9755         13.4511         36.7296 
        1.22108         34.7191         13.2987         36.4185 
         1.2272         34.3713          13.149         36.2202 
        1.23334         34.2317         13.0012         36.0638 
        1.23949          33.981         12.8555         35.7608 
        1.24562         33.9162         12.7123         35.5635 
        1.25174         33.7002         12.5716         35.3938 
        1.25789         33.5158         12.4326         35.1529 
        1.26402         33.3256          12.296         34.9294 
        1.27014         33.0055         12.1618         34.7581 
        1.27628         32.7388         12.0292         34.5236 
        1.28244         32.6635         11.8984         34.4552 
        1.28858         32.4979         11.7696         34.1545 
        1.29471         32.2112         11.6431         33.9572 
        1.30084          32.011         11.5186         33.8474 
        1.30697         31.8107         11.3958          33.589 
        1.31312         31.5461         11.2745          33.395 
        1.31925         31.4026         11.1555         33.2789 
        1.32537         31.3184         11.0382         33.1323 
        1.33151         31.0278         10.9223         32.9088 
        1.33765         30.9187         10.8081         32.7438 
        1.34378         30.8073         10.6958         32.5811 
        1.34992         30.3816          10.585         32.4065 
        1.35606         30.3555         10.4756         32.2142 
         1.3622         30.2008         10.3679         32.0673 
        1.36833         29.9826          10.262         31.9315 
        1.37445         29.8931         10.1577         31.6901 
        1.38059         29.7446         10.0545         31.5037 
        1.38675         29.4457         9.95249         31.3968 
        1.39288         29.3477         9.85233         31.2225 
        1.39901         29.1113          9.7536         31.0861 
        1.40515         28.9953         9.65601         30.9364 
         1.4113          28.844         9.55981          30.792 
        1.41742         28.6026          9.4653         30.6394 
        1.42355         28.5455          9.3719         30.3871 
         1.4297          28.346         9.27949         30.2929 
        1.43585          28.267         9.18837         30.2023 
        1.44198         27.9735         9.09884         30.0175 
        1.44809         27.9269         9.01068          29.898 
        1.45423         27.7615         8.92337         29.7215 
        1.46036         27.6674         8.83739         29.5476 
        1.46649         27.4951         8.75252         29.4103 
        1.47263         27.2888         8.66871         29.3181 
        1.47877         27.1752         8.58604         29.2369 
        1.48491         27.0239         8.50433         28.9769 
        1.49104         26.9603         8.42387         28.8878 
        1.49718         26.7247         8.34439         28.7768 
        1.50333         26.5999         8.26582         28.6474 
        1.50947          26.514         8.18844         28.5364 
         1.5156         26.3116         8.11216         28.3894 
        1.52172         26.0998         8.03686         28.2067 
        1.52787          26.062         7.96238         28.0735 
          1.534         25.9213         7.88894         27.9613 
        1.54013         25.7266          7.8165         27.7796 
        1.54627         25.6381         7.74485         27.6518 
        1.55241         25.4638          7.6741         27.5936 
        1.55855         25.3941         7.60433         27.4745 
        1.56467         25.2789         7.53563         27.3236 
         1.5708         25.1697         7.46759         27.2365 
        1.57695         24.9278          7.4003         27.1209 
        1.58308         24.9122           7.334         26.9796 
        1.58922         24.7645         7.26847         26.9069 
        1.59535         24.6189         7.20377         26.7904 
         1.6015         24.4789         7.13978         26.6483 
        1.60764         24.4257          7.0766         26.5113 
        1.61376         24.3219         7.01437         26.3866 
        1.61989          24.078         6.95284         26.2967 
        1.62604         24.0795         6.89192         26.2438 
        1.63218          23.893         6.83177         26.1243 
        1.63831          23.818         6.77248         25.9639 
        1.64444         23.6484         6.71388         25.8836 
        1.65059         23.5668         6.65584         25.7581 
        1.65673         23.4674         6.59855         25.6683 
        1.66285         23.3191         6.54211         25.5813 
        1.66898         23.2426         6.48631          25.444 
        1.67512         23.1386         6.43105         25.3233 
        1.68127         22.9503          6.3764          25.208 
         1.6874         22.8798          6.3225         25.0974 
        1.69353         22.8507         6.26927         25.0055 
        1.69967          22.638         6.21652         24.9276 
        1.70581         22.4987         6.16441          24.854 
        1.71193         22.4122          6.1131         24.7544 
        1.71806         22.3716         6.06227         24.6156 
        1.72421         22.2462         6.01192         24.5409 
        1.73035         22.1838         5.96221         24.4369 
        1.73649         22.0248         5.91307         24.2949 
        1.74262         21.9674         5.86453         24.2476 
        1.74876         21.8385          5.8165         24.1553 
        1.75489          21.748         5.76912         24.0256 
        1.76101         21.6216         5.72228         23.9264 
        1.76715         21.6128          5.6759         23.8498 
        1.77329         21.4868         5.62999          23.741 
        1.77943         21.3442         5.58457         23.6546 
        1.78557         21.2406         5.53971         23.6259 
        1.79171         21.1913         5.49535         23.5202 
        1.79785         21.0797         5.45147         23.3935 
        1.80399         20.9937         5.40808         23.3395 
        1.81012         20.8763         5.36522         23.2313 
        1.81625         20.7781         5.32285          23.142 
        1.82239         20.7161         5.28088         23.0936 
        1.82853          20.549         5.23938         22.9802 
        1.83466         20.5083         5.19837         22.8789 
        1.84078         20.3638         5.15785         22.8105 
        1.84692         20.3132         5.11769         22.7215 
        1.85306         20.2175         5.07792         22.6314 
         1.8592         20.1589         5.03863         22.5513 
        1.86533         20.0573         4.99979         22.4733 
        1.87147         19.9589         4.96131         22.4039 
