#  k  (h/Mpc)          P(k)  (Mpc/h)^3     P_linear(k)   P_NL(k) (Mpc/h)^3
     0.00783031         7929.78         7962.14         7955.54 
       0.013688         10417.9         10641.7         10589.3 
       0.019231         11351.6         11494.1         11405.1 
      0.0249154         11273.9         11289.1         11188.5 
      0.0312784         10267.9         10385.2         10272.5 
      0.0375637         9118.97         9289.22         9172.06 
      0.0433917         8285.09         8361.06          8233.2 
      0.0492413         7483.09         7618.46         7489.21 
      0.0555754         6941.26         7027.28            6898 
      0.0619321         6330.19         6586.68         6452.74 
       0.067871         6059.38         6230.35         6097.11 
      0.0738098         5727.94         5862.55         5694.17 
      0.0800417         5313.13         5430.44         5266.23 
      0.0862327         4831.68         4960.25         4833.93 
      0.0921407         4399.01         4505.81         4386.49 
      0.0982031         4025.63         4074.18         4000.24 
       0.104506          3615.8         3696.37         3661.25 
       0.110769         3347.35         3406.64          3356.1 
       0.116806          3203.3         3201.63         3152.64 
       0.122832         3013.95         3049.39         3012.09 
       0.129052         2885.22         2919.63         2884.34 
       0.135211         2800.87         2792.72         2757.06 
       0.141259         2625.63         2653.39         2635.04 
       0.147318         2441.27         2495.14         2495.36 
       0.153489         2306.17         2321.73         2302.54 
       0.159709         2195.49         2148.31         2159.94 
       0.165845         2002.66          1992.6         2051.69 
       0.171974         1944.79          1861.8          1928.3 
       0.178125         1869.49         1758.19         1859.39 
       0.184229         1736.54         1679.39         1776.72 
        0.19034         1708.66         1616.85         1715.33 
       0.196428         1661.76         1561.64         1644.97 
       0.202534         1566.15         1505.31          1595.5 
       0.208729         1538.26         1442.14         1522.13 
       0.214876         1479.44          1372.6         1480.55 
       0.220989         1391.43         1299.38          1423.8 
       0.227147         1358.29         1226.28         1361.69 
        0.23329         1305.53         1158.79         1318.18 
       0.239377         1285.05         1100.59         1268.72 
       0.245482         1223.15         1051.97         1212.65 
       0.251667         1178.24         1011.62         1185.97 
       0.257832         1166.28         977.719          1149.9 
       0.263955          1110.8         947.106         1116.95 
       0.270079            1081         916.634         1085.65 
        0.27624         1036.79         884.362         1051.57 
       0.282372         1020.18         850.148         1023.35 
        0.28843         1010.43         815.067         992.237 
       0.294538         960.864         779.925         966.411 
       0.300721         935.475         746.234         940.141 
        0.30691         919.572         715.699         921.293 
       0.313033         882.709         689.136         892.241 
       0.319153         870.199         666.048         870.674 
       0.325316         857.144         645.441         856.921 
        0.33145         840.989          626.53         827.743 
       0.337538         812.633         608.285         811.515 
       0.343633         790.782         589.867         801.976 
       0.349808         773.776         570.756          786.36 
       0.355968         760.114         551.391         771.694 
       0.362074         737.652         532.365         753.847 
       0.368217         733.812         513.912         732.272 
       0.374374         721.553         496.616         719.161 
       0.380519         695.224         480.765         703.769 
       0.386598         688.458         466.492         693.595 
       0.392688         675.223          453.39          678.03 
        0.39888         657.695         440.915         667.905 
       0.405048          647.73         429.003         660.771 
       0.411186         644.738         417.352         644.159 
       0.417313         638.559          405.75         630.872 
       0.423458         619.517         394.183          621.61 
       0.429607         604.191         382.752         608.939 
       0.435692         595.688         371.754         598.614 
       0.441815         586.849         361.181         594.418 
       0.447964         575.686         351.159         583.663 
       0.454126         568.815         341.726         569.994 
       0.460267         560.223         332.911         567.295 
       0.466387         552.524         324.598          556.43 
        0.47254         543.932         316.571         549.961 
       0.478662         532.808         308.808         540.405 
       0.484765         528.241         301.237         530.115 
       0.490885         523.002         293.769         523.559 
       0.497035         513.489         286.394         518.427 
       0.503198         512.549         279.195         510.714 
       0.509342         500.568         272.267         504.745 
       0.515458         493.034         265.647          501.41 
       0.521598         485.781         259.284         492.622 
       0.527764         478.315         253.182         485.905 
       0.533884         476.879         247.394          480.53 
           0.54         470.091         241.831         474.477 
       0.546137         460.951         236.418         469.181 
       0.552299         460.415         231.119         462.747 
       0.558452         453.487         225.955         458.169 
       0.564573         448.389         220.944         454.279 
       0.570708         443.918         216.051         450.075 
       0.576825         435.931         211.307         442.115 
       0.582926         432.658         206.717         437.333 
       0.589034         427.172         202.273         432.129 
       0.595184         424.221         197.959         426.669 
       0.601379         417.063         193.773         424.352 
       0.607522         410.673          189.76         419.567 
       0.613639         408.495         185.882         415.675 
       0.619772         406.605         182.098         413.195 
       0.625918          400.56           178.4         408.751 
       0.632068         395.441         174.793         402.973 
       0.638161         391.673         171.313         399.659 
         0.6443         389.132         167.902         396.507 
       0.650464         383.702         164.572         390.114 
       0.656582         380.164          161.36          386.88 
       0.662703         377.491         158.236         385.294 
       0.668861         372.086         155.181          381.45 
       0.675024         369.697         152.208          377.66 
       0.681124         365.943         149.347         372.982 
       0.687237         362.738         146.558         369.585 
       0.693381         359.205         143.829         366.518 
       0.699536         355.438         141.166         364.008 
       0.705665          351.95         138.582         361.391 
       0.711789         350.257         136.065         357.438 
       0.717957          345.47         133.591         355.042 
        0.72409         342.607         131.193          352.82 
       0.730186         343.851         128.867         349.855 
       0.736317         337.713         126.585         345.951 
       0.742472         333.731         124.351         342.884 
       0.748622         330.048         122.174         339.826 
        0.75476         330.097         120.055          338.69 
       0.760888         326.383         117.992         334.634 
       0.767043         323.263          115.97         332.706 
       0.773185          321.57         114.002         330.265 
       0.779291         316.507         112.091         327.153 
       0.785407         315.556         110.222         324.694 
       0.791564         312.202         108.384         322.567 
       0.797719         307.836          106.59         320.458 
       0.803834         309.986         104.848         317.908 
       0.809972          306.08         103.139         315.575 
       0.816124          302.48         101.465         312.726 
       0.822261         299.155         99.8325         310.635 
       0.828378         299.427         98.2416         307.937 
       0.834502         294.559         96.6844         306.588 
       0.840667         294.311         95.1514         304.469 
       0.846816         290.112         93.6563         302.133 
       0.852925         289.067         92.2033         299.734 
       0.859047         285.923         90.7785         297.777 
       0.865192         285.851         89.3795         295.979 
       0.871341          281.81         88.0095         293.676 
       0.877463         279.232         86.6749         292.156 
       0.883569           278.6         85.3717         290.305 
       0.889708         276.243          84.089         287.976 
       0.895864         274.122         82.8297         286.432 
       0.902008         271.834         81.5992         283.952 
       0.908149          269.59         80.3947         281.574 
       0.914301         268.386          79.213         280.592 
       0.920448         266.851         78.0564           277.9 
       0.926574         264.527         76.9273         275.971 
       0.932687         262.728         75.8232         273.773 
       0.938823         260.674         74.7371         273.311 
       0.944975          258.88           73.67         271.922 
       0.951105         256.747         72.6279         269.757 
       0.957225         254.988          71.608         267.769 
       0.963368         253.894         70.6044         265.385 
       0.969511         250.114         69.6203         264.027 
       0.975621         249.279         68.6604         263.724 
       0.981748         247.582         67.7164         261.375 
       0.987916         246.352         66.7844          260.19 
        0.99406         244.259         65.8736         258.677 
        1.00019         242.817         64.9819         256.368 
        1.00632         242.058         64.1076         254.374 
        1.01246         240.014         63.2483         252.739 
        1.01859          237.47         62.4064         251.904 
        1.02471         235.688          61.581         250.919 
        1.03085         234.947         60.7678         249.207 
        1.03698         232.896         59.9713         247.724 
        1.04314         232.478         59.1858         246.216 
        1.04929         230.775         58.4164         244.553 
        1.05541         228.893         57.6639         243.226 
        1.06154         227.461         56.9229         241.996 
        1.06769         225.127          56.194         240.718 
        1.07382         224.918         55.4804          239.09 
        1.07993         222.699         54.7809          237.78 
        1.08607          220.81         54.0908         236.794 
        1.09222         219.921          53.412         235.358 
        1.09836         218.614         52.7457         234.235 
        1.10449         216.507         52.0918         232.606 
        1.11063         215.248         51.4483         231.042 
        1.11677         214.474          50.816         229.924 
         1.1229         212.524         50.1956         228.867 
        1.12903         211.938         49.5851         227.637 
        1.13518         210.287         48.9844         226.275 
        1.14131         209.141         48.3941         224.918 
        1.14745         207.004          47.814         223.742 
        1.15359         205.138         47.2433         222.445 
        1.15973         204.791         46.6819         221.201 
        1.16584         203.917         46.1321         219.631 
        1.17197         202.477         45.5906         218.499 
        1.17811         200.505         45.0561         217.955 
        1.18424         199.446         44.5319         216.593 
        1.19038         198.237         44.0146         215.514 
        1.19652         196.555         43.5058         214.636 
        1.20267         195.781         43.0051         213.134 
        1.20881         194.273         42.5125         212.451 
        1.21495         193.833         42.0284         210.567 
        1.22108         192.139         41.5521         210.114 
         1.2272         190.703         41.0843         208.416 
        1.23334         190.025         40.6227         207.709 
        1.23949         189.353         40.1672         206.789 
        1.24562         187.724           39.72         205.416 
        1.25174         186.141         39.2804         204.629 
        1.25789         185.227         38.8461         203.528 
        1.26402         184.707         38.4193         202.166 
        1.27014         183.394         37.9999          201.95 
        1.27628         181.228         37.5856         201.155 
        1.28244          180.82         37.1767         199.328 
        1.28858         179.621         36.7746         198.315 
        1.29471         178.551         36.3793         197.556 
        1.30084         177.417         35.9902         196.461 
        1.30697         176.529         35.6063         195.481 
        1.31312          175.26         35.2275         194.153 
        1.31925         173.821         34.8555         193.281 
        1.32537         173.422         34.4893         192.562 
        1.33151         172.181          34.127         191.568 
        1.33765         170.501         33.7702         190.627 
        1.34378         170.445         33.4193         189.469 
        1.34992         169.501         33.0732         188.656 
        1.35606         168.199         32.7313         187.475 
         1.3622         167.636         32.3948         186.631 
        1.36833         165.664          32.064         185.698 
        1.37445         165.454          31.738         184.575 
        1.38059         164.123         31.4155         184.069 
        1.38675         163.225         31.0968         182.965 
        1.39288         162.097         30.7838         181.981 
        1.39901          161.03         30.4754         181.357 
        1.40515         160.369         30.1705          180.55 
         1.4113         159.506         29.8699         179.611 
        1.41742         158.154         29.5746         178.877 
        1.42355         157.917         29.2827          178.13 
         1.4297         156.519          28.994         177.072 
        1.43585         155.417         28.7093         176.171 
        1.44198         154.154         28.4295         175.378 
        1.44809         153.148         28.1541         174.417 
        1.45423         152.924         27.8813         173.509 
        1.46036         151.753         27.6126         172.745 
        1.46649         150.697         27.3475          172.18 
        1.47263         150.259         27.0856         171.551 
        1.47877         148.879         26.8273         170.449 
        1.48491         147.971          26.572         169.734 
        1.49104         146.431         26.3206         169.041 
        1.49718         146.598         26.0723         167.718 
        1.50333         145.637         25.8268         167.168 
        1.50947         144.758          25.585         166.508 
         1.5156         143.701         25.3466         165.672 
        1.52172         142.884         25.1114         165.119 
        1.52787           142.1         24.8787         164.074 
          1.534         141.502         24.6492         163.293 
        1.54013          140.56         24.4229         162.611 
        1.54627         139.521          24.199          161.91 
        1.55241         138.735         23.9779         161.224 
        1.55855         138.035         23.7599          160.24 
        1.56467         136.941         23.5453         159.452 
         1.5708         136.351         23.3327         159.031 
        1.57695         135.688         23.1224         158.299 
        1.58308         134.783         22.9153         157.327 
        1.58922         134.359         22.7105         156.632 
        1.59535         133.687         22.5084         155.964 
         1.6015         132.181         22.3084         155.233 
        1.60764         131.464          22.111         154.582 
        1.61376         130.813         21.9166         154.031 
        1.61989         130.195         21.7243         153.317 
        1.62604         129.362          21.534         152.456 
        1.63218         128.833          21.346         151.763 
        1.63831           127.7         21.1608         151.246 
        1.64444         127.032         20.9777         150.502 
        1.65059         126.139         20.7963         149.703 
        1.65673         125.657         20.6173         149.077 
        1.66285         125.163          20.441         148.498 
        1.66898         123.952         20.2666         147.827 
        1.67512         123.606          20.094         147.232 
        1.68127         122.631         19.9232         146.509 
         1.6874         121.985         19.7548         145.788 
        1.69353          121.08         19.5885         145.269 
        1.69967         120.677         19.4237          144.57 
        1.70581         120.127         19.2609         143.839 
        1.71193         119.198         19.1005         143.228 
        1.71806         118.431         18.9417         142.693 
        1.72421         117.791         18.7844          142.04 
        1.73035         117.289         18.6291         141.328 
        1.73649         116.417         18.4755         140.701 
        1.74262         115.814         18.3239         140.225 
        1.74876         115.003         18.1738          139.55 
        1.75489         114.513         18.0258         138.789 
        1.76101         113.764         17.8794          138.13 
        1.76715         112.928         17.7345         137.513 
        1.77329         112.494          17.591         137.015 
        1.77943         111.623         17.4491         136.504 
        1.78557         111.178          17.309         135.868 
        1.79171         110.586         17.1704         135.328 
        1.79785         109.729         17.0332         134.811 
        1.80399         109.333         16.8977         134.162 
        1.81012         108.483         16.7638         133.543 
        1.81625         108.044         16.6314          132.98 
        1.82239         107.572         16.5002         132.432 
        1.82853         106.865         16.3706         131.883 
        1.83466         105.944         16.2424         131.245 
        1.84078          105.47         16.1158         130.659 
        1.84692         105.164         15.9904         130.326 
        1.85306         104.458         15.8661         129.734 
         1.8592         104.005         15.7433         129.074 
        1.86533         103.205          15.622         128.643 
        1.87147         102.549         15.5017         127.802 
        1.87761         102.046         15.3827         127.109 
