#  k  (h/Mpc)          P(k)  (Mpc/h)^3     P_linear(k)   P_NL(k) (Mpc/h)^3
     0.00783031         8896.58         9011.68         9011.68 
       0.013688         10552.3         10486.2         10486.2 
       0.019231         10141.2         10111.3         10111.3 
      0.0249154         8809.63         8925.73         8925.73 
      0.0312784         7366.98         7393.72         7393.72 
      0.0375637         6139.07         6107.52         6107.52 
      0.0433917         5211.93          5245.6          5245.6 
      0.0492413         4669.17         4667.79         4667.79 
      0.0555754         4189.15          4253.7          4253.7 
      0.0619321         3960.27         3927.14         3927.14 
       0.067871         3572.84         3613.65         3613.65 
      0.0738098         3224.91         3258.73         3258.73 
      0.0800417         2815.93         2858.17         2858.17 
      0.0862327         2470.52         2476.97         2476.97 
      0.0921407         2196.71         2168.97         2168.97 
      0.0982031         1944.51         1930.02         1930.02 
       0.104506         1816.34         1761.34         1761.34 
       0.110769         1695.51         1652.33         1652.33 
       0.116806         1602.52         1574.01         1574.01 
       0.122832         1530.47         1496.53         1496.53 
       0.129052          1412.6         1401.13         1401.13 
       0.135211         1309.09         1289.01         1289.01 
       0.141259         1215.51         1171.02         1171.02 
       0.147318         1116.24         1058.57         1058.57 
       0.153489         1011.89         961.529         961.529 
       0.159709         947.755         887.024         887.024 
       0.165845         906.218         834.892         834.892 
       0.171974         858.209         797.598         797.598 
       0.178125         823.486         766.589         766.589 
       0.184229         790.486         734.806         734.806 
        0.19034          735.98         697.804         697.804 
       0.196428         711.351         655.565         655.565 
       0.202534         678.139          610.72          610.72 
       0.208729         633.853         566.966         566.966 
       0.214876         595.031          528.91          528.91 
       0.220989         571.345         498.121         498.121 
       0.227147         542.529         473.945         473.945 
        0.23329         521.402         454.821         454.821 
       0.239377         508.834         438.289         438.289 
       0.245482         475.764          421.86          421.86 
       0.251667         468.454         403.981         403.981 
       0.257832         449.658         384.676         384.676 
       0.263955         430.781         364.809         364.809 
       0.270079         411.864         345.467         345.467 
        0.27624         403.073         327.669         327.669 
       0.282372         386.466         312.281         312.281 
        0.28843         373.667         299.365         299.365 
       0.294538         356.075           288.2           288.2 
       0.300721           352.3         278.041         278.041 
        0.30691         335.747         268.283         268.283 
       0.313033          327.52         258.523         258.523 
       0.319153         314.803         248.514         248.514 
       0.325316         306.146         238.321         238.321 
        0.33145         295.076         228.402         228.402 
       0.337538         289.714         219.108         219.108 
       0.343633         279.423         210.604         210.604 
       0.349808         269.827         202.846         202.846 
       0.355968         265.676          195.88          195.88 
       0.362074          259.11         189.516         189.516 
       0.368217         251.593         183.432         183.432 
       0.374374         241.988         177.478         177.478 
       0.380519         238.392         171.577         171.577 
       0.386598         231.847         165.807         165.807 
       0.392688         228.367         160.157         160.157 
        0.39888         222.134         154.643         154.643 
       0.405048         216.217         149.475         149.475 
       0.411186         211.409         144.676         144.676 
       0.417313          206.99         140.209         140.209 
       0.423458         202.303         136.012         136.012 
       0.429607         197.697         132.013         132.013 
       0.435692         191.729         128.192         128.192 
       0.441815         189.882          124.45          124.45 
       0.447964         185.866         120.782         120.782 
       0.454126         178.276           117.2           117.2 
       0.460267         175.962         113.755         113.755 
       0.466387         173.685          110.47          110.47 
        0.47254         169.341         107.325         107.325 
       0.478662         168.222         104.348         104.348 
       0.484765         162.715         101.523         101.523 
       0.490885         160.187         98.8161         98.8161 
       0.497035         157.715         96.1961         96.1961 
       0.503198         153.478         93.6521         93.6521 
       0.509342         151.277         91.1905         91.1905 
       0.515458         149.007         88.8158         88.8158 
       0.521598          146.25         86.5088         86.5088 
       0.527764         144.093         84.2715         84.2715 
       0.533884         141.857         82.1319         82.1319 
           0.54         139.234         80.0766         80.0766 
       0.546137         137.888         78.0963         78.0963 
       0.552299         135.269         76.1834         76.1834 
       0.558452         133.095         74.3407         74.3407 
       0.564573          130.81         72.5654         72.5654 
       0.570708           128.3         70.8393         70.8393 
       0.576825          126.59         69.1705         69.1705 
       0.582926         124.211         67.5579         67.5579 
       0.589034         122.452         65.9947         65.9947 
       0.595184         120.752         64.4718         64.4718 
       0.601379         119.219         62.9879         62.9879 
       0.607522         116.587         61.5638         61.5638 
       0.613639         115.828         60.1908         60.1908 
       0.619772         113.378         58.8575         58.8575 
       0.625918         111.942         57.5629         57.5629 
       0.632068          110.64         56.3072         56.3072 
       0.638161         109.461         55.1003         55.1003 
         0.6443         107.967           53.92           53.92 
       0.650464         106.674         52.7696         52.7696 
       0.656582         104.971         51.6605         51.6605 
       0.662703         103.484         50.5827         50.5827 
       0.668861         101.938         49.5294         49.5294 
       0.675024         100.604         48.5054         48.5054 
       0.681124         99.7678         47.5211         47.5211 
       0.687237          97.874         46.5625         46.5625 
       0.693381         96.5156         45.6263         45.6263 
       0.699536         95.7044         44.7146         44.7146 
       0.705665         95.5527          43.832          43.832 
       0.711789         93.1701         42.9742         42.9742 
       0.717957         92.7225         42.1337         42.1337 
        0.72409         91.2228         41.3203         41.3203 
       0.730186         89.7263         40.5333         40.5333 
       0.736317         89.3283         39.7625         39.7625 
       0.742472         88.4361         39.0089         39.0089 
       0.748622         87.4249         38.2756         38.2756 
        0.75476         86.4728         37.5627         37.5627 
       0.760888         85.2328         36.8691         36.8691 
       0.767043         84.6228         36.1904         36.1904 
       0.773185         83.5742         35.5301         35.5301 
       0.779291         82.4959         34.8902         34.8902 
       0.785407         81.9211         34.2651         34.2651 
       0.791564         81.0567         33.6515         33.6515 
       0.797719          79.635         33.0533         33.0533 
       0.803834         79.2548         32.4735         32.4735 
       0.809972         77.9895         31.9056         31.9056 
       0.816124         77.6172           31.35           31.35 
       0.822261         76.8704         30.8092         30.8092 
       0.828378         76.1787         30.2829         30.2829 
       0.834502          75.561         29.7684         29.7684 
       0.840667          74.553         29.2626         29.2626 
       0.846816         73.6206           28.77           28.77 
       0.852925         73.0898         28.2919         28.2919 
       0.859047         72.0734         27.8237         27.8237 
       0.865192         71.6046         27.3646         27.3646 
       0.871341         71.0468         26.9156         26.9156 
       0.877463         69.9974         26.4787         26.4787 
       0.883569         69.6127         26.0526         26.0526 
       0.889708         69.0579         25.6338         25.6338 
       0.895864         68.4293         25.2232         25.2232 
       0.902008         67.7983         24.8224         24.8224 
       0.908149         67.2861         24.4306         24.4306 
       0.914301          66.562         24.0466         24.0466 
       0.920448         66.0808         23.6713         23.6713 
       0.926574         65.3823         23.3053         23.3053 
       0.932687         65.2204         22.9478         22.9478 
       0.938823         64.1143         22.5966         22.5966 
       0.944975          63.603         22.2519         22.2519 
       0.951105         63.0903         21.9157         21.9157 
       0.957225         62.3617          21.587          21.587 
       0.963368         62.1163         21.2639         21.2639 
       0.969511         61.7419         20.9475         20.9475 
       0.975621         61.3274         20.6391         20.6391 
       0.981748          60.659         20.3362         20.3362 
       0.987916         60.0479         20.0375         20.0375 
        0.99406         59.6845         19.7459         19.7459 
        1.00019         59.1115         19.4607         19.4607 
        1.00632         58.7344         19.1814         19.1814 
        1.01246          58.288         18.9072         18.9072 
        1.01859         57.4496         18.6388         18.6388 
        1.02471         57.3951         18.3759         18.3759 
        1.03085         56.8265         18.1172         18.1172 
        1.03698         56.4058         17.8641         17.8641 
        1.04314         55.8837         17.6147         17.6147 
        1.04929         55.4829         17.3706         17.3706 
        1.05541         54.9335         17.1322         17.1322 
        1.06154         54.8435         16.8976         16.8976 
        1.06769         54.3179         16.6671         16.6671 
        1.07382         54.0717         16.4416         16.4416 
        1.07993         53.6677         16.2208         16.2208 
        1.08607         53.2045         16.0032         16.0032 
        1.09222         52.8985         15.7894         15.7894 
        1.09836          52.458         15.5797         15.5797 
        1.10449         52.1158          15.374          15.374 
        1.11063         51.6155         15.1719         15.1719 
        1.11677         51.3149         14.9735         14.9735 
         1.1229         50.8531          14.779          14.779 
        1.12903          50.212         14.5877         14.5877 
        1.13518         50.4147         14.3997         14.3997 
        1.14131         50.0467         14.2151         14.2151 
        1.14745          49.379         14.0338         14.0338 
        1.15359         49.2526         13.8557         13.8557 
        1.15973         48.7407         13.6806         13.6806 
        1.16584         48.4611         13.5093         13.5093 
        1.17197         48.1468         13.3407         13.3407 
        1.17811         47.9114         13.1745         13.1745 
        1.18424         47.4668         13.0115         13.0115 
        1.19038         47.1416         12.8509         12.8509 
        1.19652         46.9865          12.693          12.693 
        1.20267         46.5191         12.5378         12.5378 
        1.20881          46.294         12.3852         12.3852 
        1.21495         45.8584         12.2354         12.2354 
        1.22108         45.6793         12.0881         12.0881 
         1.2272         45.1605         11.9436         11.9436 
        1.23334         44.9974         11.8011         11.8011 
        1.23949         44.9042         11.6606         11.6606 
        1.24562         44.3997         11.5227         11.5227 
        1.25174         44.2383         11.3873         11.3873 
        1.25789         44.0334         11.2537         11.2537 
        1.26402         43.6757         11.1224         11.1224 
        1.27014         43.2135         10.9935         10.9935 
        1.27628         43.0413         10.8663         10.8663 
        1.28244         42.7415         10.7409         10.7409 
        1.28858         42.5661         10.6176         10.6176 
        1.29471         42.4092         10.4965         10.4965 
        1.30084         42.1185         10.3774         10.3774 
        1.30697         41.7836           10.26           10.26 
        1.31312         41.4881         10.1442         10.1442 
        1.31925         41.3339         10.0306         10.0306 
        1.32537         41.1202         9.91878         9.91878 
        1.33151         40.7046         9.80831         9.80831 
        1.33765         40.5873         9.69958         9.69958 
        1.34378         40.3068         9.59272         9.59272 
        1.34992         40.0622         9.48739         9.48739 
        1.35606         39.8199         9.38342         9.38342 
         1.3622         39.5296         9.28118         9.28118 
        1.36833         39.3105         9.18072         9.18072 
        1.37445          39.157         9.08179         9.08179 
        1.38059         38.8896         8.98401         8.98401 
        1.38675         38.6147         8.88744         8.88744 
        1.39288         38.4817         8.79266         8.79266 
        1.39901         38.2177         8.69932         8.69932 
        1.40515         37.9964         8.60711         8.60711 
         1.4113         37.8429         8.51628         8.51628 
        1.41742         37.6413         8.42711         8.42711 
        1.42355         37.3273         8.33904         8.33904 
         1.4297         37.1761         8.25196         8.25196 
        1.43585         37.0097         8.16617         8.16617 
        1.44198         36.6816         8.08191         8.08191 
        1.44809         36.5928         7.99901         7.99901 
        1.45423         36.3884         7.91696         7.91696 
        1.46036          36.213         7.83621         7.83621 
        1.46649         35.9963         7.75655         7.75655 
        1.47263         35.7332         7.67794         7.67794 
        1.47877         35.5958         7.60045         7.60045 
        1.48491         35.5559          7.5239          7.5239 
        1.49104         35.2044         7.44857         7.44857 
        1.49718          34.838         7.37421         7.37421 
        1.50333         34.8262         7.30075         7.30075 
        1.50947         34.6898         7.22843         7.22843 
         1.5156         34.4111          7.1572          7.1572 
        1.52172         34.2681         7.08692         7.08692 
        1.52787         34.1834         7.01745         7.01745 
          1.534         33.9448         6.94898         6.94898 
        1.54013         33.7187          6.8815          6.8815 
        1.54627         33.6093         6.81479         6.81479 
        1.55241         33.2977         6.74896         6.74896 
        1.55855         33.1932         6.68408         6.68408 
        1.56467         32.8753         6.62023         6.62023 
         1.5708         32.9421         6.55704         6.55704 
        1.57695         32.6627         6.49458         6.49458 
        1.58308         32.4879         6.43307         6.43307 
        1.58922         32.4608         6.37231         6.37231 
        1.59535         32.2709         6.31236         6.31236 
         1.6015         31.9824          6.2531          6.2531 
        1.60764         31.8017         6.19462         6.19462 
        1.61376         31.6862         6.13705         6.13705 
        1.61989         31.4612         6.08017         6.08017 
        1.62604          31.368         6.02387         6.02387 
        1.63218         31.2985         5.96833         5.96833 
        1.63831         31.0619         5.91361         5.91361 
        1.64444         30.9083         5.85955         5.85955 
        1.65059         30.7126         5.80604         5.80604 
        1.65673         30.5359         5.75325         5.75325 
        1.66285         30.4022         5.70127         5.70127 
        1.66898         30.2512         5.64991         5.64991 
        1.67512         30.1035         5.59908         5.59908 
        1.68127         29.9101         5.54882         5.54882 
         1.6874         29.7945          5.4993          5.4993 
        1.69353          29.646         5.45041         5.45041 
        1.69967          29.492         5.40199         5.40199 
        1.70581         29.4243         5.35418         5.35418 
        1.71193         29.2622         5.30713         5.30713 
        1.71806         29.0151         5.26055         5.26055 
        1.72421          28.879         5.21443         5.21443 
        1.73035         28.7459         5.16891         5.16891 
        1.73649         28.5514         5.12395         5.12395 
        1.74262         28.4778         5.07956         5.07956 
        1.74876         28.4258         5.03566         5.03566 
        1.75489         28.2281         4.99237         4.99237 
        1.76101         28.0645          4.9496          4.9496 
        1.76715         27.9631         4.90727         4.90727 
        1.77329         27.8282         4.86538         4.86538 
        1.77943         27.7122         4.82397         4.82397 
        1.78557         27.5248         4.78309         4.78309 
        1.79171         27.3886         4.74268         4.74268 
        1.79785         27.2596         4.70273         4.70273 
        1.80399         27.1916         4.66325         4.66325 
        1.81012         27.0336         4.62427         4.62427 
        1.81625         26.8919         4.58575         4.58575 
        1.82239         26.7876         4.54761         4.54761 
        1.82853         26.6063         4.50992         4.50992 
        1.83466           26.52          4.4727          4.4727 
        1.84078         26.2969         4.43593         4.43593 
        1.84692         26.2133         4.39951         4.39951 
        1.85306         26.0809         4.36346         4.36346 
         1.8592          25.959         4.32787         4.32787 
        1.86533           25.83         4.29269         4.29269 
        1.87147         25.7661         4.25786         4.25786 
        1.87761         25.6527         4.22341         4.22341 
