#  k  (h/Mpc)          P(k)  (Mpc/h)^3     P_linear(k)   P_NL(k) (Mpc/h)^3
     0.00783031         10569.8         10714.9           10618 
       0.013688         12026.1         11940.8         11858.1 
       0.019231         11070.4         11025.5         10954.7 
      0.0249154         9167.19         9282.69         9239.21 
      0.0312784         7270.86         7283.13          7271.7 
      0.0375637          5783.1         5734.26         5734.53 
      0.0433917         4759.37          4772.2         4771.73 
      0.0492413         4199.39         4183.48         4184.59 
      0.0555754         3763.75         3810.55         3808.77 
      0.0619321         3581.66         3541.17         3536.74 
       0.067871         3240.69         3270.31         3266.88 
      0.0738098          2913.8         2936.45         2922.51 
      0.0800417         2510.49         2537.44         2536.41 
      0.0862327         2154.93         2148.64         2170.68 
      0.0921407         1875.65         1835.76         1865.23 
      0.0982031         1627.14          1600.2         1646.42 
       0.104506         1506.27         1445.35         1500.42 
       0.110769         1406.57         1358.71         1397.81 
       0.116806         1340.86         1306.78         1336.67 
       0.122832         1291.08         1256.05          1282.8 
       0.129052         1197.46         1184.13         1206.33 
       0.135211         1108.12         1088.46         1114.15 
       0.141259         1021.44         980.162         1015.97 
       0.147318         926.532         873.143         923.891 
       0.153489         829.016         780.008         826.023 
       0.159709         767.982         710.012         762.796 
       0.165845         729.044         664.174         725.698 
       0.171974         691.164         635.402         689.135 
       0.178125         665.954          614.79         670.259 
       0.184229         641.556         594.082         643.243 
        0.19034           599.2         567.548         612.243 
       0.196428         578.588         534.018          574.95 
       0.202534         550.069         495.714         541.113 
       0.208729          510.55         456.611         502.995 
       0.214876         476.553         421.905         478.835 
       0.220989         453.627         393.996         454.149 
       0.227147          430.37         372.925         432.807 
        0.23329         412.663         357.502         418.967 
       0.239377         402.367         345.344         403.245 
       0.245482         376.402         333.789         385.467 
       0.251667         370.843         320.887         374.334 
       0.257832         355.976         306.167         357.002 
       0.263955         340.339         290.163         340.603 
       0.270079         323.999         273.893         325.864 
        0.27624         315.881         258.557         310.281 
       0.282372         302.838         245.195         299.094 
        0.28843         291.404         234.182         288.519 
       0.294538         277.203         225.022         279.154 
       0.300721         273.564         217.103         271.219 
        0.30691         260.767         209.786         263.893 
       0.313033         254.064         202.532         253.933 
       0.319153         243.632         194.961         245.659 
       0.325316         237.232         187.014         238.205 
        0.33145         227.848         179.045         228.464 
       0.337538         223.143         171.415          220.68 
       0.343633         214.822         164.339         215.904 
       0.349808         207.058         157.922          210.27 
       0.355968         203.444         152.237         205.082 
       0.362074         198.232         147.188         198.935 
       0.368217         192.155         142.473         192.098 
       0.374374         184.684         137.922         186.927 
       0.380519         181.749         133.426         181.434 
       0.386598         176.565         128.969         177.842 
       0.392688         173.366         124.546         172.339 
        0.39888         168.698         120.165         167.784 
       0.405048         163.746         116.005         164.361 
       0.411186         159.951         112.139         159.678 
       0.417313         156.289         108.559         155.185 
       0.423458         152.446         105.221         151.913 
       0.429607          148.91          102.09         148.603 
       0.435692         144.147         99.1324          144.68 
       0.441815         142.561         96.2429         142.432 
       0.447964           139.3         93.4101         139.035 
       0.454126         133.424         90.6359          134.78 
       0.460267         131.576         87.9417         133.232 
       0.466387         129.693         85.3523         130.038 
        0.47254         126.258         82.8674         127.307 
       0.478662         125.409         80.5194         124.721 
       0.484765         121.059         78.2945         121.281 
       0.490885         118.975         76.1717         119.424 
       0.497035         117.063         74.1321         117.458 
       0.503198         113.778         72.1646           115.1 
       0.509342         111.926          70.262         113.133 
       0.515458         110.026         68.4209         111.465 
       0.521598         107.826         66.6286         108.561 
       0.527764         106.317         64.8881         106.593 
       0.533884         104.603         63.2215         104.961 
           0.54         102.373         61.6174         102.874 
       0.546137         101.164         60.0696         101.489 
       0.552299         99.2379         58.5772         99.0907 
       0.558452         97.4551          57.145          97.243 
       0.564573         95.7345         55.7704         96.1674 
       0.570708         93.7996         54.4369         94.6686 
       0.576825         92.5283         53.1471         92.6325 
       0.582926         90.5422         51.8986         91.1584 
       0.589034         89.1417         50.6869         90.2075 
       0.595184         87.7688         49.5056         88.2896 
       0.601379         86.3948         48.3552         87.2795 
       0.607522         84.5837         47.2521         85.4464 
       0.613639         83.8869         46.1892         84.5686 
       0.619772         82.1665         45.1573         83.2152 
       0.625918         80.9285         44.1557         81.9494 
       0.632068         79.9375         43.1843         80.5837 
       0.638161          78.975         42.2511         79.7526 
         0.6443         77.9063         41.3389         78.4591 
       0.650464         76.9105         40.4504         76.7791 
       0.656582         75.4494         39.5942         76.1527 
       0.662703         74.3155         38.7625         74.8539 
       0.668861         73.1721         37.9498         74.0082 
       0.675024         72.1573         37.1598         72.8329 
       0.681124         71.4161         36.4004         71.8445 
       0.687237           69.97         35.6608         70.8722 
       0.693381         69.0087         34.9386         69.7692 
       0.699536         68.3503         34.2354         69.0836 
       0.705665         68.1272         33.5548          68.478 
       0.711789         66.4424         32.8936         67.2134 
       0.717957         65.9773         32.2459         66.4251 
        0.72409         64.8217         31.6193          65.879 
       0.730186          63.746         31.0134         65.0925 
       0.736317         63.4901           30.42         64.0373 
       0.742472         62.7308         29.8401         63.3339 
       0.748622         61.8764          29.276           62.49 
        0.75476         61.1767         28.7276         61.6533 
       0.760888         60.2692         28.1943         60.7876 
       0.767043         59.7562         27.6724         60.4265 
       0.773185         58.9507         27.1649         59.8499 
       0.779291         58.1993         26.6731         59.0599 
       0.785407         57.7567         26.1928         58.2158 
       0.791564         57.1734         25.7213         57.6599 
       0.797719         55.9944         25.2618         57.2527 
       0.803834          55.704         24.8165         56.3649 
       0.809972         54.7135         24.3803         55.7505 
       0.816124         54.3606         23.9538         55.2688 
       0.822261         53.8708         23.5387         54.5807 
       0.828378         53.4703         23.1347         53.8427 
       0.834502         52.8495         22.7399         53.3701 
       0.840667         52.1437         22.3518         53.0515 
       0.846816         51.4223         21.9738          52.448 
       0.852925         51.0075         21.6071         51.8719 
       0.859047         50.2697          21.248         51.2936 
       0.865192         49.9065         20.8959         50.8293 
       0.871341         49.5023         20.5516          50.254 
       0.877463         48.6762         20.2166         49.7862 
       0.883569         48.3976           19.89          49.494 
       0.889708         47.9662         19.5689         48.9223 
       0.895864         47.5083         19.2542         48.5218 
       0.902008         47.0296          18.947         47.9042 
       0.908149          46.618         18.6468         47.5491 
       0.914301         46.1251         18.3526         47.1801 
       0.920448         45.7733         18.0651         46.7171 
       0.926574         45.1691         17.7847         46.2177 
       0.932687         45.0272         17.5109         45.8348 
       0.938823         44.2931          17.242         45.3019 
       0.944975         43.8877          16.978         44.9407 
       0.951105         43.4745         16.7206         44.5713 
       0.957225         43.0019          16.469         44.1753 
       0.963368         42.8227         16.2217         43.7399 
       0.969511         42.4636         15.9795         43.3568 
       0.975621         42.1949         15.7436         43.1925 
       0.981748         41.6482         15.5119         42.8012 
       0.987916         41.1907         15.2834         42.4797 
        0.99406         40.9707         15.0603         41.9738 
        1.00019         40.5519         14.8422         41.5558 
        1.00632         40.2399         14.6286         41.2404 
        1.01246         39.9777          14.419         40.8702 
        1.01859         39.3957         14.2137         40.7215 
        1.02471         39.2072         14.0128         40.4495 
        1.03085         38.8807          13.815         39.9915 
        1.03698         38.5196         13.6215         39.6379 
        1.04314          38.217         13.4309         39.2971 
        1.04929         37.8756         13.2445         39.0738 
        1.05541         37.4566         13.0622         38.8837 
        1.06154         37.4117          12.883         38.5269 
        1.06769         36.9681         12.7069          38.209 
        1.07382         36.7928         12.5347         37.9447 
        1.07993         36.5148          12.366         37.6579 
        1.08607         36.2031         12.1998         37.3936 
        1.09222         35.9439         12.0364         37.0578 
        1.09836         35.5909         11.8763         36.7624 
        1.10449         35.3863         11.7192          36.538 
        1.11063         34.9795         11.5648         36.1471 
        1.11677         34.7519         11.4133         35.8781 
         1.1229         34.4617         11.2648         35.7602 
        1.12903         34.0145         11.1187         35.4662 
        1.13518         34.1248         10.9752         35.1945 
        1.14131         33.8478         10.8343         34.9351 
        1.14745          33.389         10.6959         34.7617 
        1.15359         33.2815         10.5599         34.4414 
        1.15973          32.869         10.4263         34.2779 
        1.16584         32.7136         10.2955         33.9163 
        1.17197         32.4801         10.1668         33.8077 
        1.17811         32.3201           10.04          33.542 
        1.18424         32.0161         9.91564         33.3327 
        1.19038         31.7633         9.79305         33.0777 
        1.19652         31.6821          9.6726          32.804 
        1.20267         31.3369         9.55417         32.6625 
        1.20881         31.1628         9.43776         32.4601 
        1.21495         30.8655         9.32347         32.2047 
        1.22108         30.7547          9.2111         32.0323 
         1.2272         30.3512         9.10085         31.8445 
        1.23334         30.2311         8.99216         31.6308 
        1.23949         30.2005         8.88499         31.3539 
        1.24562         29.7819         8.77986         31.1594 
        1.25174         29.6896          8.6766         31.0287 
        1.25789         29.5301         8.57468         30.8073 
        1.26402          29.257         8.47459         30.6019 
        1.27014         28.9948         8.37634         30.4784 
        1.27628          28.806         8.27935         30.2508 
        1.28244         28.6658         8.18372         30.0429 
        1.28858         28.5106         8.08972         29.8513 
        1.29471         28.3922         7.99741         29.7418 
        1.30084         28.2069         7.90663         29.5108 
        1.30697          27.958         7.81712         29.3125 
        1.31312         27.7559         7.72887         29.1693 
        1.31925         27.5977         7.64227         28.9707 
        1.32537         27.4338         7.55708         28.8444 
        1.33151         27.2066         7.47288           28.64 
        1.33765         27.0895         7.39002         28.4679 
        1.34378         26.9139         7.30859         28.3374 
        1.34992         26.7296         7.22832         28.1587 
        1.35606         26.5702         7.14909         27.9963 
         1.3622         26.4072         7.07119         27.8574 
        1.36833         26.1891         6.99464          27.738 
        1.37445         26.0938         6.91926         27.5679 
        1.38059         25.9087         6.84477         27.4222 
        1.38675         25.6764         6.77119         27.2553 
        1.39288         25.6461         6.69898         27.1139 
        1.39901         25.4423         6.62787         26.9444 
        1.40515         25.2572         6.55762         26.8225 
         1.4113         25.1252         6.48842         26.6744 
        1.41742         24.9973         6.42049         26.4683 
        1.42355         24.8205          6.3534         26.3785 
         1.4297         24.7051         6.28707         26.2005 
        1.43585         24.6141         6.22171         26.0858 
        1.44198         24.3236         6.15753          25.957 
        1.44809          24.272         6.09438         25.7856 
        1.45423         24.1223         6.03188         25.6409 
        1.46036         24.0231         5.97038         25.5192 
        1.46649         23.8556         5.90971         25.4162 
        1.47263         23.6926         5.84983         25.3038 
        1.47877         23.5949         5.79081         25.1431 
        1.48491         23.5758         5.73252         25.0211 
        1.49104         23.3004         5.67515         24.9023 
        1.49718         23.0903         5.61852         24.7844 
        1.50333         23.0982         5.56258         24.6298 
        1.50947         22.9581         5.50751         24.4981 
         1.5156         22.8076         5.45327         24.3956 
        1.52172         22.6957         5.39976         24.2836 
        1.52787         22.5906         5.34686         24.1564 
          1.534         22.4667         5.29473         24.0272 
        1.54013         22.2822         5.24335         23.8865 
        1.54627         22.2236         5.19256         23.7668 
        1.55241         21.9926         5.14243         23.6671 
        1.55855         21.9538         5.09303         23.5519 
        1.56467         21.7264         5.04442         23.4607 
         1.5708         21.7747         4.99631          23.346 
        1.57695         21.5656         4.94876         23.2235 
        1.58308         21.4412         4.90193         23.1204 
        1.58922         21.3788         4.85567         23.0008 
        1.59535         21.2651         4.81003         22.8922 
         1.6015         21.0933         4.76492         22.7642 
        1.60764          20.957          4.7204         22.6516 
        1.61376         20.8632         4.67658         22.5787 
        1.61989          20.739         4.63328         22.4762 
        1.62604         20.6705         4.59043         22.3629 
        1.63218         20.6198         4.54814         22.2658 
        1.63831         20.4288         4.50649         22.1794 
        1.64444         20.3507         4.46535         22.0676 
        1.65059          20.248         4.42462         21.9491 
        1.65673         20.0997         4.38444         21.8598 
        1.66285         20.0479         4.34488         21.7876 
        1.66898         19.9266         4.30578          21.693 
        1.67512         19.8319          4.2671         21.5668 
        1.68127         19.6958         4.22885         21.4666 
         1.6874         19.5748         4.19116         21.3705 
        1.69353         19.5302         4.15395          21.241 
        1.69967         19.4101          4.1171         21.1661 
        1.70581         19.3302         4.08072         21.1015 
        1.71193          19.245         4.04491         21.0125 
        1.71806         19.0899         4.00946         20.9105 
        1.72421          18.988         3.97436         20.8151 
        1.73035         18.8935         3.93972         20.7466 
        1.73649         18.8194          3.9055         20.6753 
        1.74262          18.724         3.87171         20.5381 
        1.74876         18.6668         3.83831         20.4213 
        1.75489         18.5654         3.80536         20.3585 
        1.76101         18.4507         3.77282         20.3091 
        1.76715         18.3788          3.7406         20.2036 
        1.77329         18.3149         3.70873         20.1001 
        1.77943         18.2153         3.67721         20.0153 
        1.78557         18.0722         3.64611         19.9273 
        1.79171          17.984         3.61536          19.848 
        1.79785         17.8997         3.58496         19.7773 
        1.80399         17.8761         3.55491         19.7042 
        1.81012         17.7469         3.52525         19.6159 
        1.81625         17.7027         3.49594         19.5237 
        1.82239         17.5882         3.46692         19.4479 
        1.82853         17.5014         3.43824         19.3889 
        1.83466         17.4288         3.40992         19.3058 
        1.84078         17.2719         3.38194         19.2022 
        1.84692         17.2353         3.35423         19.1214 
        1.85306         17.1576          3.3268         19.0638 
         1.8592         17.0596         3.29971         18.9977 
        1.86533         16.9765         3.27294         18.9076 
        1.87147         16.9344         3.24644         18.8222 
        1.87761         16.8488         3.22022         18.7459 
