# k  (h/Mpc)    Pcb(k)  (Mpc/h)^3    Pcb_linear(k) (Mpc/h)^3    Pcb_NL(k) (Mpc/h)^3   ShotnoiseSubtracted = false
     0.00783031         19999.9         20310.1         20216.1 
       0.013688         25700.3         25419.1         25230.5 
       0.019231         26107.8         26080.5         25814.9 
      0.0249154           23761         24402.5         24100.4 
      0.0312784         20958.2         21311.1         20978.9 
      0.0375637         18092.1         18163.4           17864 
      0.0433917         15328.8         15717.6           15404 
      0.0492413         13720.3         13880.8         13590.4 
      0.0555754         12019.7           12515         12259.8 
      0.0619321         11546.2         11583.3         11335.3 
       0.067871           10473         10890.7         10656.3 
      0.0738098         9801.24         10200.5         9843.47 
      0.0800417         8880.98         9381.39         9054.02 
      0.0862327         8139.53         8467.86          8277.4 
      0.0921407         7458.31         7566.95         7422.22 
      0.0982031         6609.63         6701.64         6721.19 
       0.104506         6121.55         5943.77         6101.89 
       0.110769         5575.93         5371.31         5496.95 
       0.116806          5209.7         4982.85         5106.38 
       0.122832         4936.91         4717.53         4851.54 
       0.129052         4597.34         4516.59         4630.67 
       0.135211         4401.71         4334.31         4417.77 
       0.141259         4266.26         4130.75         4253.41 
       0.147318         4059.54         3884.97         4051.05 
       0.153489         3734.46         3598.06         3727.17 
       0.159709          3530.2         3296.06         3516.97 
       0.165845          3389.8         3014.89         3358.65 
       0.171974         3184.08         2774.05         3153.16 
       0.178125         3016.23         2583.85         3038.17 
       0.184229         2862.12         2444.78         2870.46 
        0.19034         2735.35            2344         2754.53 
       0.196428         2680.15         2265.43         2644.91 
       0.202534         2578.53          2191.6         2567.66 
       0.208729         2479.93         2108.44         2446.27 
       0.214876         2400.63         2011.45         2395.12 
       0.220989         2318.94         1902.03         2329.13 
       0.227147          2228.7         1785.77         2258.36 
        0.23329         2140.42         1673.06         2188.14 
       0.239377         2110.54         1572.73         2099.47 
       0.245482          1986.9         1488.17         2005.92 
       0.251667         1975.03         1419.72         1952.29 
       0.257832         1897.54         1366.01         1885.78 
       0.263955          1835.5         1321.97         1832.89 
       0.270079         1777.79         1281.55          1783.8 
        0.27624         1755.04         1239.87         1734.55 
       0.282372         1686.19         1194.55         1711.79 
        0.28843         1686.85         1145.73         1682.13 
       0.294538         1609.86         1094.01         1635.18 
       0.300721         1594.11         1041.92         1587.66 
        0.30691         1541.34         992.906         1567.18 
       0.313033         1507.97         949.577         1516.82 
       0.319153         1492.53         912.244         1471.31 
       0.325316         1442.54         880.231         1447.32 
        0.33145          1414.6         852.613          1396.9 
       0.337538          1384.7         827.607         1376.85 
       0.343633         1362.18         803.287         1360.97 
       0.349808         1321.32         778.202         1342.81 
       0.355968         1309.13         752.162         1320.94 
       0.362074         1299.88          725.65         1299.23 
       0.368217            1257         698.891         1271.26 
       0.374374          1218.4         672.963            1247 
       0.380519         1221.41         648.738         1224.35 
       0.386598         1184.66         626.847          1205.6 
       0.392688         1178.38          607.13         1182.63 
        0.39888         1146.65         588.973         1161.71 
       0.405048         1138.08         572.326          1141.2 
       0.411186         1120.53         556.588         1125.16 
       0.417313         1096.85         541.168          1113.2 
       0.423458         1078.61         525.752         1092.31 
       0.429607         1067.33         510.272          1077.2 
       0.435692         1047.93         495.012         1054.65 
       0.441815         1037.71          479.99         1052.49 
       0.447964         1017.49         465.502            1041 
       0.454126         1012.45         451.756            1011 
       0.460267         987.416         438.965         1008.72 
       0.466387         972.421         427.095          991.08 
        0.47254         975.774          415.88         976.967 
       0.478662         958.343         405.274         964.481 
       0.484765         935.672         395.095         955.612 
       0.490885         930.439         385.125         937.404 
       0.497035         910.035         375.245         930.346 
       0.503198          905.49         365.499         920.876 
       0.509342         893.714         355.999         904.312 
       0.515458         889.889         346.809         898.335 
       0.521598         869.772          337.91         890.535 
       0.527764         855.315         329.361          882.28 
       0.533884         851.763         321.296         872.606 
           0.54         847.549         313.623         863.086 
       0.546137         833.865         306.244          853.87 
       0.552299         826.672         299.102         842.355 
       0.558452         817.096         292.195         836.197 
       0.564573         808.074         285.511         828.292 
       0.570708         799.802          278.97         816.994 
       0.576825         781.208          272.59         807.935 
       0.582926         784.456         266.382         802.986 
       0.589034          774.23         260.346         791.372 
       0.595184         767.948         254.475          784.15 
       0.601379         758.357          248.78         777.655 
       0.607522         746.861         243.338         765.731 
       0.613639          746.07         238.104         763.051 
       0.619772         733.993         233.026         760.508 
       0.625918         727.205         228.094         751.255 
       0.632068         719.101         223.304         747.724 
       0.638161         714.892          218.69         735.215 
         0.6443          704.24         214.163         729.241 
       0.650464         702.607         209.733         721.635 
       0.656582         694.321         205.447         717.209 
       0.662703         692.263         201.272         711.487 
       0.668861         681.129         197.189         708.692 
       0.675024         674.276         193.223         704.071 
       0.681124         670.622         189.418         694.081 
       0.687237         665.988         185.721         687.906 
       0.693381          657.78         182.112         681.368 
       0.699536         645.494         178.598         676.881 
       0.705665         646.295         175.192         669.013 
       0.711789         641.609         171.874         663.428 
       0.717957         635.665         168.614         662.876 
        0.72409         631.989         165.452         656.173 
       0.730186         623.097         162.387         649.033 
       0.736317         620.917         159.383         645.104 
       0.742472         614.825         156.445         641.625 
       0.748622         609.023         153.586         634.712 
        0.75476         599.468         150.808         634.526 
       0.760888         596.052         148.106          628.06 
       0.767043         593.314         145.462         619.275 
       0.773185          588.54          142.89         615.748 
       0.779291         583.411         140.395         610.866 
       0.785407         577.149         137.957         607.182 
       0.791564         572.194         135.561         606.035 
       0.797719         570.771         133.223         600.331 
       0.803834         562.832         130.954         595.823 
       0.809972         560.171         128.729         592.162 
       0.816124         558.631         126.551         585.755 
       0.822261         549.871         124.429         582.571 
       0.828378         547.579         122.362          578.57 
       0.834502         541.634         120.341          576.65 
       0.840667         536.776         118.354         572.591 
       0.846816         533.536         116.417         567.857 
       0.852925         530.386         114.536         564.373 
       0.859047          528.57         112.694         558.522 
       0.865192         520.575         110.887         555.637 
       0.871341         516.985         109.118         551.814 
       0.877463         515.908         107.397         548.901 
       0.883569         510.391         105.717         545.975 
       0.889708         508.301         104.065          540.66 
       0.895864         506.218         102.445         537.717 
       0.902008         501.653         100.862         534.131 
       0.908149         493.509         99.3135         528.577 
       0.914301         492.694         97.7954         524.502 
       0.920448         489.967         96.3106         523.953 
       0.926574         482.554         94.8619         520.623 
       0.932687         480.632         93.4462         515.375 
       0.938823         476.246         92.0546         514.025 
       0.944975         474.904         90.6882         510.929 
       0.951105         470.982         89.3546         506.879 
       0.957225         466.906         88.0503         504.085 
       0.963368         461.848         86.7678         500.664 
       0.969511          460.76         85.5109         497.564 
       0.975621         457.349         84.2859         494.386 
       0.981748         453.146         83.0819          491.58 
       0.987916         450.614         81.8939         489.145 
        0.99406         444.589         80.7339         485.821 
        1.00019         442.937         79.5987          481.67 
        1.00632         440.393         78.4866         478.604 
        1.01246         436.663         77.3942         476.154 
        1.01859         434.922         76.3245         472.821 
        1.02471         430.658         75.2765         470.042 
        1.03085         428.004         74.2446         468.739 
        1.03698         425.202         73.2344         466.769 
        1.04314         421.786         72.2387         463.059 
        1.04929         418.048          71.264          458.92 
        1.05541         418.341         70.3113         456.026 
        1.06154         412.275         69.3738         453.737 
        1.06769         410.215          68.452         450.384 
        1.07382         406.535         67.5501         447.603 
        1.07993         404.174         66.6665         445.365 
        1.08607         403.277         65.7952          442.55 
        1.09222         397.873         64.9387         439.889 
        1.09836         394.644         64.0985         438.165 
        1.10449         393.266         63.2742         436.423 
        1.11063         387.169         62.4636         432.253 
        1.11677         388.283         61.6675         430.499 
         1.1229         385.183         60.8867         427.459 
        1.12903         382.446         60.1189         424.977 
        1.13518         378.199         59.3636          421.54 
        1.14131         376.454         58.6219         420.608 
        1.14745         373.031         57.8932         416.678 
        1.15359         371.389         57.1769         416.035 
        1.15973         369.046         56.4724         413.043 
        1.16584         366.089          55.783         411.347 
        1.17197         364.225         55.1041         409.003 
        1.17811         361.281         54.4345         405.868 
        1.18424         357.865         53.7781          403.81 
        1.19038         356.146         53.1306         402.213 
        1.19652         354.005         52.4941         398.776 
        1.20267         352.252          51.868         397.169 
        1.20881         349.115         51.2524         395.056 
        1.21495         346.819         50.6477         392.513 
        1.22108          344.13         50.0529         389.884 
         1.2272         342.295         49.4692         388.973 
        1.23334         340.315         48.8934          385.97 
        1.23949         336.486         48.3255         383.639 
        1.24562         334.471         47.7682         381.583 
        1.25174          333.23         47.2205         379.668 
        1.25789         329.409         46.6798         377.445 
        1.26402         327.966         46.1486         375.993 
        1.27014         325.146          45.627         373.176 
        1.27628         322.407         45.1119         372.113 
        1.28244          322.61         44.6038         370.334 
        1.28858         319.005         44.1043         368.035 
        1.29471         318.025         43.6135         365.656 
        1.30084         314.837         43.1307         362.997 
        1.30697         313.998         42.6545         361.774 
        1.31312         310.386         42.1849         360.146 
        1.31925         308.404         41.7238          357.75 
        1.32537         307.278         41.2701         355.408 
        1.33151         304.534         40.8215         354.166 
        1.33765         301.873         40.3799          352.55 
        1.34378         301.005         39.9457         349.688 
        1.34992         298.727         39.5176         348.038 
        1.35606          296.37         39.0949         346.006 
         1.3622         294.433         38.6791         344.907 
        1.36833         293.191         38.2704         343.642 
        1.37445         290.633         37.8678         340.805 
        1.38059         288.992         37.4698         339.639 
        1.38675         286.593         37.0765         338.158 
        1.39288         285.092         36.6905          336.11 
        1.39901         283.082         36.3101         333.826 
        1.40515         281.759         35.9343         331.744 
         1.4113         279.245          35.564         329.857 
        1.41742          277.29         35.2003         328.303 
        1.42355         275.631         34.8411         326.989 
         1.4297         273.718         34.4858         324.445 
        1.43585         272.281         34.1356         323.925 
        1.44198             271         33.7916         321.795 
        1.44809         267.577          33.453         320.072 
        1.45423         266.185         33.1178          317.84 
        1.46036         264.815         32.7878         316.538 
        1.46649         263.543         32.4623         315.049 
        1.47263         261.675         32.1409         312.851 
        1.47877         259.544         31.8239         311.122 
        1.48491         257.177         31.5108         309.292 
        1.49104         255.998         31.2026         307.881 
        1.49718         254.166         30.8983         307.537 
        1.50333         253.053         30.5975         304.996 
        1.50947         251.139         30.3014         303.082 
         1.5156         248.897         30.0096          302.28 
        1.52172         248.225         29.7217         300.881 
        1.52787         246.072          29.437         299.109 
          1.534         245.186         29.1564         297.407 
        1.54013         242.719         28.8798         296.094 
        1.54627         241.582         28.6062         294.896 
        1.55241          239.91         28.3362         293.575 
        1.55855         237.219           28.07         292.077 
        1.56467         237.338          27.808          290.02 
         1.5708         235.086         27.5487         288.354 
        1.57695         233.064         27.2922         286.976 
        1.58308         231.962         27.0396         285.384 
        1.58922         229.898           26.79         284.102 
        1.59535          228.81         26.5437         282.934 
         1.6015         226.972         26.3002         282.048 
        1.60764         225.791         26.0598         280.428 
        1.61376         224.394         25.8231         278.241 
        1.61989         222.812         25.5891          277.15 
        1.62604         221.129         25.3576         275.749 
        1.63218         220.068          25.129         274.331 
        1.63831         218.591         24.9038         273.076 
        1.64444         216.941         24.6812         271.591 
        1.65059         216.001         24.4609         270.613 
        1.65673         214.126         24.2435         269.447 
        1.66285         212.723         24.0293         267.813 
        1.66898         211.467         23.8177          266.12 
        1.67512         210.338         23.6082         265.005 
        1.68127         208.298          23.401         263.725 
         1.6874         207.407         23.1968         262.457 
        1.69353         205.966         22.9951         261.629 
        1.69967         204.609         22.7954         260.215 
        1.70581         203.278         22.5981         258.762 
        1.71193         201.859          22.404         257.504 
        1.71806         200.876         22.2117          256.09 
        1.72421         199.219         22.0212         254.779 
        1.73035         198.544         21.8333         253.577 
        1.73649         197.256         21.6475         252.339 
        1.74262         195.289         21.4641         250.988 
        1.74876          194.16         21.2827         249.835 
        1.75489         193.287         21.1037         248.944 
        1.76101          191.74         20.9269         248.008 
        1.76715         190.636         20.7519         246.579 
        1.77329         189.577         20.5786         245.546 
        1.77943         188.123         20.4073          244.54 
        1.78557         186.682         20.2381         242.952 
        1.79171         186.016         20.0709         241.725 
        1.79785         184.351         19.9055         240.718 
        1.80399         183.382          19.742         239.467 
        1.81012           182.1         19.5805         238.617 
        1.81625         180.977          19.421         237.651 
        1.82239         179.838          19.263         236.335 
        1.82853         178.801         19.1068         235.235 
        1.83466         177.862         18.9525         234.108 
        1.84078         176.542            18.8          232.96 
        1.84692         175.559          18.649         232.036 
        1.85306         174.222         18.4995         230.912 
         1.8592         173.357         18.3519         229.702 
        1.86533         172.304         18.2059         228.717 
        1.87147         171.354         18.0614         227.603 
