# k  (h/Mpc)    Pcb(k)  (Mpc/h)^3    Pcb_linear(k) (Mpc/h)^3    Pcb_NL(k) (Mpc/h)^3   ShotnoiseSubtracted = false
     0.00783031         3314.71         3350.35         3338.07 
       0.013688         4204.49         4195.58         4176.71 
       0.019231         4310.37         4305.86         4282.24 
      0.0249154         3991.59         4029.43         4011.29 
      0.0312784         3508.58         3519.33          3508.4 
      0.0375637         3007.61          2999.7          2991.6 
      0.0433917         2583.61         2595.87          2589.6 
      0.0492413         2293.33         2292.59         2287.62 
      0.0555754         2048.08         2067.06         2062.09 
      0.0619321         1925.55         1913.21         1907.98 
       0.067871         1785.52         1798.83         1792.84 
      0.0738098         1670.15         1684.85         1674.73 
      0.0800417         1527.97         1549.57         1540.24 
      0.0862327         1387.59         1398.69            1394 
      0.0921407         1248.68         1249.88         1247.13 
      0.0982031         1101.95         1106.96         1110.19 
       0.104506         993.967         981.782         989.836 
       0.110769          898.99         887.227         893.354 
       0.116806         829.067         823.065         828.892 
       0.122832         789.656         779.241         785.555 
       0.129052         747.217         746.051         751.112 
       0.135211         716.425         715.945         720.345 
       0.141259         687.754          682.32         687.558 
       0.147318         650.368         641.724         649.735 
       0.153489         599.556         594.333         599.974 
       0.159709         554.563         544.448         553.673 
       0.165845          516.06         498.005         512.888 
       0.171974         473.159         458.224         473.253 
       0.178125         444.172         426.807         445.179 
       0.184229         422.696         403.835         421.723 
        0.19034         397.852         387.187         403.893 
       0.196428         390.051         374.209         387.846 
       0.202534         380.732         362.014         375.576 
       0.208729         363.571         348.277         360.848 
       0.214876         344.488         332.257         348.122 
       0.220989         331.587         314.183         331.469 
       0.227147         309.597         294.979         313.027 
        0.23329         292.848         276.362         297.322 
       0.239377         280.077         259.788          281.95 
       0.245482         261.665          245.82         266.481 
       0.251667         255.188         234.514         256.513 
       0.257832          246.25         225.642         246.732 
       0.263955         237.899         218.367         238.325 
       0.270079         230.406         211.691         230.963 
        0.27624         226.042         204.807         223.106 
       0.282372         217.595          197.32         216.321 
        0.28843         208.777         189.256         208.601 
       0.294538         199.688         180.713         201.087 
       0.300721         194.751         172.108          193.83 
        0.30691         184.978         164.012         186.374 
       0.313033          178.86         156.855         178.709 
       0.319153         170.452         150.688         172.986 
       0.325316         167.149           145.4         168.026 
        0.33145          161.27         140.838         162.192 
       0.337538         158.218         136.707         157.429 
       0.343633         153.131          132.69          153.84 
       0.349808         148.703         128.546         150.076 
       0.355968         145.113         124.245         146.672 
       0.362074         140.556         119.866         142.063 
       0.368217         136.279         115.446         136.861 
       0.374374         131.982         111.163         133.186 
       0.380519         128.573         107.161         128.946 
       0.386598         124.937         103.545         125.476 
       0.392688          122.48         100.288         122.312 
        0.39888         119.102          97.289         118.719 
       0.405048         116.355         94.5391         116.038 
       0.411186         113.725         91.9396         113.793 
       0.417313         110.546         89.3924         110.359 
       0.423458         107.931         86.8458          108.04 
       0.429607         105.087         84.2889           105.4 
       0.435692         101.729         81.7681         103.033 
       0.441815         100.507         79.2868         101.254 
       0.447964         98.6538         76.8936          98.415 
       0.454126         94.3436         74.6229         95.6683 
       0.460267         92.9868         72.5101         94.0757 
       0.466387         90.9111         70.5493         91.6854 
        0.47254         89.3569         68.6968         89.9593 
       0.478662         87.9647         66.9449         88.0165 
       0.484765         85.5155         65.2635         85.8124 
       0.490885         83.8155         63.6165         84.6167 
       0.497035         82.6069         61.9845          83.186 
       0.503198         80.3757         60.3747         81.1905 
       0.509342          78.457         58.8055         79.8081 
       0.515458         77.1094         57.2875         78.7571 
       0.521598         75.9426         55.8174         76.5178 
       0.527764         74.5562         54.4052         74.6109 
       0.533884         73.2375          53.073         73.3738 
           0.54         71.7359         51.8056         72.1124 
       0.546137         70.8168         50.5866         71.1114 
       0.552299         69.7227         49.4069          69.412 
       0.558452          67.789          48.266         68.0725 
       0.564573         66.5981          47.162         67.2714 
       0.570708         65.7682         46.0814         66.0961 
       0.576825         64.4233         45.0277         64.9103 
       0.582926         63.1541         44.0021          63.804 
       0.589034         61.6912         43.0051         62.9866 
       0.595184           60.92         42.0354         61.7533 
       0.601379         60.0577         41.0946         60.9453 
       0.607522         58.6142         40.1956         59.5477 
       0.613639         58.3542          39.331          58.749 
       0.619772         56.9033         38.4922         57.7561 
       0.625918         56.4778         37.6776         57.1458 
       0.632068         55.6584         36.8863         56.0196 
       0.638161         54.7067         36.1242         55.2681 
         0.6443          53.794         35.3764         54.2717 
       0.650464         52.9213         34.6447         53.4488 
       0.656582         52.4531         33.9367         52.8397 
       0.662703          51.382          33.247         51.8543 
       0.668861         50.6693         32.5726         51.2828 
       0.675024         49.8923         31.9175         50.3716 
       0.681124         49.0588          31.289         49.6385 
       0.687237         48.1986         30.6782         48.9155 
       0.693381         47.8144         30.0821         48.1771 
       0.699536         46.8254         29.5016         47.8033 
       0.705665         46.9155          28.939          47.179 
       0.711789          45.662         28.3909         46.1965 
       0.717957         45.1952         27.8524          45.816 
        0.72409         44.5674         27.3301         45.3206 
       0.730186         43.8642         26.8239         44.6352 
       0.736317         43.5632         26.3276         43.9868 
       0.742472         42.8011         25.8422         43.5045 
       0.748622          42.425           25.37         42.8407 
        0.75476         41.8075         24.9111         42.3598 
       0.760888         41.1646         24.4648         41.8595 
       0.767043         40.7032          24.028         41.4717 
       0.773185         40.0876         23.6031         40.9447 
       0.779291         39.8975         23.1911         40.5009 
       0.785407         39.4878         22.7884         39.9045 
       0.791564          38.762         22.3926         39.4274 
       0.797719         38.0362         22.0063         39.0635 
       0.803834         37.9572         21.6315          38.503 
       0.809972         37.4273          21.264           38.11 
       0.816124          36.721         20.9042         37.6732 
       0.822261         36.5063         20.5537         37.1504 
       0.828378         36.1979         20.2124         36.6684 
       0.834502         35.7605         19.8785         36.5039 
       0.840667         35.3719         19.5502         35.9939 
       0.846816         34.8068         19.2303         35.6264 
       0.852925          34.509         18.9197          35.423 
       0.859047         34.0696         18.6153         34.8536 
       0.865192         33.7582         18.3168         34.4867 
       0.871341         33.5737         18.0247         34.2057 
       0.877463         32.9014         17.7403         33.8305 
       0.883569         32.5935         17.4629         33.5594 
       0.889708          32.283           17.19         33.1139 
       0.895864         31.9853         16.9223          32.747 
       0.902008         31.7204         16.6608         32.4699 
       0.908149         31.3902         16.4051         32.2256 
       0.914301         31.2436         16.1543         31.9788 
       0.920448         30.6535          15.909         31.5445 
       0.926574         30.4499         15.6697         31.1898 
       0.932687         30.1068         15.4359         30.9161 
       0.938823         29.7119          15.206         30.5906 
       0.944975         29.5199         14.9803         30.2869 
       0.951105         29.2393           14.76         30.0099 
       0.957225          28.892         14.5446         29.7603 
       0.963368         28.7418         14.3327         29.4467 
       0.969511         28.4775         14.1251         29.1707 
       0.975621          28.248         13.9227         28.9581 
       0.981748         27.8425         13.7238         28.7314 
       0.987916         27.6711         13.5276         28.4042 
        0.99406         27.4027          13.336          28.173 
        1.00019         27.0536         13.1485         27.9118 
        1.00632         26.9269         12.9648         27.7114 
        1.01246         26.7242         12.7843         27.5123 
        1.01859         26.3293         12.6076         27.2597 
        1.02471         26.2755         12.4345         26.9984 
        1.03085         26.0183         12.2641         26.7629 
        1.03698         25.6053         12.0972           26.53 
        1.04314         25.4372         11.9327         26.2514 
        1.04929         25.2092         11.7717         26.1148 
        1.05541         24.9428         11.6143         25.9828 
        1.06154         24.8222         11.4595         25.6429 
        1.06769         24.6312         11.3072         25.4151 
        1.07382         24.3992         11.1582         25.2782 
        1.07993          24.281         11.0123         25.0362 
        1.08607         23.9407         10.8684         24.8529 
        1.09222         23.8303         10.7269         24.7096 
        1.09836         23.5441         10.5881         24.4848 
        1.10449          23.428         10.4519         24.2532 
        1.11063         23.1127          10.318         24.1134 
        1.11677         23.0369         10.1865         23.8888 
         1.1229         22.9287         10.0576         23.7206 
        1.12903         22.6085         9.93071         23.5511 
        1.13518         22.4175         9.80596         23.3173 
        1.14131         22.3499         9.68343         23.1712 
        1.14745         22.1498         9.56307         23.0243 
        1.15359         22.0325         9.44474         22.8408 
        1.15973         21.7879         9.32837         22.6936 
        1.16584         21.5318         9.21449         22.5446 
        1.17197         21.5551         9.10235         22.4112 
        1.17811         21.2511         8.99175         22.1258 
        1.18424         21.0683         8.88331          22.036 
        1.19038         21.0131         8.77636         21.9223 
        1.19652         20.8591         8.67122         21.7044 
        1.20267         20.6798          8.5678         21.5711 
        1.20881         20.5441          8.4661         21.4539 
        1.21495         20.3914         8.36622         21.3186 
        1.22108         20.2234         8.26798         21.1426 
         1.2272         20.0067         8.17155         20.9989 
        1.23334         19.9201         8.07644          20.895 
        1.23949         19.7421         7.98263         20.6992 
        1.24562         19.6651         7.89057         20.5657 
        1.25174         19.5522         7.80011         20.4504 
        1.25789         19.3936         7.71079         20.3049 
        1.26402         19.3128         7.62304         20.1448 
        1.27014         19.0909         7.53688         20.0373 
        1.27628         18.9263         7.45179         19.8795 
        1.28244         18.8584         7.36787         19.8252 
        1.28858         18.7823         7.28535         19.6478 
        1.29471          18.604         7.20428         19.5129 
        1.30084         18.4547         7.12453         19.4569 
        1.30697          18.329         7.04587         19.2917 
        1.31312         18.1643         6.96829         19.1519 
        1.31925         18.0494         6.89213         19.0781 
        1.32537         18.0033         6.81718         18.9763 
        1.33151         17.8254         6.74309         18.8368 
        1.33765         17.7544         6.67014         18.7184 
        1.34378         17.6551         6.59842         18.6106 
        1.34992         17.4332         6.52771         18.5124 
        1.35606         17.4011         6.45788         18.3727 
         1.3622         17.2939          6.3892           18.27 
        1.36833         17.1403         6.32168         18.1979 
        1.37445         17.0976         6.25518         18.0446 
        1.38059         16.9694         6.18943         17.9183 
        1.38675         16.7882         6.12447         17.8552 
        1.39288         16.7437          6.0607         17.7326 
        1.39901         16.6076         5.99788         17.6405 
        1.40515         16.5362          5.9358         17.5431 
         1.4113         16.4039         5.87463          17.448 
        1.41742          16.276         5.81456         17.3592 
        1.42355         16.2195         5.75521         17.2248 
         1.4297         16.1288         5.69652         17.1423 
        1.43585         16.0688         5.63867         17.0789 
        1.44198         15.9028         5.58185         16.9738 
        1.44809         15.8358         5.52592         16.8943 
        1.45423         15.7335         5.47056         16.7734 
        1.46036         15.6656         5.41605         16.6668 
        1.46649         15.5753         5.36227         16.5918 
        1.47263          15.442         5.30918         16.5336 
        1.47877         15.3677         5.25683         16.4566 
        1.48491          15.288         5.20511         16.3033 
        1.49104         15.2351         5.15419         16.2376 
        1.49718         15.1021         5.10392         16.1779 
        1.50333         15.0334         5.05424         16.0882 
        1.50947         14.9607         5.00533         16.0134 
         1.5156         14.8316         4.95713         15.9294 
        1.52172         14.7446         4.90958         15.8193 
        1.52787         14.6903         4.86255         15.7399 
          1.534          14.589          4.8162         15.6643 
        1.54013         14.4759          4.7705         15.5496 
        1.54627          14.412         4.72531         15.4637 
        1.55241         14.3329         4.68071         15.4152 
        1.55855         14.2589         4.63674         15.3437 
        1.56467         14.1773         4.59346         15.2626 
         1.5708          14.147         4.55062         15.2019 
        1.57695         14.0073         4.50825         15.1285 
        1.58308         13.9707         4.46653         15.0523 
        1.58922         13.8912         4.42531         14.9994 
        1.59535         13.8158         4.38462         14.9164 
         1.6015         13.7198         4.34439         14.8362 
        1.60764         13.6585         4.30468         14.7544 
        1.61376         13.6048         4.26558         14.6701 
        1.61989         13.4752         4.22693         14.6276 
        1.62604         13.4686         4.18868          14.579 
        1.63218         13.3668         4.15093         14.5004 
        1.63831         13.3236         4.11373          14.424 
        1.64444         13.2023         4.07696         14.3698 
        1.65059         13.1457         4.04057         14.2783 
        1.65673         13.1133         4.00465         14.2231 
        1.66285         12.9891         3.96928         14.1711 
        1.66898         12.9672         3.93432         14.0775 
        1.67512         12.9067         3.89971         14.0093 
        1.68127         12.8175         3.86549         13.9476 
         1.6874         12.7465         3.83176         13.8794 
        1.69353         12.6903         3.79845         13.8147 
        1.69967         12.6147         3.76546         13.7688 
        1.70581         12.5518         3.73287         13.7201 
        1.71193         12.4768         3.70079         13.6566 
        1.71806         12.4405         3.66903         13.5897 
        1.72421         12.3563         3.63757          13.543 
        1.73035         12.3199         3.60652         13.4821 
        1.73649         12.2477         3.57584         13.4051 
        1.74262         12.2115         3.54554         13.3573 
        1.74876         12.1408         3.51558         13.2931 
        1.75489         12.0849         3.48602         13.2168 
        1.76101          11.992         3.45681         13.1587 
        1.76715         11.9941         3.42789         13.1261 
        1.77329         11.8928         3.39927         13.0609 
        1.77943         11.8319         3.37097         12.9928 
        1.78557         11.7883         3.34303         12.9614 
        1.79171         11.7535          3.3154         12.9005 
        1.79785         11.6594         3.28808         12.8301 
        1.80399         11.6134         3.26107         12.7923 
        1.81012         11.5703         3.23441         12.7359 
        1.81625         11.4976         3.20805         12.6888 
        1.82239         11.4566         3.18195         12.6538 
        1.82853         11.3663         3.15615         12.5851 
        1.83466         11.3284         3.13066         12.5287 
        1.84078         11.2468         3.10548         12.4878 
        1.84692         11.2347         3.08054         12.4236 
        1.85306         11.1671         3.05584         12.3737 
         1.8592         11.1224         3.03145         12.3352 
        1.86533         11.0766         3.00734         12.2784 
        1.87147         11.0209         2.98347         12.2258 
