# k  (h/Mpc)    P(k)  (Mpc/h)^3    P_linear(k)  (Mpc/h)^3     P_NL(k)  ShotnoiseSubtracted = false
     0.00783031         4561.41         4612.82         4595.86 
       0.013688         5795.41            5776         5748.87 
       0.019231         5935.35         5927.59         5893.01 
      0.0249154         5485.57         5546.92         5518.68 
      0.0312784          4824.7         4844.64         4825.01 
      0.0375637         4139.19          4129.3         4113.74 
      0.0433917         3550.11         3573.37         3559.84 
      0.0492413         3154.35         3155.87         3144.45 
      0.0555754         2811.23         2845.41         2834.63 
      0.0619321         2650.73         2633.62         2622.64 
       0.067871         2451.58         2476.18         2464.54 
      0.0738098         2293.12         2319.27         2300.14 
      0.0800417         2095.61         2133.04          2115.4 
      0.0862327         1905.21         1925.35         1916.25 
      0.0921407         1717.62         1720.52         1714.63 
      0.0982031         1515.49         1523.77         1528.83 
       0.104506         1371.67         1351.46          1365.4 
       0.110769         1241.26          1221.3         1231.72 
       0.116806         1145.15         1132.98         1143.03 
       0.122832         1090.92         1072.65         1083.69 
       0.129052         1029.92         1026.97         1035.88 
       0.135211         987.734         985.523         993.215 
       0.141259         949.373         939.237         948.607 
       0.147318         898.244         883.355         897.642 
       0.153489         827.506         818.121         828.076 
       0.159709         767.843         749.451         765.975 
       0.165845         716.844         685.522         712.313 
       0.171974         658.804         630.761         658.034 
       0.178125         619.262         587.515         620.964 
       0.184229         589.802         555.893         588.287 
        0.19034         553.879         532.976         563.345 
       0.196428         544.341         515.111         540.178 
       0.202534         531.199         498.324         523.299 
       0.208729         507.177         479.415         502.284 
       0.214876          480.75         457.362         486.119 
       0.220989         463.526         432.483         463.912 
       0.227147         433.906         406.048          439.08 
        0.23329         411.492         380.421         418.632 
       0.239377          395.38         357.607         397.788 
       0.245482          368.52         338.379         376.043 
       0.251667         360.893         322.815         362.845 
       0.257832         348.457         310.603         349.007 
       0.263955         336.731         300.589         337.112 
       0.270079         325.856           291.4         326.823 
        0.27624         320.527         281.925         315.731 
       0.282372         308.314         271.617         306.478 
        0.28843         296.786         260.517         295.937 
       0.294538         283.549         248.757          286.08 
       0.300721         278.072         236.912         276.533 
        0.30691         264.236         225.768         266.714 
       0.313033         256.435         215.916         255.957 
       0.319153         245.198         207.427         248.072 
       0.325316         239.732         200.147         241.363 
        0.33145         231.651         193.868         232.788 
       0.337538         227.861         188.182          226.15 
       0.343633         220.533         182.652          221.73 
       0.349808          213.96         176.949          216.63 
       0.355968         209.604         171.027         211.912 
       0.362074         203.505         164.999         205.682 
       0.368217         197.588         158.915         198.445 
       0.374374         191.235         153.019          193.35 
       0.380519         186.937         147.511         187.552 
       0.386598         181.854         142.533         182.917 
       0.392688          178.75          138.05         178.407 
        0.39888             174         133.921          173.37 
       0.405048         169.993         130.136         170.112 
       0.411186         166.154         126.558         166.472 
       0.417313         162.206         123.051         161.612 
       0.423458         158.597         119.546         158.415 
       0.429607         154.576         116.027         154.958 
       0.435692         149.785         112.556         151.569 
       0.441815         148.382         109.141         149.341 
       0.447964         145.624         105.846          145.46 
       0.454126         139.243         102.721         141.374 
       0.460267         137.506         99.8121         139.429 
       0.466387         135.162         97.1134         136.099 
        0.47254         132.536         94.5632         133.629 
       0.478662         130.857         92.1519          130.93 
       0.484765         127.206         89.8371         127.623 
       0.490885         124.964         87.5708         125.956 
       0.497035         123.182         85.3234         124.065 
       0.503198         119.814         83.1078         121.491 
       0.509342         117.447         80.9476          119.56 
       0.515458         115.683          78.858         118.141 
       0.521598         114.015         76.8345         115.014 
       0.527764         112.143         74.8903         112.358 
       0.533884         110.199         73.0568         110.702 
           0.54         108.126         71.3119         108.935 
       0.546137          106.98         69.6341         107.568 
       0.552299         105.306         68.0102         105.125 
       0.558452         102.799         66.4396         103.237 
       0.564573         100.913         64.9199         102.135 
       0.570708         99.6615         63.4328         100.481 
       0.576825         98.0183         61.9819         98.6991 
       0.582926         96.1409         60.5703          97.113 
       0.589034         94.2533          59.198         96.0605 
       0.595184         93.0863         57.8628         94.3837 
       0.601379         91.9845         56.5681         93.2916 
       0.607522          89.674         55.3305         91.2229 
       0.613639         89.4468         54.1404          90.219 
       0.619772         87.3501         52.9858         88.6553 
       0.625918         86.4962         51.8644         87.8589 
       0.632068          85.416         50.7752         86.2602 
       0.638161         84.2365         49.7261         85.3795 
         0.6443         83.0603         48.6968         83.9062 
       0.650464         81.8543         47.6895         82.4157 
       0.656582         80.8734         46.7149         81.7841 
       0.662703         79.2833         45.7656         80.3323 
       0.668861          78.411         44.8372          79.489 
       0.675024         77.3703         43.9354          78.257 
       0.681124          76.297         43.0703         77.2173 
       0.687237          74.932         42.2294         76.2015 
       0.693381         74.2127          41.409         75.1131 
       0.699536         73.0825         40.6099         74.6619 
       0.705665         73.3542         39.8354         73.8128 
       0.711789         71.2837          39.081         72.2766 
       0.717957         70.7609         38.3397         71.7744 
        0.72409         69.7594         37.6207         71.2075 
       0.730186         68.5961         36.9239         70.2296 
       0.736317         68.3769         36.2408         69.1858 
       0.742472          67.363         35.5727         68.4444 
       0.748622         66.7366         34.9225         67.5596 
        0.75476         65.9236         34.2909         66.8102 
       0.760888         64.9394         33.6765         65.9845 
       0.767043         64.2634         33.0753         65.5994 
       0.773185         63.4532         32.4905         64.9525 
       0.779291         63.0566         31.9233         64.2129 
       0.785407         62.4815         31.3689         63.2734 
       0.791564         61.4929         30.8242         62.5967 
       0.797719         60.5627         30.2924         62.1657 
       0.803834          60.342         29.7765          61.298 
       0.809972         59.2729         29.2706         60.7039 
       0.816124         58.6416         28.7753         60.2087 
       0.822261         58.2453         28.2929         59.3868 
       0.828378         57.7563          27.823         58.5908 
       0.834502          57.093         27.3634         58.4131 
       0.840667          56.549         26.9114         57.7998 
       0.846816         55.7732         26.4711         57.2124 
       0.852925         55.2899         26.0435         56.7555 
       0.859047         54.5281         25.6246         55.9938 
       0.865192         54.1928         25.2136         55.5509 
       0.871341         53.8945         24.8115         55.0291 
       0.877463         52.8555         24.4201         54.5415 
       0.883569         52.4847         24.0382         54.1874 
       0.889708         52.1673         23.6626         53.5479 
       0.895864         51.6358          23.294         53.0483 
       0.902008         51.1874         22.9341         52.5694 
       0.908149         50.7464         22.5821         52.2118 
       0.914301          50.347         22.2369         51.8316 
       0.920448         49.7346         21.8993          51.244 
       0.926574         49.3218         21.5699         50.6909 
       0.932687         48.8984          21.248         50.3892 
       0.938823         48.1731         20.9315         49.8142 
       0.944975         48.0406         20.6208         49.3618 
       0.951105         47.5286         20.3176         49.1384 
       0.957225         46.9459          20.021         48.6588 
       0.963368         46.8449         19.7294         48.1409 
       0.969511         46.4294         19.4436         47.7484 
       0.975621          46.025         19.1651         47.5665 
       0.981748         45.4734         18.8913          47.117 
       0.987916         45.1735         18.6212         46.7561 
        0.99406         44.8906         18.3574         46.3756 
        1.00019         44.2874         18.0993         45.9773 
        1.00632         44.1012         17.8464         45.6347 
        1.01246         43.7324          17.598         45.2576 
        1.01859         43.1581         17.3548         44.9658 
        1.02471         43.1732         17.1165         44.6439 
        1.03085         42.7106         16.8819         44.2446 
        1.03698         42.2012         16.6522         43.8823 
        1.04314         41.8253         16.4258         43.4539 
        1.04929         41.6042         16.2041          43.279 
        1.05541         41.1526         15.9875         43.1206 
        1.06154         41.0425         15.7743         42.6259 
        1.06769         40.6387         15.5647          42.317 
        1.07382         40.3782         15.3597         42.0648 
        1.07993         40.2018         15.1587         41.6685 
        1.08607         39.6838         14.9606         41.4024 
        1.09222          39.544         14.7659         41.1864 
        1.09836         39.1761         14.5748         40.8899 
        1.10449         38.8945         14.3874         40.5169 
        1.11063         38.3888         14.2031         40.2654 
        1.11677         38.2184         14.0221          39.976 
         1.1229         38.0943         13.8445         39.7058 
        1.12903         37.5324         13.6699         39.4436 
        1.13518         37.4647         13.4982         39.1154 
        1.14131         37.3332         13.3295         38.9157 
        1.14745         36.8543         13.1639         38.6656 
        1.15359         36.7633          13.001         38.4441 
        1.15973         36.3271         12.8408         38.2034 
        1.16584         36.0334          12.684         37.9013 
        1.17197         35.9945         12.5297         37.6674 
        1.17811          35.598         12.3774         37.3022 
        1.18424         35.2676         12.2282         37.1174 
        1.19038         35.2296         12.0809         37.0288 
        1.19652         35.0118         11.9362         36.6646 
        1.20267         34.7297         11.7938         36.5077 
        1.20881         34.4366         11.6539         36.2564 
        1.21495         34.1842         11.5164         36.1273 
        1.22108          33.974         11.3811          35.798 
         1.2272         33.5781         11.2484         35.6468 
        1.23334         33.4931         11.1175         35.4132 
        1.23949           33.34         10.9883         35.1114 
        1.24562         33.1064         10.8616         34.9594 
        1.25174         32.9429         10.7371         34.7661 
        1.25789         32.6938         10.6141         34.5302 
        1.26402         32.5048         10.4934         34.3031 
        1.27014          32.164         10.3747         34.1491 
        1.27628         32.0198         10.2576         33.9112 
        1.28244         31.8009         10.1421         33.8168 
        1.28858          31.688         10.0285          33.552 
        1.29471         31.5159         9.91692         33.3684 
        1.30084          31.288         9.80714         33.1691 
        1.30697         31.0235         9.69886         32.9257 
        1.31312         30.7695         9.59207         32.7953 
        1.31925         30.6522         9.48723         32.6077 
        1.32537         30.5256         9.38406          32.448 
        1.33151         30.2743         9.28207         32.2845 
        1.33765         30.2117         9.18166         32.1068 
        1.34378          30.034         9.08293         31.9221 
        1.34992         29.6252         8.98559         31.7748 
        1.35606         29.5257         8.88947         31.6187 
         1.3622         29.3508         8.79493         31.4595 
        1.36833         29.1733         8.70199         31.2883 
        1.37445         29.1603         8.61045         31.0549 
        1.38059         28.9464         8.51994         30.9361 
        1.38675         28.6492         8.43052         30.7933 
        1.39288         28.5824         8.34275         30.6266 
        1.39901         28.3249         8.25626         30.4769 
        1.40515         28.2109         8.17081         30.2858 
         1.4113         28.0746         8.08661         30.1114 
        1.41742         27.7787         8.00392         29.9973 
        1.42355          27.747         7.92223         29.8057 
         1.4297          27.541         7.84144         29.6333 
        1.43585         27.4879         7.76181         29.5459 
        1.44198         27.2059         7.68359         29.3809 
        1.44809         27.1005          7.6066         29.2428 
        1.45423         26.9866         7.53039         29.0363 
        1.46036         26.8748         7.45536         28.8997 
        1.46649          26.664         7.38133         28.7976 
        1.47263         26.5088         7.30825         28.6855 
        1.47877         26.4008         7.23619         28.5734 
        1.48491         26.2357         7.16499         28.3661 
        1.49104         26.1533         7.09491         28.2377 
        1.49718          25.901         7.02571         28.1121 
        1.50333         25.8398         6.95732         28.0028 
        1.50947         25.7186         6.88999         27.8956 
         1.5156          25.518         6.82365          27.748 
        1.52172         25.3183         6.75819         27.5727 
        1.52787         25.3513         6.69345         27.4412 
          1.534         25.1083         6.62965          27.334 
        1.54013         24.9235         6.56674          27.185 
        1.54627         24.8806         6.50454         27.0368 
        1.55241         24.7076         6.44314         26.9274 
        1.55855         24.5691         6.38262         26.8316 
        1.56467         24.4406         6.32305         26.7153 
         1.5708         24.3648         6.26407         26.5858 
        1.57695         24.1097         6.20575         26.4409 
        1.58308         24.1675         6.14832         26.3207 
        1.58922         23.9775         6.09157         26.2433 
        1.59535         23.8151         6.03556         26.1293 
         1.6015         23.7025         5.98018         25.9908 
        1.60764         23.6433         5.92552         25.8507 
        1.61376         23.4595          5.8717         25.7299 
        1.61989         23.2712         5.81851         25.6504 
        1.62604         23.2531         5.76585         25.5892 
        1.63218         23.0792         5.71388          25.489 
        1.63831         23.0228         5.66267         25.3592 
        1.64444         22.8654         5.61207         25.2542 
        1.65059         22.7224         5.56197         25.1201 
        1.65673         22.6482         5.51253         25.0051 
        1.66285         22.5149         5.46383         24.9161 
        1.66898         22.4297         5.41571         24.8161 
        1.67512         22.3533         5.36807         24.6828 
        1.68127         22.1653         5.32097         24.5948 
         1.6874         22.0726         5.27453         24.4915 
        1.69353         22.0083         5.22868         24.3073 
        1.69967          21.828         5.18327         24.2418 
        1.70581         21.7388         5.13841         24.1954 
        1.71193         21.6359         5.09426          24.097 
        1.71806         21.5437         5.05053         23.9834 
        1.72421         21.4258         5.00723         23.8847 
        1.73035         21.3359         4.96449         23.7984 
        1.73649         21.2249         4.92226         23.6988 
        1.74262         21.1398         4.88055         23.5633 
        1.74876         21.0508          4.8393         23.4663 
        1.75489         20.9238         4.79861         23.3999 
        1.76101         20.8395          4.7584         23.3177 
        1.76715         20.7508          4.7186         23.1985 
        1.77329         20.6744         4.67921         23.0817 
        1.77943         20.5456         4.64024         22.9991 
        1.78557         20.4549         4.60178         22.9388 
        1.79171         20.3788         4.56375          22.846 
        1.79785         20.2345         4.52615         22.7543 
        1.80399         20.1405         4.48897         22.6966 
        1.81012          20.113         4.45226          22.573 
        1.81625         19.9977         4.41598         22.4704 
        1.82239         19.9588         4.38005         22.4207 
        1.82853         19.7664         4.34454          22.328 
        1.83466         19.6678         4.30945         22.2347 
        1.84078         19.5347         4.27479         22.1574 
        1.84692         19.5359         4.24046         22.0688 
        1.85306         19.4002         4.20646         21.9827 
         1.8592         19.3232         4.17289         21.9033 
        1.86533         19.2359          4.1397         21.8185 
        1.87147         19.1426         4.10684         21.7287 
        1.87761         19.1154         4.07432         21.6464 
