# k  (h/Mpc)    Pcb(k)  (Mpc/h)^3    Pcb_linear(k) (Mpc/h)^3    Pcb_NL(k) (Mpc/h)^3   ShotnoiseSubtracted = false
     0.00783031          689.22         695.611         692.972 
       0.013688         869.766         871.449         867.881 
       0.019231         894.268         894.494         890.252 
      0.0249154         832.914         837.137         834.352 
      0.0312784         730.521         731.199         730.289 
      0.0375637         624.663         623.259         622.924 
      0.0433917         539.019         539.364         539.532 
      0.0492413         477.062         476.355         476.666 
      0.0555754         428.444         429.499         429.602 
      0.0619321         399.151         397.535         397.504 
       0.067871         372.913         373.772         373.462 
      0.0738098         348.909         350.089         349.469 
      0.0800417         320.164         321.981         321.398 
      0.0862327         289.774         290.631         290.324 
      0.0921407         259.593         259.712         259.628 
      0.0982031         229.463         230.015         230.293 
       0.104506         204.948         204.004         204.558 
       0.110769         185.174         184.357          184.83 
       0.116806         171.019         171.025          171.41 
       0.122832         162.466         161.919         162.278 
       0.129052         154.755         155.023         155.254 
       0.135211         148.312         148.767         148.922 
       0.141259         141.795          141.78         141.953 
       0.147318         133.773         133.345         133.666 
       0.153489         123.609         123.497         123.744 
       0.159709         113.465         113.132          113.58 
       0.165845         104.593         103.481         104.225 
       0.171974         95.6939         95.2151         95.9645 
       0.178125         89.4003          88.687         89.5852 
       0.184229         84.8155         83.9137         84.7863 
        0.19034         80.6221         80.4543         81.2475 
       0.196428         78.3289         77.7577         78.3709 
       0.202534         76.2373         75.2235         75.8184 
       0.208729         72.9772         72.3693           72.93 
       0.214876         69.2968         69.0404         69.7662 
       0.220989         66.1609         65.2848          66.087 
       0.227147         61.6774         61.2943         62.1302 
        0.23329         57.9201         57.4259         58.4135 
       0.239377         54.6852          53.982         55.0441 
       0.245482         51.5481         51.0795         52.0575 
       0.251667         49.5958         48.7302         49.7708 
       0.257832         47.6608         46.8866         47.8776 
       0.263955         46.1191          45.375          46.294 
       0.270079         44.7226         43.9879          44.859 
        0.27624           43.52         42.5573          43.374 
       0.282372         41.9219         41.0016         41.8737 
        0.28843         40.0635          39.326         40.2266 
       0.294538         38.3064         37.5508         38.4934 
       0.300721         36.7783         35.7628         36.7743 
        0.30691         34.9189         34.0805         35.1182 
       0.313033         33.4757         32.5932         33.6079 
       0.319153          31.869         31.3118         32.3599 
       0.325316         31.2136          30.213         31.2744 
        0.33145         30.1365         29.2651         30.2622 
       0.337538         29.2834         28.4068         29.3636 
       0.343633         28.3425          27.572         28.5166 
       0.349808         27.5405          26.711         27.6836 
       0.355968         26.6727         25.8172         26.8802 
       0.362074         25.7258         24.9072         25.9309 
       0.368217         24.8274         23.9887         24.9497 
       0.374374         23.8634         23.0988         24.1196 
       0.380519         23.1392         22.2673         23.2608 
       0.386598         22.4187         21.5159         22.5286 
       0.392688         21.8236         20.8392         21.8476 
        0.39888         21.1334         20.2159         21.2078 
       0.405048         20.5924         19.6445         20.5856 
       0.411186         20.0636         19.1044         20.1138 
       0.417313         19.4209         18.5751         19.5415 
       0.423458         18.9206         18.0459         19.0259 
       0.429607         18.3357         17.5146         18.4674 
       0.435692         17.7974         16.9908         17.9702 
       0.441815         17.3201         16.4752         17.4974 
       0.447964         16.9293         15.9779         16.9673 
       0.454126         16.3106         15.5061         16.4815 
       0.460267         15.9086         15.0671         16.0654 
       0.466387         15.4186         14.6596         15.6168 
        0.47254         15.1058         14.2747         15.2394 
       0.478662         14.7762         13.9107         14.8556 
       0.484765         14.3543         13.5613         14.4985 
       0.490885         14.0071         13.2191         14.2061 
       0.497035         13.7706         12.8799          13.876 
       0.503198         13.3876         12.5454         13.4792 
       0.509342         13.0585         12.2194         13.1712 
       0.515458         12.7043         11.9039         12.8922 
       0.521598          12.423         11.5985         12.5229 
       0.527764         12.0999          11.305         12.2167 
       0.533884         11.8731         11.0282          11.938 
           0.54         11.5886         10.7648         11.6624 
       0.546137         11.3515         10.5115         11.4277 
       0.552299         11.1092         10.2664         11.1315 
       0.558452         10.7829         10.0293         10.8994 
       0.564573         10.6107         9.79993         10.7164 
       0.570708         10.3837         9.57539         10.4755 
       0.576825         10.1088         9.35643         10.2422 
       0.582926          9.9271         9.14333         10.0388 
       0.589034         9.62901         8.93615         9.84994 
       0.595184         9.46364         8.73465         9.58113 
       0.601379         9.25242         8.53917         9.43506 
       0.607522         9.10102         8.35236          9.2279 
       0.613639         8.95878          8.1727          9.0354 
       0.619772         8.71439         7.99841         8.87923 
       0.625918         8.59872         7.82914         8.68592 
       0.632068         8.45282         7.66472         8.50649 
       0.638161         8.23751         7.50635         8.34422 
         0.6443          8.0672         7.35097         8.17426 
       0.650464         7.88599         7.19892         8.04822 
       0.656582         7.79695          7.0518         7.88855 
       0.662703         7.64286          6.9085         7.73236 
       0.668861         7.50313         6.76836          7.6094 
       0.675024         7.33692         6.63223         7.45003 
       0.681124         7.19797         6.50162          7.3108 
       0.687237         7.08228          6.3747          7.1586 
       0.693381          6.9635         6.25086         7.02386 
       0.699536         6.77449         6.13023         6.90683 
       0.705665         6.67749         6.01332          6.8214 
       0.711789         6.56517         5.89943         6.68941 
       0.717957         6.43931         5.78753         6.55724 
        0.72409         6.32249         5.67899         6.45414 
       0.730186         6.22785         5.57381         6.33063 
       0.736317         6.15159         5.47069         6.21915 
       0.742472         6.04449         5.36984         6.14572 
       0.748622         5.92863          5.2717         6.03868 
        0.75476         5.79286         5.17635         5.92111 
       0.760888         5.71444         5.08361         5.83109 
       0.767043         5.64194         4.99286         5.74554 
       0.773185         5.51785         4.90457         5.65833 
       0.779291         5.45466         4.81895         5.56781 
       0.785407         5.36068         4.73527         5.47088 
       0.791564         5.27321         4.65303         5.38741 
       0.797719         5.18787         4.57276         5.28703 
       0.803834         5.12604         4.49488         5.21017 
       0.809972         5.05199         4.41851         5.15158 
       0.816124         4.94438         4.34375         5.05431 
       0.822261         4.85713         4.27092         4.97561 
       0.828378         4.79884         4.19999           4.903 
       0.834502         4.74441         4.13062         4.82478 
       0.840667         4.64393         4.06239         4.75557 
       0.846816         4.56691         3.99592         4.69806 
       0.852925         4.52222         3.93137         4.62674 
       0.859047         4.45195         3.86814         4.56821 
       0.865192          4.3944          3.8061         4.49527 
       0.871341         4.33481          3.7454          4.4333 
       0.877463         4.27096         3.68632         4.36167 
       0.883569         4.19111         3.62866         4.30822 
       0.889708         4.12291         3.57196         4.24798 
       0.895864         4.07354         3.51633         4.18262 
       0.902008         4.01337           3.462         4.12937 
       0.908149         3.96375         3.40886         4.07094 
       0.914301         3.88996         3.35675         4.01701 
       0.920448         3.83611         3.30578         3.95282 
       0.926574         3.77966         3.25606         3.90958 
       0.932687          3.7375         3.20747         3.83663 
       0.938823         3.69021          3.1597         3.80754 
       0.944975         3.63674          3.1128         3.74389 
       0.951105         3.59232         3.06703         3.69359 
       0.957225         3.56646         3.02226         3.65751 
       0.963368          3.5079         2.97823          3.6031 
       0.969511         3.45497         2.93509         3.55974 
       0.975621         3.40267         2.89305         3.49962 
       0.981748         3.36816         2.85172         3.45739 
       0.987916         3.32134         2.81094         3.42632 
        0.99406         3.26513         2.77113         3.38435 
        1.00019         3.22693         2.73216         3.34613 
        1.00632         3.18891         2.69399         3.29696 
        1.01246         3.15118         2.65649         3.25715 
        1.01859         3.11081         2.61978         3.21458 
        1.02471         3.06972          2.5838         3.17035 
        1.03085         3.03251         2.54839         3.12988 
        1.03698         2.98917         2.51371         3.09535 
        1.04314         2.95788         2.47954         3.05834 
        1.04929         2.91735         2.44608         3.02303 
        1.05541         2.88287         2.41338         2.99181 
        1.06154         2.84913          2.3812         2.95653 
        1.06769         2.82218         2.34956          2.9244 
        1.07382         2.78041          2.3186         2.88733 
        1.07993         2.73899         2.28828         2.85136 
        1.08607         2.72172         2.25837         2.82086 
        1.09222         2.68323         2.22897         2.78318 
        1.09836         2.65979         2.20013         2.75285 
        1.10449         2.62649         2.17184         2.72506 
        1.11063         2.58925         2.14401         2.68784 
        1.11677         2.56055         2.11669         2.66265 
         1.1229         2.53002         2.08989         2.63635 
        1.12903         2.49884         2.06353         2.60574 
        1.13518         2.47699         2.03761         2.57776 
        1.14131         2.43774         2.01215         2.54545 
        1.14745         2.39933         1.98714         2.51292 
        1.15359         2.38692         1.96255         2.49411 
        1.15973         2.34916         1.93837         2.46564 
        1.16584          2.3362         1.91471         2.43903 
        1.17197         2.30633         1.89141          2.4127 
        1.17811         2.28259         1.86842         2.38789 
        1.18424         2.26318         1.84589         2.35867 
        1.19038         2.23439         1.82367          2.3348 
        1.19652         2.20986         1.80182         2.31532 
        1.20267         2.18897         1.78033         2.28241 
        1.20881         2.15915          1.7592         2.26208 
        1.21495         2.14217         1.73844         2.24552 
        1.22108         2.11884         1.71803         2.21941 
         1.2272         2.10161         1.69799         2.19107 
        1.23334         2.07116         1.67823         2.17365 
        1.23949         2.04791         1.65873         2.15732 
        1.24562         2.03382         1.63961         2.13406 
        1.25174         2.00677         1.62081          2.1064 
        1.25789         1.98918         1.60225         2.08503 
        1.26402         1.96247         1.58402         2.06272 
        1.27014         1.94306         1.56611         2.04728 
        1.27628         1.93199         1.54843          2.0279 
        1.28244         1.90303         1.53099         2.00459 
        1.28858         1.88861         1.51384         1.98337 
        1.29471          1.8674           1.497         1.96424 
        1.30084         1.84639         1.48043         1.95172 
        1.30697         1.83408         1.46408         1.93128 
        1.31312         1.80245         1.44796         1.91184 
        1.31925          1.7937         1.43214         1.89787 
        1.32537         1.77559         1.41656         1.87861 
        1.33151         1.76253         1.40117         1.86044 
        1.33765         1.73873         1.38601         1.84306 
        1.34378         1.72094         1.37111         1.82828 
        1.34992         1.71193         1.35641         1.81064 
        1.35606         1.68605          1.3419         1.78836 
         1.3622         1.67614         1.32763         1.77398 
        1.36833         1.65854          1.3136         1.76314 
        1.37445         1.63965         1.29978         1.74623 
        1.38059         1.62779         1.28612         1.72974 
        1.38675          1.6193         1.27262         1.71026 
        1.39288         1.59612         1.25937          1.6988 
        1.39901          1.5798         1.24632           1.684 
        1.40515         1.56696         1.23342         1.66623 
         1.4113         1.55254         1.22071         1.65357 
        1.41742         1.53885         1.20822         1.64331 
        1.42355         1.52995         1.19589         1.61988 
         1.4297         1.50845          1.1837         1.61489 
        1.43585         1.49905         1.17168         1.60138 
        1.44198         1.48863         1.15987         1.57979 
        1.44809         1.46773         1.14825         1.57221 
        1.45423         1.45613         1.13674         1.55351 
        1.46036           1.443         1.12542         1.54136 
        1.46649         1.42951         1.11424         1.53226 
        1.47263         1.41515         1.10321         1.51853 
        1.47877         1.40101         1.09233         1.50277 
        1.48491         1.39023         1.08159         1.49315 
        1.49104         1.37959         1.07101         1.47815 
        1.49718         1.36905         1.06056         1.46848 
        1.50333         1.35433         1.05024         1.45446 
        1.50947         1.34492         1.04007         1.44111 
         1.5156         1.33223         1.03006          1.4314 
        1.52172          1.3202         1.02018         1.42053 
        1.52787         1.30788          1.0104         1.40626 
          1.534         1.29907         1.00077         1.39597 
        1.54013         1.28448        0.991277         1.38487 
        1.54627         1.27207        0.981888         1.37232 
        1.55241         1.26216        0.972619         1.36168 
        1.55855         1.25326        0.963483         1.35137 
        1.56467         1.24329         0.95449         1.34161 
         1.5708         1.22824        0.945587          1.3287 
        1.57695         1.22271        0.936784         1.31918 
        1.58308         1.21145        0.928114         1.31215 
        1.58922         1.20163        0.919548         1.30012 
        1.59535         1.19151        0.911093         1.28955 
         1.6015         1.18201        0.902734           1.279 
        1.60764         1.17383        0.894483         1.27002 
        1.61376         1.16302        0.886358         1.26262 
        1.61989         1.15299        0.878328         1.25212 
        1.62604         1.14275        0.870379         1.24275 
        1.63218         1.13718        0.862534         1.23401 
        1.63831         1.12416        0.854804         1.22404 
        1.64444         1.11482        0.847165         1.21359 
        1.65059         1.10803        0.839602         1.20436 
        1.65673         1.09802         0.83214         1.19634 
        1.66285         1.08804        0.824789         1.18732 
        1.66898         1.08262        0.817524          1.1769 
        1.67512         1.06989        0.810333         1.16927 
        1.68127           1.063        0.803223         1.16244 
         1.6874         1.05728        0.796213         1.15426 
        1.69353         1.04482        0.789291         1.14435 
        1.69967         1.03689        0.782436         1.13531 
        1.70581          1.0324        0.775665          1.1287 
        1.71193         1.02237           0.769         1.12202 
        1.71806          1.0164        0.762399         1.11179 
        1.72421         1.00762        0.755863         1.10374 
        1.73035        0.998087        0.749411         1.09636 
        1.73649        0.992763        0.743035         1.08782 
        1.74262        0.984631         0.73674         1.07989 
        1.74876        0.976625        0.730513         1.07385 
        1.75489        0.967446         0.72437         1.06691 
        1.76101        0.960649        0.718301         1.05794 
        1.76715        0.954274        0.712293         1.05044 
        1.77329        0.947484        0.706346         1.04354 
        1.77943         0.93868        0.700465         1.03618 
        1.78557         0.93175        0.694659         1.02865 
        1.79171        0.927255        0.688918         1.02158 
        1.79785        0.918522        0.683241         1.01487 
        1.80399        0.912512        0.677629          1.0078 
        1.81012        0.906839        0.672088        0.999596 
        1.81625        0.898025        0.666611        0.992809 
        1.82239        0.892628        0.661187        0.988235 
        1.82853        0.882541        0.655826        0.983409 
        1.83466        0.878642         0.65053         0.97665 
        1.84078        0.871564        0.645298        0.968787 
        1.84692        0.867336        0.640115        0.962004 
        1.85306        0.859773        0.634983        0.955063 
         1.8592         0.85446        0.629915        0.948751 
        1.86533        0.847393        0.624906        0.943571 
        1.87147        0.841933        0.619945        0.936505 
