# k  (h/Mpc)    P(k)  (Mpc/h)^3    P_linear(k)  (Mpc/h)^3     P_NL(k)  ShotnoiseSubtracted = false
     0.00783031         15069.4         15286.4         15221.3 
       0.013688         19312.1         19133.6         19008.3 
       0.019231         19660.2         19632.3         19459.3 
      0.0249154         17964.3         18369.7         18183.5 
      0.0312784         15837.3         16042.9         15849.3 
      0.0375637         13649.5         13673.5         13500.7 
      0.0433917         11600.9         11832.3         11653.6 
      0.0492413         10364.1         10449.7         10285.2 
      0.0555754         9120.54         9421.52         9276.13 
      0.0619321         8724.64         8720.14         8577.87 
       0.067871          7951.9         8198.77          8063.4 
      0.0738098         7439.52         7679.18         7471.26 
      0.0800417         6755.16         7062.54         6870.85 
      0.0862327         6178.67         6374.83            6265 
      0.0921407         5637.23         5696.61         5613.08 
      0.0982031         4985.22         5045.18         5061.69 
       0.104506         4593.51         4474.64         4574.53 
       0.110769         4175.16         4043.68         4119.29 
       0.116806         3884.18         3751.24         3825.45 
       0.122832         3687.43          3551.5         3633.31 
       0.129052         3442.36         3400.23         3468.19 
       0.135211         3300.82            3263         3314.42 
       0.141259         3192.07         3109.75         3182.83 
       0.147318         3031.56         2924.72         3028.83 
       0.153489         2787.45         2708.74         2785.44 
       0.159709         2626.72         2481.38         2615.41 
       0.165845         2502.61         2269.71         2483.53 
       0.171974         2340.08          2088.4          2319.9 
       0.178125          2211.3         1945.21         2226.28 
       0.184229         2104.55         1840.51         2104.57 
        0.19034         1991.01         1764.64         2017.86 
       0.196428         1958.27         1705.49            1933 
       0.202534         1893.03          1649.9         1875.79 
       0.208729         1814.81          1587.3         1788.09 
       0.214876          1744.4         1514.28         1750.28 
       0.220989         1685.88         1431.91         1694.11 
       0.227147         1610.72         1344.39            1632 
        0.23329         1543.07         1259.54         1578.89 
       0.239377         1514.09            1184         1511.36 
       0.245482         1417.41         1120.34         1439.14 
       0.251667         1407.49         1068.81         1399.98 
       0.257832         1351.76         1028.37         1349.38 
       0.263955         1308.89          995.22         1308.06 
       0.270079         1265.23         964.796         1272.27 
        0.27624         1252.34         933.423         1235.48 
       0.282372         1200.43         899.296         1211.63 
        0.28843         1191.64         862.546          1184.6 
       0.294538         1132.71          823.61         1152.45 
       0.300721         1125.62         784.392         1118.26 
        0.30691         1080.17         747.493         1099.43 
       0.313033         1058.54         714.875         1061.79 
       0.319153         1039.34         686.769         1030.44 
       0.325316          1005.5         662.665         1010.55 
        0.33145         983.137         641.876         973.928 
       0.337538         965.574         623.051         956.809 
       0.343633         943.462          604.74         946.823 
       0.349808         911.905          585.86         931.479 
       0.355968         905.618         566.253         915.703 
       0.362074         895.865         546.293         898.029 
       0.368217          868.11         526.149         874.471 
       0.374374         834.564         506.628         857.379 
       0.380519         835.225         488.392         838.472 
       0.386598         811.901         471.912         827.775 
       0.392688          809.09         457.068         806.091 
        0.39888         785.088         443.398         793.522 
       0.405048         774.565         430.867         780.968 
       0.411186         763.467          419.02         764.793 
       0.417313         747.571         407.409          753.74 
       0.423458          734.35         395.803         742.233 
       0.429607         724.349         384.151         728.829 
       0.435692         708.878         372.661         714.054 
       0.441815          702.76         361.353         710.194 
       0.447964         687.635         350.446          699.43 
       0.454126         680.191         340.098         680.013 
       0.460267          664.09         330.467         677.903 
       0.466387         656.557         321.532         665.288 
        0.47254         650.157         313.088         656.122 
       0.478662         644.734         305.105         645.143 
       0.484765         625.085          297.44         636.523 
       0.490885          621.03         289.937         625.794 
       0.497035         607.869         282.496         619.749 
       0.503198         603.656         275.161         612.173 
       0.509342         597.593         268.009         602.774 
       0.515458         593.344          261.09         598.556 
       0.521598         578.338          254.39         590.957 
       0.527764         567.899         247.953         584.549 
       0.533884         566.086         241.883         577.178 
           0.54         559.715         236.106         569.173 
       0.546137         555.491         230.551         562.225 
       0.552299         546.761         225.174         554.582 
       0.558452         542.997         219.974         550.031 
       0.564573          535.58         214.942         545.573 
       0.570708         529.279         210.019         539.764 
       0.576825         515.024         205.215         531.019 
       0.582926         516.427         200.541         526.561 
       0.589034         511.105         195.998         518.647 
       0.595184         506.616         191.577         513.445 
       0.601379         498.916          187.29         508.525 
       0.607522         492.193         183.193         501.662 
       0.613639          491.61         179.253         499.891 
       0.619772         480.656          175.43         498.418 
       0.625918         478.384         171.717         490.323 
       0.632068         471.306         168.111         486.653 
       0.638161          469.51         164.637         480.359 
         0.6443         461.142          161.23         476.697 
       0.650464          458.62         157.895         468.839 
       0.656582          455.13         154.668         465.947 
       0.662703         453.299         151.525         463.526 
       0.668861         445.404         148.451          460.45 
       0.675024          441.58         145.465         456.553 
       0.681124         438.248         142.601         449.069 
       0.687237         434.372         139.817         445.209 
       0.693381         428.376           137.1         441.477 
       0.699536          422.19         134.455         438.561 
       0.705665         421.064          131.89         433.109 
       0.711789          418.58         129.393         430.462 
       0.717957         414.627         126.938         429.043 
        0.72409         411.999         124.558         424.387 
       0.730186         406.003         122.251         420.216 
       0.736317         403.107         119.989         416.671 
       0.742472         400.802         117.777         412.929 
       0.748622         396.474         115.625         409.293 
        0.75476         391.038         113.533          409.94 
       0.760888         387.059         111.499         404.233 
       0.767043         387.706         109.509         400.518 
       0.773185         383.105         107.572         397.683 
       0.779291         378.333         105.694          394.02 
       0.785407         376.369         103.859         391.989 
       0.791564         371.665         102.055         389.304 
       0.797719         369.397         100.295         385.496 
       0.803834         365.445         98.5864         383.939 
       0.809972         364.603         96.9115         381.097 
       0.816124         363.533         95.2718         376.066 
       0.822261         358.242         93.6744         374.579 
       0.828378         356.302         92.1186         371.714 
       0.834502         352.349         90.5972         370.057 
       0.840667         349.441         89.1006         366.506 
       0.846816         347.782         87.6427         364.244 
       0.852925         345.209          86.227         361.942 
       0.859047         343.227         84.8401         359.149 
       0.865192         338.928         83.4795         356.187 
       0.871341         336.258         82.1481         354.294 
       0.877463         335.433         80.8522         352.031 
       0.883569         332.631         79.5877         350.496 
       0.889708         329.711          78.344         346.956 
       0.895864         327.547         77.1238         344.925 
       0.902008         324.955         75.9322         342.503 
       0.908149         321.907         74.7666         339.499 
       0.914301         319.108         73.6237         336.984 
       0.920448         317.208         72.5059         335.146 
       0.926574         313.115         71.4153         332.747 
       0.932687         313.208         70.3495         330.425 
       0.938823         309.488         69.3018         329.808 
       0.944975         309.249         68.2732         327.015 
       0.951105         305.882         67.2692         324.574 
       0.957225          303.84         66.2873          322.67 
       0.963368         300.115         65.3218         320.764 
       0.969511         298.889         64.3756         318.512 
       0.975621          296.73         63.4533          316.57 
       0.981748         295.487         62.5469         314.846 
       0.987916         293.564         61.6526         313.196 
        0.99406         288.935         60.7792         311.127 
        1.00019          288.09         59.9247         308.301 
        1.00632         286.573         59.0874         306.419 
        1.01246         284.039          58.265         304.086 
        1.01859         284.399         57.4597         302.293 
        1.02471         279.764         56.6707         301.052 
        1.03085          278.18         55.8939         299.825 
        1.03698         277.214         55.1333         298.638 
        1.04314          274.32         54.3838         296.151 
        1.04929         272.255           53.65         293.679 
        1.05541         272.614         52.9328         291.978 
        1.06154           267.9          52.227         290.521 
        1.06769         267.319          51.533         288.726 
        1.07382         265.296          50.854         286.957 
        1.07993         263.465         50.1888          285.62 
        1.08607          262.67         49.5329         283.419 
        1.09222         260.047         48.8881          281.86 
        1.09836         258.187         48.2555         280.859 
        1.10449         255.765          47.635         279.242 
        1.11063         253.387         47.0247         277.385 
        1.11677         253.033         46.4254         275.444 
         1.1229         251.076         45.8376         274.147 
        1.12903         249.482         45.2596         272.895 
        1.13518         247.519          44.691         270.921 
        1.14131         245.725         44.1326         269.464 
        1.14745         244.958          43.584         267.768 
        1.15359         242.945         43.0447         266.512 
        1.15973         241.073         42.5143         264.969 
        1.16584         239.315         41.9953         263.334 
        1.17197         239.291         41.4843         262.417 
        1.17811         236.102         40.9802         260.831 
        1.18424         234.743          40.486         259.225 
        1.19038         233.927         39.9986         258.394 
        1.19652         231.814         39.5194         256.633 
        1.20267         231.204          39.048         254.888 
        1.20881         229.176         38.5845          253.87 
        1.21495           227.6         38.1293         252.173 
        1.22108         226.212         37.6816         250.573 
         1.2272         224.647         37.2421          248.89 
        1.23334         223.447         36.8086         247.873 
        1.23949         221.693         36.3811         247.019 
        1.24562          220.67         35.9615         245.245 
        1.25174          219.09         35.5492         244.151 
        1.25789          217.37         35.1422         242.612 
        1.26402         215.408         34.7423          241.81 
        1.27014         214.163         34.3496         240.259 
        1.27628         212.982         33.9618         239.665 
        1.28244         212.664         33.5793         238.405 
        1.28858         210.317         33.2032         236.787 
        1.29471         208.852         32.8338         234.824 
        1.30084         207.651         32.4703         233.944 
        1.30697          206.23         32.1118         233.019 
        1.31312         204.256         31.7582         231.298 
        1.31925         203.623         31.4111         230.181 
        1.32537         202.749         31.0695         229.086 
        1.33151         200.693         30.7318         227.934 
        1.33765          199.33         30.3994          226.77 
        1.34378         198.609         30.0725         225.765 
        1.34992         197.423         29.7502          224.16 
        1.35606         197.162          29.432         222.812 
         1.3622         194.913          29.119         222.093 
        1.36833         193.219         28.8113         221.082 
        1.37445         192.446         28.5082         219.148 
        1.38059         190.736         28.2085         218.493 
        1.38675          189.99         27.9125         217.668 
        1.39288         188.751         27.6218         215.608 
        1.39901         188.159         27.3355         214.974 
        1.40515         186.246         27.0526         214.052 
         1.4113         185.292         26.7738         212.735 
        1.41742         183.862            26.5         211.799 
        1.42355         183.017         26.2296         210.671 
         1.4297          181.35         25.9621         209.583 
        1.43585          180.48         25.6984         208.717 
        1.44198         179.469         25.4395         207.698 
        1.44809         178.541         25.1846         206.674 
        1.45423         177.459         24.9322         205.087 
        1.46036         176.219         24.6838         204.249 
        1.46649         174.806         24.4387         203.618 
        1.47263         173.771         24.1967         202.545 
        1.47877         172.668         23.9582         201.201 
        1.48491         171.051         23.7224         200.039 
        1.49104         170.658         23.4904         199.541 
        1.49718         168.997         23.2613         198.425 
        1.50333         168.333         23.0349          197.33 
        1.50947         167.305         22.8119         196.594 
         1.5156         165.897         22.5923         195.531 
        1.52172         165.243         22.3756         194.074 
        1.52787         163.647         22.1612         193.464 
          1.534         163.289           21.95         192.585 
        1.54013          162.04         21.7417         191.604 
        1.54627         160.937         21.5358         190.908 
        1.55241         159.826         21.3325         189.981 
        1.55855         158.899         21.1321         188.748 
        1.56467         157.694         20.9349         187.845 
         1.5708         156.985         20.7396         187.024 
        1.57695         156.107         20.5465         186.093 
        1.58308         155.185         20.3563         185.212 
        1.58922          154.09         20.1685         184.305 
        1.59535         152.839          19.983         183.526 
         1.6015         152.263         19.7997         182.593 
        1.60764         151.194         19.6187         181.571 
        1.61376         150.234         19.4405          180.79 
        1.61989         149.365         19.2644         180.012 
        1.62604         148.306           19.09         178.958 
        1.63218         147.551          18.918         178.121 
        1.63831         146.383         18.7484         177.443 
        1.64444         145.731         18.5809         176.442 
        1.65059         144.723          18.415         175.815 
        1.65673          143.59         18.2513         174.891 
        1.66285         143.014         18.0901         173.888 
        1.66898         141.919         17.9308         173.196 
        1.67512         141.611         17.7731         172.395 
        1.68127         140.062         17.6171          171.71 
         1.6874         139.268         17.4633         171.025 
        1.69353         138.568         17.3115          170.07 
        1.69967         137.491         17.1612          169.17 
        1.70581         136.886         17.0127         168.499 
        1.71193         135.854         16.8665          167.75 
        1.71806         135.238         16.7217         166.581 
        1.72421         134.351         16.5783         165.929 
        1.73035         133.876         16.4368          165.35 
        1.73649         132.956          16.297         164.487 
        1.74262         131.907         16.1589         163.718 
        1.74876         131.087         16.0223         163.013 
        1.75489         130.315         15.8876         162.291 
        1.76101         129.276         15.7545         161.564 
        1.76715         128.866         15.6227         160.889 
        1.77329         128.198         15.4923         160.001 
        1.77943         127.246         15.3633         159.107 
        1.78557         126.614          15.236         158.475 
        1.79171         125.776           15.11         157.821 
        1.79785         124.955         14.9855         157.094 
        1.80399          124.14         14.8624         156.385 
        1.81012         123.442         14.7409         155.678 
        1.81625          122.84         14.6208         154.978 
        1.82239         122.023         14.5018         154.245 
        1.82853         121.387         14.3842         153.426 
        1.83466         120.423         14.2681         152.628 
        1.84078         119.989         14.1533         151.994 
        1.84692         118.818         14.0396         151.535 
        1.85306         118.597         13.9271         150.731 
         1.8592         117.699         13.8159         149.878 
        1.86533         116.859         13.7061         149.477 
        1.87147         116.044         13.5972         148.989 
        1.87761         115.421         13.4896         148.231 
