# k  (h/Mpc)    P(k)  (Mpc/h)^3    P_linear(k)  (Mpc/h)^3     P_NL(k)  ShotnoiseSubtracted = false
     0.00783031         17067.9         17321.9         17245.8 
       0.013688         21899.2         21680.4         21530.6 
       0.019231         22273.4         22245.1         22036.2 
      0.0249154         20317.1         20814.2         20583.5 
      0.0312784         17915.7         18177.6         17931.2 
      0.0375637         15451.3         15492.8         15271.9 
      0.0433917         13114.4         13406.6         13176.6 
      0.0492413         11725.8           11840         11627.6 
      0.0555754         10298.6           10675         10487.7 
      0.0619321         9869.85          9880.3         9697.61 
       0.067871         8976.75         9289.55         9116.32 
      0.0738098         8399.26         8700.83         8435.83 
      0.0800417         7619.52         8002.15         7758.31 
      0.0862327         6975.36         7222.93         7082.14 
      0.0921407         6375.92         6454.48         6347.28 
      0.0982031         5643.17         5716.38         5734.11 
       0.104506         5211.63         5069.93         5192.37 
       0.110769         4741.21         4581.64         4676.06 
       0.116806         4418.75         4250.29         4342.99 
       0.122832         4191.59         4023.98         4125.57 
       0.129052         3908.28         3852.58         3937.79 
       0.135211         3745.58          3697.1         3760.48 
       0.141259         3625.57         3523.46            3615 
       0.147318         3446.11         3313.82         3441.59 
       0.153489         3168.94          3069.1         3165.31 
       0.159709          2990.7         2811.49         2978.59 
       0.165845         2858.93         2571.66         2835.68 
       0.171974          2678.9         2366.23         2654.45 
       0.178125         2533.99         2203.99         2552.16 
       0.184229         2408.85         2085.37         2411.88 
        0.19034         2288.19          1999.4         2313.35 
       0.196428         2247.16         1932.38         2218.04 
       0.202534          2167.8          1869.4          2152.8 
       0.208729          2080.9         1798.47         2051.21 
       0.214876         2006.33         1715.73         2008.47 
       0.220989         1938.52          1622.4         1948.01 
       0.227147         1857.22         1523.24         1881.97 
        0.23329         1781.13          1427.1          1822.3 
       0.239377         1751.64         1341.51         1745.99 
       0.245482         1643.57         1269.39         1665.01 
       0.251667         1633.16            1211         1620.23 
       0.257832         1568.28         1165.18         1562.98 
       0.263955         1517.95         1127.62         1516.75 
       0.270079         1468.38         1093.15         1475.65 
        0.27624         1452.08          1057.6         1433.95 
       0.282372          1392.9         1018.93            1410 
        0.28843         1388.03         977.294         1381.71 
       0.294538         1321.15         933.178         1343.79 
       0.300721         1311.26         888.743         1303.99 
        0.30691         1262.28         846.936         1284.58 
       0.313033          1236.3         809.979         1241.82 
       0.319153         1218.27         778.133         1204.94 
       0.325316            1178         750.822         1183.26 
        0.33145         1153.42         727.268         1141.01 
       0.337538         1131.02         705.939         1122.61 
       0.343633         1108.54         685.191         1110.46 
       0.349808         1072.61         663.799         1093.81 
       0.355968         1064.34         641.585         1075.58 
       0.362074         1054.74         618.969         1056.32 
       0.368217         1020.99         596.145         1030.76 
       0.374374         984.791         574.027         1010.99 
       0.380519         986.826         553.365          990.14 
       0.386598         958.201         534.693         976.766 
       0.392688         954.308         517.874         953.791 
        0.39888         926.897         502.385         938.315 
       0.405048         916.806         488.187         922.576 
       0.411186         903.701         474.764         906.166 
       0.417313         884.689         461.609         894.828 
       0.423458         869.164         448.458         879.918 
       0.429607         858.647         435.257         865.506 
       0.435692         841.524         422.238         847.793 
       0.441815         833.869         409.425         844.494 
       0.447964         816.427         397.067         833.162 
       0.454126         810.524         385.342         809.462 
       0.460267          790.07          374.43         807.546 
       0.466387          780.08         364.307         792.885 
        0.47254         777.153          354.74         781.773 
       0.478662         767.377         345.694         770.047 
       0.484765         745.927          337.01         761.427 
       0.490885         741.603         328.509          747.63 
       0.497035          725.45         320.078         741.043 
       0.503198         721.368         311.766         732.747 
       0.509342         713.295         303.663         720.369 
       0.515458         709.403         295.824          715.69 
       0.521598         691.708         288.233         708.237 
       0.527764         679.615          280.94         700.947 
       0.533884          677.33         274.061         692.467 
           0.54         671.319         267.516         683.784 
       0.546137         664.087         261.222         675.684 
       0.552299         655.756          255.13         666.405 
       0.558452         649.945         249.238         661.363 
       0.564573         641.805         243.537         655.693 
       0.570708         634.929         237.958         647.909 
       0.576825         618.106         232.516         638.857 
       0.582926         620.822          227.22         634.193 
       0.589034         613.746         222.072          624.42 
       0.595184         608.536         217.063         618.724 
       0.601379         599.497         212.207         613.028 
       0.607522         591.157         207.564         604.114 
       0.613639         591.015         203.099          602.43 
       0.619772         579.182         198.768         600.743 
       0.625918         575.106         194.561         591.857 
       0.632068         567.632         190.475          588.56 
       0.638161         565.128          186.54         579.341 
         0.6443         555.518         182.679          575.13 
       0.650464         553.546           178.9         566.813 
       0.656582         548.163         175.244         563.683 
       0.662703         546.237         171.683         559.901 
       0.668861         537.077           168.2         557.109 
       0.675024         532.402         164.817         552.918 
       0.681124         528.673         161.571         544.174 
       0.687237         524.428         158.417         539.303 
       0.693381         517.296          155.34         534.641 
       0.699536         508.639         152.342         531.073 
       0.705665         508.613         149.436         524.508 
       0.711789         505.512         146.606         520.794 
       0.717957         500.644         143.825         520.003 
        0.72409         498.095         141.128         514.157 
       0.730186         490.295         138.514          508.95 
       0.736317         487.763         135.952         505.284 
       0.742472         484.323         133.445         501.449 
       0.748622         479.228         131.007         496.643 
        0.75476         471.761         128.637         497.492 
       0.760888         467.683         126.332         491.015 
       0.767043          467.68         124.077         485.327 
       0.773185         463.154         121.883         482.372 
       0.779291         458.115         119.755         478.324 
       0.785407         454.439         117.676         475.745 
       0.791564         449.524         115.632         473.479 
       0.797719         447.548         113.637         468.552 
       0.803834         441.976         111.702         466.164 
       0.809972         440.923         109.804         463.105 
       0.816124          439.36         107.946         457.036 
       0.822261         432.799         106.136          455.17 
       0.828378          430.89         104.374         451.826 
       0.834502         425.575          102.65         450.326 
       0.840667         422.493         100.954          446.25 
       0.846816         420.302         99.3021         442.941 
       0.852925         417.374         97.6981         440.395 
       0.859047         415.483         96.1267         436.319 
       0.865192         409.853         94.5851         433.174 
       0.871341         406.408         93.0766          430.93 
       0.877463         406.207         91.6083         428.192 
       0.883569         401.814         90.1756         426.308 
       0.889708         399.279         88.7664         422.024 
       0.895864         397.778         87.3839         419.744 
       0.902008         393.924         86.0338         416.745 
       0.908149         388.702         84.7131         412.969 
       0.914301         386.944         83.4182         409.712 
       0.920448         384.832         82.1516         408.433 
       0.926574         378.861          80.916         405.369 
       0.932687         378.362         79.7084         402.163 
       0.938823         374.325         78.5213          401.61 
       0.944975          374.54         77.3558          398.06 
       0.951105         369.902         76.2183         395.058 
       0.957225          367.46         75.1058         393.076 
       0.963368          363.22         74.0118          390.73 
       0.969511         362.085         72.9397         388.321 
       0.975621         359.934         71.8948         385.481 
       0.981748         357.257         70.8677         383.323 
       0.987916         355.311         69.8545         381.563 
        0.99406         349.836          68.865         378.983 
        1.00019         348.131         67.8967         375.456 
        1.00632         346.704          66.948         373.165 
        1.01246         343.584         66.0163         370.615 
        1.01859         343.367         65.1038         368.217 
        1.02471         338.542         64.2098         366.567 
        1.03085         336.856         63.3297         365.246 
        1.03698         335.323          62.468         363.669 
        1.04314         332.402         61.6187         360.868 
        1.04929         329.123         60.7873         357.664 
        1.05541         329.711         59.9746          355.49 
        1.06154         324.145         59.1749         353.831 
        1.06769         322.951         58.3886         351.324 
        1.07382         320.347         57.6193         349.315 
        1.07993         318.547         56.8657         347.675 
        1.08607         317.537         56.1225         344.971 
        1.09222         313.819         55.3918         343.093 
        1.09836         311.697         54.6752         341.914 
        1.10449         309.454         53.9721         339.864 
        1.11063         305.614         53.2806         337.121 
        1.11677         306.079         52.6016         335.362 
         1.1229         303.523         51.9356         333.474 
        1.12903         301.491         51.2806         331.794 
        1.13518         298.368         50.6364          329.32 
        1.14131         296.967         50.0037          327.84 
        1.14745         294.925         49.3822         325.353 
        1.15359         293.179         48.7711         324.389 
        1.15973         291.009         48.1702         322.318 
        1.16584         288.758         47.5821         320.933 
        1.17197         288.392         47.0031          319.27 
        1.17811         284.947          46.432         317.076 
        1.18424          282.86          45.872         315.446 
        1.19038         281.698         45.3197         314.327 
        1.19652         279.382         44.7768         311.806 
        1.20267         278.305         44.2428         310.165 
        1.20881         276.186         43.7176          308.66 
        1.21495         274.071         43.2018         306.562 
        1.22108         272.358         42.6945         304.535 
         1.2272         270.737         42.1966         303.137 
        1.23334         269.052         41.7054         301.354 
        1.23949         266.468          41.221         299.957 
        1.24562         265.528         40.7456         298.147 
        1.25174         263.887         40.2785         296.669 
        1.25789         261.405         39.8173         294.899 
        1.26402         259.441         39.3642         294.006 
        1.27014         257.766         38.9192         291.736 
        1.27628         255.987         38.4799         291.029 
        1.28244         255.717         38.0465         289.724 
        1.28858         253.156         37.6204          287.79 
        1.29471         251.824         37.2018         285.374 
        1.30084          249.66         36.7899         284.059 
        1.30697         248.419         36.3837         283.007 
        1.31312         245.719         35.9831         281.232 
        1.31925         244.449         35.5898         279.759 
        1.32537         243.703         35.2028         277.917 
        1.33151         241.387         34.8202          276.75 
        1.33765         239.427         34.4435         275.569 
        1.34378         238.701         34.0732         273.896 
        1.34992         237.157          33.708         272.241 
        1.35606         236.061         33.3474         270.534 
         1.3622         233.701         32.9928         269.702 
        1.36833         232.216         32.6442         268.685 
        1.37445         230.796         32.3007         266.107 
        1.38059         228.872         31.9612         265.539 
        1.38675         227.843         31.6258          264.55 
        1.39288         226.473         31.2965         262.337 
        1.39901          225.24         30.9721         260.978 
        1.40515         223.686         30.6515          259.49 
         1.4113         222.152         30.3356         257.977 
        1.41742          220.38         30.0254         256.935 
        1.42355         219.607          29.719         255.447 
         1.4297         217.585         29.4159         253.946 
        1.43585         216.322         29.1172         253.473 
        1.44198         215.313         28.8238         251.786 
        1.44809         213.451          28.535         250.647 
        1.45423         212.366         28.2491         248.663 
        1.46036         210.988         27.9676         247.725 
        1.46649         209.492         27.6899         246.824 
        1.47263         208.477         27.4157         245.182 
        1.47877         206.747         27.1454         243.665 
        1.48491         204.785         26.8783         242.237 
        1.49104         204.137         26.6154         241.343 
        1.49718         202.482         26.3558         240.685 
        1.50333         201.657         26.0993         239.212 
        1.50947         200.177         25.8467         237.991 
         1.5156          198.41         25.5978         236.825 
        1.52172         197.719         25.3523         235.226 
        1.52787           195.9         25.1094         234.335 
          1.534         195.403         24.8701         233.135 
        1.54013         193.553         24.6341         231.974 
        1.54627         192.585         24.4008         231.111 
        1.55241         191.287         24.1704         230.016 
        1.55855         189.664         23.9434         228.675 
        1.56467         188.965         23.7199         227.318 
         1.5708         187.813         23.4986         226.174 
        1.57695         186.584         23.2799         225.101 
        1.58308         185.314         23.0644         223.896 
        1.58922         183.636         22.8516         222.756 
        1.59535         182.453         22.6414           221.9 
         1.6015         181.455         22.4337         220.996 
        1.60764         180.452         22.2287         219.753 
        1.61376         179.487         22.0268         218.473 
        1.61989         178.331         21.8272         217.426 
        1.62604         177.053         21.6297          216.27 
        1.63218         175.956         21.4347         215.238 
        1.63831         174.545         21.2426         214.345 
        1.64444         173.754         21.0528         213.292 
        1.65059         172.819         20.8648         212.376 
        1.65673         171.503         20.6794          211.29 
        1.66285         170.136         20.4967         210.094 
        1.66898         169.327         20.3162         209.046 
        1.67512         168.591         20.1375          208.16 
        1.68127         166.731         19.9608         207.198 
         1.6874         166.246         19.7866         206.207 
        1.69353         164.868         19.6146         205.309 
        1.69967         163.578         19.4442         204.257 
        1.70581          162.98         19.2759         203.357 
        1.71193         161.635         19.1103         202.433 
        1.71806         160.967         18.9463         201.073 
        1.72421         159.739         18.7838         200.199 
        1.73035         158.919         18.6235         199.384 
        1.73649         157.978         18.4651         198.323 
        1.74262         156.929         18.3086         197.431 
        1.74876         155.542         18.1538         196.524 
        1.75489         154.976         18.0012         195.643 
        1.76101         153.535         17.8504         194.862 
        1.76715         153.036         17.7011         194.021 
        1.77329         151.872         17.5533         193.064 
        1.77943         151.184         17.4071         192.047 
        1.78557         150.133         17.2629         191.069 
        1.79171         149.365         17.1202         190.222 
        1.79785         148.095         16.9791         189.355 
        1.80399         147.339         16.8396         188.397 
        1.81012         146.393         16.7019         187.785 
        1.81625          145.76         16.5658         186.961 
        1.82239         144.456          16.431         185.811 
        1.82853         143.926         16.2978         184.945 
        1.83466          142.84         16.1662         184.022 
        1.84078         142.094         16.0362         183.115 
        1.84692         140.894         15.9074         182.586 
        1.85306          140.35         15.7799         181.582 
         1.8592         139.369         15.6539         180.493 
        1.86533         138.673         15.5294         180.087 
        1.87147         137.632         15.4061         179.493 
        1.87761         136.674         15.2842          178.52 
