# k  (h/Mpc)    Pcb(k)  (Mpc/h)^3    Pcb_linear(k) (Mpc/h)^3    Pcb_NL(k) (Mpc/h)^3   ShotnoiseSubtracted = false
     0.00783031         849.598         857.587         854.357 
       0.013688         1072.66         1074.32          1069.9 
       0.019231         1102.59         1102.71         1097.42 
      0.0249154         1026.41         1031.99         1028.49 
      0.0312784         900.434         901.388         900.172 
      0.0375637         770.128         768.322         767.808 
      0.0433917         664.275         664.899             665 
      0.0492413         588.072         587.224         587.514 
      0.0555754         527.889         529.462         529.511 
      0.0619321         492.215         490.057         489.953 
       0.067871         459.554         460.764         460.322 
      0.0738098         429.955         431.569         430.703 
      0.0800417         394.432         396.919         396.109 
      0.0862327         357.098         358.272         357.856 
      0.0921407         320.012         320.157          320.03 
      0.0982031         282.809         283.548         283.934 
       0.104506         252.807         251.484         252.268 
       0.110769         228.426         227.264         227.922 
       0.116806         210.902         210.829          211.38 
       0.122832         200.425         199.604         200.133 
       0.129052         190.803         191.102         191.464 
       0.135211         182.857          183.39         183.656 
       0.141259          174.89         174.778         175.077 
       0.147318          165.04         164.379         164.899 
       0.153489         152.465          152.24         152.632 
       0.159709         140.022         139.462         140.145 
       0.165845         129.184         127.565         128.684 
       0.171974         118.169         117.375           118.5 
       0.178125         110.446         109.328          110.68 
       0.184229         104.813         103.443         104.761 
        0.19034         99.5338          99.179         100.384 
       0.196428         96.7806         95.8548         96.7971 
       0.202534         94.2429         92.7308         93.6507 
       0.208729           90.18         89.2123         90.0809 
       0.214876         85.5989         85.1086          86.225 
       0.220989         81.8011          80.479         81.7061 
       0.227147         76.2326         75.5598         76.8346 
        0.23329         71.6262          70.791         72.2917 
       0.239377         67.6896         66.5455         68.1561 
       0.245482         63.7601         62.9676          64.452 
       0.251667         61.4176         60.0715         61.6522 
       0.257832         59.0399         57.7988         59.3069 
       0.263955         57.1175         55.9355         57.3384 
       0.270079         55.3877         54.2255          55.559 
        0.27624          53.937         52.4619         53.7142 
       0.282372         51.9568         50.5441         51.8773 
        0.28843          49.654         48.4786         49.8522 
       0.294538         47.4844         46.2902         47.7275 
       0.300721         45.6445         44.0861         45.6267 
        0.30691         43.3333         42.0122          43.592 
       0.313033         41.5634         40.1789         41.7233 
       0.319153         39.5477         38.5993         40.1932 
       0.325316         38.7739         37.2447         38.8597 
        0.33145         37.4223         36.0761          37.595 
       0.337538         36.3871         35.0181         36.4775 
       0.343633         35.2146          33.989         35.4341 
       0.349808          34.224         32.9276         34.4137 
       0.355968         33.1577         31.8258         33.4418 
       0.362074         31.9894          30.704         32.2645 
       0.368217         30.8833         29.5718         31.0406 
       0.374374         29.7036         28.4748         30.0296 
       0.380519         28.8126         27.4497         28.9654 
       0.386598         27.9229         26.5235         28.0655 
       0.392688            27.2         25.6892         27.2276 
        0.39888         26.3441         24.9209         26.4313 
       0.405048         25.6815         24.2166         25.6576 
       0.411186         25.0309         23.5507           25.09 
       0.417313         24.2217         22.8982         24.3707 
       0.423458         23.5981         22.2459         23.7397 
       0.429607         22.8789         21.5909         23.0463 
       0.435692         22.2032         20.9452          22.438 
       0.441815         21.6322         20.3096         21.8654 
       0.447964         21.1596         19.6966         21.2036 
       0.454126         20.3698         19.1149            20.6 
       0.460267         19.8881         18.5737         20.0936 
       0.466387         19.2707         18.0715         19.5322 
        0.47254         18.8994         17.5969         19.0701 
       0.478662         18.4978         17.1482          18.593 
       0.484765          17.966         16.7175         18.1478 
       0.490885         17.5331         16.2956         17.7967 
       0.497035         17.2475         15.8776         17.3922 
       0.503198         16.7725         15.4652         16.8923 
       0.509342         16.3544         15.0633         16.5169 
       0.515458         15.9208         14.6744         16.1815 
       0.521598         15.5793         14.2978         15.7118 
       0.527764         15.1841         13.9361         15.3273 
       0.533884         14.9008         13.5949          14.984 
           0.54          14.549         13.2702          14.643 
       0.546137         14.2583          12.958          14.358 
       0.552299         13.9643         12.6558         13.9841 
       0.558452         13.5454         12.3635          13.696 
       0.564573         13.3389         12.0807          13.477 
       0.570708         13.0606         11.8039         13.1782 
       0.576825         12.7111          11.534         12.8889 
       0.582926         12.4836         11.2713          12.639 
       0.589034         12.1105         11.0159          12.408 
       0.595184         11.9119         10.7675         12.0675 
       0.601379         11.6481         10.5265         11.8939 
       0.607522         11.4588         10.2963         11.6321 
       0.613639         11.2876         10.0748         11.3929 
       0.619772         10.9799         9.85993         11.2022 
       0.625918         10.8511         9.65126         10.9632 
       0.632068         10.6671         9.44858         10.7378 
       0.638161          10.395         9.25335         10.5358 
         0.6443         10.1796         9.06181         10.3236 
       0.650464         9.95648         8.87438          10.172 
       0.656582         9.85559         8.69301         9.97308 
       0.662703         9.66167         8.51635         9.77763 
       0.668861          9.4795         8.34361         9.62856 
       0.675024         9.27433         8.17579         9.42495 
       0.681124         9.10413         8.01479         9.25341 
       0.687237         8.95545         7.85833         9.06204 
       0.693381         8.81422         7.70566         8.89579 
       0.699536         8.57326         7.55696         8.75096 
       0.705665         8.45996         7.41284         8.64773 
       0.711789         8.31335         7.27244         8.47945 
       0.717957         8.16016          7.1345         8.31492 
        0.72409         8.01292          7.0007          8.1895 
       0.730186          7.8989         6.87104         8.03416 
       0.736317         7.80125         6.74392         7.89543 
       0.742472         7.66784         6.61959         7.80829 
       0.748622         7.52697         6.49862         7.67059 
        0.75476         7.35482         6.38108         7.52476 
       0.760888          7.2599         6.26675         7.41425 
       0.767043         7.16573         6.15488         7.30924 
       0.773185         7.00924         6.04604         7.19961 
       0.779291         6.93691          5.9405         7.08809 
       0.785407         6.81959         5.83734         6.96587 
       0.791564          6.7059         5.73596         6.86266 
       0.797719         6.59251         5.63701         6.73675 
       0.803834          6.5246           5.541         6.63921 
       0.809972         6.43701         5.44686         6.57011 
       0.816124         6.29535          5.3547         6.44669 
       0.822261         6.18957         5.26492         6.34854 
       0.828378         6.11567         5.17748         6.25835 
       0.834502         6.04895         5.09197         6.16283 
       0.840667         5.92529         5.00786         6.07384 
       0.846816         5.82374         4.92591         6.00091 
       0.852925         5.76768         4.84634         5.91675 
       0.859047         5.68072         4.76839         5.83973 
       0.865192         5.61456         4.69192         5.74944 
       0.871341         5.54111         4.61709         5.67494 
       0.877463         5.45447         4.54426         5.58374 
       0.883569         5.35525         4.47319         5.51651 
       0.889708         5.26616         4.40328         5.44139 
       0.895864         5.20911          4.3347          5.3589 
       0.902008         5.13754         4.26773          5.2943 
       0.908149         5.07511         4.20222          5.2196 
       0.914301         4.98548         4.13799         5.15643 
       0.920448         4.91304         4.07516         5.07199 
       0.926574         4.84366         4.01386         5.01919 
       0.932687         4.79234         3.95396         4.92407 
       0.938823         4.72788         3.89508         4.88899 
       0.944975         4.66019         3.83726         4.81175 
       0.951105         4.60648         3.78083         4.74605 
       0.957225         4.57658         3.72565         4.70375 
       0.963368         4.50204         3.67138         4.63463 
       0.969511         4.43805          3.6182          4.5812 
       0.975621         4.37334         3.56636          4.5052 
       0.981748         4.32673         3.51542          4.4523 
       0.987916         4.27082         3.46515         4.41216 
        0.99406         4.19816         3.41607         4.35946 
        1.00019         4.14375         3.36804         4.31351 
        1.00632          4.1054         3.32098         4.25185 
        1.01246         4.05681         3.27476         4.20447 
        1.01859         4.00214          3.2295         4.14721 
        1.02471         3.95343         3.18515         4.08873 
        1.03085          3.9051         3.14149         4.04138 
        1.03698         3.84949         3.09874         3.99996 
        1.04314         3.81145         3.05662         3.95168 
        1.04929         3.75986         3.01537         3.90777 
        1.05541         3.71428         2.97506         3.86837 
        1.06154         3.67478         2.93539         3.82379 
        1.06769         3.64487         2.89639         3.78478 
        1.07382         3.58681         2.85823         3.73809 
        1.07993         3.53691         2.82084         3.69221 
        1.08607         3.51466         2.78397         3.65273 
        1.09222         3.46739         2.74773         3.60607 
        1.09836         3.43453         2.71218         3.56593 
        1.10449         3.39282          2.6773         3.53154 
        1.11063         3.34879           2.643          3.4863 
        1.11677         3.31449         2.60932         3.45409 
         1.1229         3.27564         2.57628         3.42147 
        1.12903         3.23574         2.54379         3.38463 
        1.13518         3.20547         2.51184         3.34867 
        1.14131         3.15622         2.48045         3.30582 
        1.14745          3.1103         2.44962         3.26512 
        1.15359         3.09392         2.41931         3.24221 
        1.15973         3.04836          2.3895         3.20549 
        1.16584         3.02561         2.36033         3.17462 
        1.17197         2.99077          2.3316         3.13949 
        1.17811         2.96195         2.30327         3.10686 
        1.18424         2.93583          2.2755         3.07129 
        1.19038         2.90333          2.2481         3.04115 
        1.19652         2.87189         2.22117         3.01739 
        1.20267          2.8419         2.19468         2.97507 
        1.20881         2.80841         2.16863         2.95016 
        1.21495         2.78524         2.14304         2.92781 
        1.22108         2.75441         2.11788          2.8962 
         1.2272         2.73338         2.09317         2.85959 
        1.23334         2.69354         2.06881         2.83793 
        1.23949         2.66473         2.04478         2.81781 
        1.24562         2.64769          2.0212         2.78837 
        1.25174          2.6117         1.99803         2.75284 
        1.25789         2.59059         1.97515         2.72588 
        1.26402         2.55889         1.95267         2.69664 
        1.27014          2.5334          1.9306         2.67847 
        1.27628         2.51737         1.90881         2.65518 
        1.28244         2.48115         1.88731          2.6251 
        1.28858         2.46508         1.86617         2.59875 
        1.29471         2.43582         1.84541         2.57398 
        1.30084         2.40957         1.82498         2.55756 
        1.30697         2.39783         1.80483         2.53127 
        1.31312         2.35348         1.78496         2.50688 
        1.31925         2.34253         1.76545         2.48951 
        1.32537         2.31874         1.74625          2.4655 
        1.33151         2.30427         1.72727         2.44233 
        1.33765         2.27184         1.70858         2.41965 
        1.34378         2.25139         1.69021         2.40148 
        1.34992         2.23985          1.6721         2.37857 
        1.35606         2.20525         1.65421         2.35026 
         1.3622         2.19399         1.63662         2.33206 
        1.36833         2.17138         1.61933         2.31956 
        1.37445         2.14881         1.60229         2.29749 
        1.38059         2.13531         1.58545         2.27628 
        1.38675         2.12105         1.56881         2.25119 
        1.39288         2.09315         1.55247         2.23785 
        1.39901         2.07117         1.53638         2.21879 
        1.40515         2.05502         1.52048          2.1965 
         1.4113         2.03752         1.50481         2.18038 
        1.41742         2.02056         1.48942         2.16616 
        1.42355         2.00633         1.47422         2.13695 
         1.4297         1.98093         1.45919         2.13032 
        1.43585         1.97017         1.44437         2.11441 
        1.44198         1.95526         1.42981         2.08699 
        1.44809         1.92945         1.41549         2.07659 
        1.45423         1.91397         1.40131         2.05342 
        1.46036         1.89661         1.38734         2.03762 
        1.46649         1.87974         1.37357         2.02571 
        1.47263         1.86167         1.35997         2.00861 
        1.47877         1.84314         1.34656         1.98855 
        1.48491         1.82987         1.33331         1.97578 
        1.49104         1.81732         1.32027         1.95689 
        1.49718         1.80221         1.30739         1.94384 
        1.50333         1.78513         1.29467         1.92795 
        1.50947         1.77168         1.28214         1.91097 
         1.5156         1.75609         1.26979         1.89782 
        1.52172         1.74139         1.25761         1.88515 
        1.52787         1.72612         1.24556         1.86553 
          1.534         1.71301         1.23369         1.85201 
        1.54013         1.69672         1.22198         1.83814 
        1.54627         1.67958         1.21041         1.82228 
        1.55241          1.6666         1.19898         1.80884 
        1.55855         1.65662         1.18772         1.79477 
        1.56467          1.6429         1.17663          1.7831 
         1.5708         1.62395         1.16566         1.76711 
        1.57695          1.6156         1.15481         1.75435 
        1.58308         1.60108         1.14412         1.74553 
        1.58922         1.58989         1.13356         1.73045 
        1.59535         1.57666         1.12314         1.71732 
         1.6015         1.56458         1.11283         1.70381 
        1.60764           1.554         1.10266         1.69221 
        1.61376         1.54134         1.09265         1.68275 
        1.61989         1.52703         1.08275         1.66891 
        1.62604         1.51401         1.07295         1.65688 
        1.63218         1.50752         1.06328         1.64585 
        1.63831         1.49031         1.05375         1.63316 
        1.64444         1.47837         1.04433         1.61994 
        1.65059         1.46989         1.03501         1.60831 
        1.65673         1.45771         1.02581         1.59779 
        1.66285         1.44411         1.01675           1.586 
        1.66898         1.43663         1.00779         1.57282 
        1.67512         1.42082        0.998927         1.56318 
        1.68127         1.41201        0.990162          1.5549 
         1.6874         1.40517        0.981521         1.54469 
        1.69353         1.38745        0.972988         1.53145 
        1.69967          1.3782        0.964537         1.51945 
        1.70581         1.37328         0.95619         1.51125 
        1.71193         1.35981        0.947974         1.50312 
        1.71806         1.35238        0.939837         1.48964 
        1.72421         1.34137        0.931779         1.47894 
        1.73035         1.32948        0.923826         1.46981 
        1.73649          1.3211        0.915967         1.45949 
        1.74262         1.31109        0.908206           1.449 
        1.74876         1.30224        0.900529         1.44117 
        1.75489         1.28959        0.892958         1.43211 
        1.76101         1.28069        0.885476         1.41999 
        1.76715          1.2726        0.878069         1.41022 
        1.77329         1.26403        0.870738          1.4015 
        1.77943         1.25225        0.863488         1.39222 
        1.78557         1.24401        0.856331          1.3828 
        1.79171          1.2385        0.849254         1.37405 
        1.79785         1.22599        0.842256         1.36546 
        1.80399         1.21887        0.835338         1.35609 
        1.81012         1.21189        0.828507         1.34614 
        1.81625         1.20059        0.821756         1.33738 
        1.82239          1.1925        0.815069         1.33068 
        1.82853         1.18032        0.808461         1.32479 
        1.83466         1.17589        0.801932         1.31672 
        1.84078         1.16691        0.795482         1.30668 
        1.84692         1.16061        0.789093          1.2974 
        1.85306         1.15034        0.782767         1.28823 
         1.8592         1.14351        0.776519         1.28033 
        1.86533         1.13446        0.770344         1.27388 
        1.87147         1.12826        0.764229         1.26513 
