# k  (h/Mpc)    Pcb(k)  (Mpc/h)^3    Pcb_linear(k) (Mpc/h)^3    Pcb_NL(k) (Mpc/h)^3   ShotnoiseSubtracted = false
     0.00783031         6037.91         6109.11         6086.34 
       0.013688         7683.49         7648.97         7611.22 
       0.019231         7861.09         7849.43         7800.56 
      0.0249154         7251.28         7345.19         7302.82 
      0.0312784         6381.08         6415.15         6382.18 
      0.0375637          5478.8         5467.87         5440.62 
      0.0433917         4691.78         4731.71         4706.42 
      0.0492413         4172.76         4178.86         4156.81 
      0.0555754         3711.12         3767.75         3747.49 
      0.0619321         3508.85         3487.29         3466.97 
       0.067871         3236.92         3278.81         3258.18 
      0.0738098         3027.68         3071.04         3037.81 
      0.0800417         2763.87         2824.45         2793.77 
      0.0862327         2515.47         2549.43          2533.2 
      0.0921407         2272.11          2278.2         2267.02 
      0.0982031         2004.69         2017.69         2024.89 
       0.104506         1820.49         1789.52          1811.7 
       0.110769         1648.36         1617.17         1633.55 
       0.116806          1521.9         1500.22         1516.15 
       0.122832         1449.66         1420.34         1437.97 
       0.129052         1365.58         1359.84         1374.13 
       0.135211         1309.93         1304.96         1317.09 
       0.141259         1260.48         1243.68         1258.84 
       0.147318         1193.17         1169.68         1192.74 
       0.153489         1098.57          1083.3          1099.3 
       0.159709         1022.56         992.374         1019.37 
       0.165845         957.746         907.722          951.64 
       0.171974          882.66         835.211         880.355 
       0.178125         830.582         777.946         833.408 
       0.184229         791.545         736.076         789.476 
        0.19034         742.356         705.731          755.97 
       0.196428         730.861         682.076         724.066 
       0.202534          712.68         659.847         701.711 
       0.208729         680.529         634.809         672.726 
       0.214876         645.708         605.609         653.004 
       0.220989         623.349         572.665         624.654 
       0.227147          585.36         537.661         592.701 
        0.23329         556.415         503.728         567.085 
       0.239377         536.946         473.518         539.778 
       0.245482         499.765         448.059         510.562 
       0.251667         491.173         427.451         493.708 
       0.257832         474.162         411.279         474.903 
       0.263955         458.495          398.02         458.801 
       0.270079         443.348         385.852         445.023 
        0.27624         437.126         373.303         430.107 
       0.282372         420.075         359.657         417.948 
        0.28843         406.061         344.959         404.154 
       0.294538         387.332         329.387         391.659 
       0.300721         381.703         313.703         379.387 
        0.30691         362.934         298.946         367.116 
       0.313033         353.423         285.901         352.643 
       0.319153         339.348          274.66         342.063 
       0.325316         330.787         265.022         333.322 
        0.33145         320.232         256.707         321.255 
       0.337538         315.519         249.178         312.524 
       0.343633         305.367         241.855         307.403 
       0.349808         296.002         234.303         300.717 
       0.355968         291.116         226.463         294.399 
       0.362074         283.499          218.48         286.304 
       0.368217         275.516         210.424         276.661 
       0.374374         265.983         202.617         269.827 
       0.380519         261.145         195.324         262.216 
       0.386598         254.325         188.733         256.468 
       0.392688         250.778         182.796         249.992 
        0.39888         244.121         177.329         243.504 
       0.405048         238.535         172.317         239.655 
       0.411186         233.223         167.579         233.921 
       0.417313          228.52         162.936         227.529 
       0.423458         223.701         158.295         223.307 
       0.429607         218.343         153.634         218.858 
       0.435692         212.032         149.039         214.155 
       0.441815         210.256         144.517         211.462 
       0.447964          206.21         140.155         206.453 
       0.454126          197.61         136.016         200.651 
       0.460267         195.269         132.165         198.387 
       0.466387         192.658         128.591         193.935 
        0.47254         188.534         125.214         190.503 
       0.478662         186.818         122.021         186.812 
       0.484765         181.419         118.956         182.195 
       0.490885         178.606         115.954         179.917 
       0.497035         175.994          112.98         177.455 
       0.503198         171.368         110.046         174.258 
       0.509342         168.785         107.185         171.694 
       0.515458         166.426         104.418         169.791 
       0.521598         163.921         101.739         165.673 
       0.527764         161.375         99.1648         162.351 
       0.533884         158.756         96.7366         160.119 
           0.54          156.11         94.4264         157.618 
       0.546137         154.738         92.2046         155.781 
       0.552299         152.104         90.0544          152.47 
       0.558452         149.234         87.9748         150.033 
       0.564573         146.596         85.9626         148.585 
       0.570708         144.426          83.993         146.366 
       0.576825         142.434         82.0723         143.668 
       0.582926         139.955          80.203         141.612 
       0.589034         137.724         78.3857          140.23 
       0.595184         136.053         76.6182         137.765 
       0.601379         134.616         74.9035         136.574 
       0.607522         131.393         73.2648         133.862 
       0.613639          130.97         71.6889         132.496 
       0.619772         128.056         70.1601         130.336 
       0.625918         126.679         68.6752         129.109 
       0.632068         125.238          67.233         126.944 
       0.638161         123.918         65.8438         126.012 
         0.6443         122.269         64.4809         124.043 
       0.650464         120.734         63.1472          121.67 
       0.656582         119.157         61.8566         120.905 
       0.662703         117.148         60.5996         119.018 
       0.668861         115.747         59.3704         117.793 
       0.675024         114.349         58.1763         116.104 
       0.681124         113.266         57.0306         114.817 
       0.687237          111.19         55.9173         113.361 
       0.693381         109.869         54.8309         111.875 
       0.699536         108.753         53.7728         111.101 
       0.705665          109.04         52.7473         110.208 
       0.711789         106.063         51.7483         108.069 
       0.717957         105.569         50.7667         107.187 
        0.72409         104.023         49.8147           106.6 
       0.730186         102.263         48.8921         105.319 
       0.736317             102         47.9876         103.772 
       0.742472         100.881         47.1028         102.777 
       0.748622         99.9366          46.242         101.551 
        0.75476           98.86         45.4056          100.39 
       0.760888         97.4324         44.5921         99.1267 
       0.767043         96.5902         43.7961         98.6993 
       0.773185         95.4887         43.0216         97.9748 
       0.779291         94.5751         42.2706         96.8398 
       0.785407         93.8709         41.5366         95.4954 
       0.791564          92.658         40.8152          94.688 
       0.797719          91.359         40.1111         94.0739 
       0.803834         90.9458         39.4279         92.7396 
       0.809972            89.4         38.7581         91.9591 
       0.816124         88.9723         38.1023         91.3896 
       0.822261         88.1978         37.4634         90.2651 
       0.828378         87.3632         36.8412         89.0562 
       0.834502         86.6518         36.2328         88.7322 
       0.840667         85.6932         35.6343         88.1531 
       0.846816         84.6939         35.0512         87.1843 
       0.852925         83.9645          34.485         86.3486 
       0.859047         82.8519         33.9303         85.4271 
       0.865192         82.4639         33.3862         84.9166 
       0.871341         81.8389         32.8537         84.0033 
       0.877463         80.6107         32.3354         83.4279 
       0.883569         80.0865         31.8297         82.8722 
       0.889708         79.5937         31.3323         82.0709 
       0.895864         78.8545         30.8443         81.4705 
       0.902008         78.1887         30.3678         80.6407 
       0.908149         77.6307         29.9016         80.0543 
       0.914301         76.7852         29.4445         79.5462 
       0.920448         76.2434         28.9975         78.8428 
       0.926574         75.5528         28.5613         77.9555 
       0.932687          75.165         28.1351         77.4924 
       0.938823         73.9679         27.7161         76.7562 
       0.944975         73.6571         27.3047         76.1582 
       0.951105         72.9643         26.9032         75.7534 
       0.957225         72.0647         26.5105         75.1934 
       0.963368         71.8983         26.1243         74.3141 
       0.969511         71.4204         25.7459          73.838 
       0.975621          70.912          25.377         73.8024 
       0.981748         70.1728         25.0145         72.9857 
       0.987916         69.5999         24.6569         72.6161 
        0.99406          69.206         24.3076         71.9398 
        1.00019         68.3785         23.9658         71.3523 
        1.00632         68.0979          23.631         70.8831 
        1.01246         67.4416         23.3021         70.2756 
        1.01859         66.5862           22.98         69.9031 
        1.02471         66.7519         22.6645         69.5392 
        1.03085           65.98         22.3538         68.9156 
        1.03698         65.4338         22.0496         68.3779 
        1.04314         64.7878         21.7499         67.8556 
        1.04929         64.4509         21.4564         67.5794 
        1.05541         63.8385         21.1695          67.308 
        1.06154         63.6775         20.8873         66.7447 
        1.06769         63.0835         20.6097         66.3216 
        1.07382         62.8135         20.3382         65.8394 
        1.07993         62.4518         20.0722          65.375 
        1.08607         61.8175         19.8098           64.96 
        1.09222         61.5068         19.5519         64.4257 
        1.09836          61.051          19.299         64.0588 
        1.10449         60.5932         19.0508         63.6346 
        1.11063         60.0182         18.8067         63.1038 
        1.11677         59.6567          18.567          62.701 
         1.1229         59.3192          18.332         62.5104 
        1.12903         58.5003         18.1008         62.0618 
        1.13518         58.6697         17.8734         61.6367 
        1.14131          58.303         17.6501          61.315 
        1.14745         57.5026         17.4307         60.9318 
        1.15359          57.384          17.215         60.6529 
        1.15973         56.8235         17.0029         60.2428 
        1.16584         56.4543         16.7953         59.7534 
        1.17197         56.1434         16.5909         59.4778 
        1.17811         55.8278         16.3893          59.023 
        1.18424         55.2752         16.1917         58.6865 
        1.19038         55.0894         15.9967         58.4957 
        1.19652         54.8261         15.8051         57.9955 
        1.20267         54.3565         15.6166         57.7988 
        1.20881         53.9964         15.4312         57.3888 
        1.21495         53.5473         15.2492         57.1327 
        1.22108         53.2502         15.0701         56.7857 
         1.2272         52.7332         14.8943         56.5113 
        1.23334         52.5575          14.721         56.1384 
        1.23949         52.4262           14.55         55.7285 
        1.24562         51.9793         14.3822         55.4826 
        1.25174         51.7351         14.2173         55.2521 
        1.25789         51.4385         14.0545         54.8492 
        1.26402         51.0085         13.8946         54.5305 
        1.27014         50.5463         13.7375         54.3393 
        1.27628         50.3942         13.5824         54.0146 
        1.28244         49.9402         13.4295         53.6994 
        1.28858         49.7566         13.2791         53.4287 
        1.29471         49.6112         13.1313         53.2184 
        1.30084         49.2494         12.9859         52.7241 
        1.30697         48.8468         12.8426         52.4325 
        1.31312          48.515         12.7012         52.3377 
        1.31925         48.3724         12.5623         51.9862 
        1.32537         48.1125         12.4257         51.7114 
        1.33151         47.6877         12.2907          51.466 
        1.33765         47.5865         12.1577         51.2044 
        1.34378         47.2836          12.027          50.918 
        1.34992         46.7963         11.8981         50.6959 
        1.35606          46.572         11.7708         50.5133 
         1.3622          46.281         11.6456         50.2241 
        1.36833         46.0829         11.5226         49.9473 
        1.37445         45.9456         11.4014         49.6907 
        1.38059         45.6439         11.2815         49.6079 
        1.38675         45.2884         11.1631         49.2336 
        1.39288         45.1252         11.0469         49.0701 
        1.39901         44.7671         10.9324         48.8041 
        1.40515         44.5666         10.8192          48.536 
         1.4113         44.4191         10.7077         48.3066 
        1.41742         44.0407         10.5982         48.0721 
        1.42355         43.8346         10.4901         47.8021 
         1.4297         43.5372         10.3831           47.53 
        1.43585         43.4206         10.2776         47.3968 
        1.44198         43.1026         10.1741         47.2063 
        1.44809           42.91         10.0721         46.8364 
        1.45423         42.7289         9.97122         46.6175 
        1.46036         42.4761         9.87187         46.4506 
        1.46649          42.202         9.77384          46.279 
        1.47263         41.9763         9.67707         46.0836 
        1.47877         41.8358         9.58166         45.8364 
        1.48491         41.6404         9.48738         45.6002 
        1.49104         41.3386         9.39458         45.3671 
        1.49718          40.962         9.30295         45.1667 
        1.50333          40.875          9.2124         44.9974 
        1.50947         40.6673         9.12324         44.8131 
         1.5156         40.4081          9.0354         44.6114 
        1.52172         40.1734         8.94872         44.4064 
        1.52787         40.1711           8.863         44.1978 
          1.534         39.8171         8.77852         44.0154 
        1.54013         39.5872         8.69522         43.8015 
        1.54627         39.4742         8.61286           43.58 
        1.55241         39.1989         8.53156         43.3912 
        1.55855         38.9777         8.45142          43.209 
        1.56467         38.6524         8.37254         43.0269 
         1.5708         38.6454         8.29444         42.8783 
        1.57695          38.333         8.21722         42.6926 
        1.58308         38.2725         8.14117         42.4641 
        1.58922         38.1428         8.06603         42.2831 
        1.59535         37.8571         7.99187         42.1218 
         1.6015         37.5952         7.91854         41.9078 
        1.60764         37.4616         7.84617         41.7172 
        1.61376         37.2624          7.7749         41.5812 
        1.61989         36.9404         7.70446         41.3761 
        1.62604         36.8997         7.63474         41.2122 
        1.63218         36.7136         7.56592         41.0777 
        1.63831         36.5012         7.49811         40.9119 
        1.64444         36.3591         7.43111         40.7194 
        1.65059          36.031         7.36477         40.5456 
        1.65673         35.8939         7.29931         40.3629 
        1.66285          35.751         7.23483         40.2079 
        1.66898         35.5461          7.1711         40.0981 
        1.67512         35.4075         7.10803         39.9387 
        1.68127         35.1446         7.04565         39.7212 
         1.6874         35.0642         6.98417         39.5035 
        1.69353           34.84         6.92345         39.3481 
        1.69967          34.679         6.86332         39.2302 
        1.70581         34.5823         6.80393         39.1437 
        1.71193         34.3644         6.74546         38.9976 
        1.71806         34.1504         6.68756         38.7061 
        1.72421         33.9543         6.63022         38.5336 
        1.73035         33.7906         6.57363         38.4785 
        1.73649         33.6467         6.51771         38.3766 
        1.74262         33.4662         6.46248         38.0912 
        1.74876         33.4585         6.40786          37.913 
        1.75489         33.1761         6.35398         37.8294 
        1.76101         33.0107         6.30074         37.7125 
        1.76715         32.8649         6.24804         37.5579 
        1.77329         32.6967         6.19588          37.399 
        1.77943         32.5899         6.14429         37.2505 
        1.78557         32.3881         6.09336         37.1057 
        1.79171         32.2244           6.043         36.9543 
        1.79785         32.0644         5.99321         36.8435 
        1.80399         31.9416         5.94398         36.7654 
        1.81012         31.8298         5.89537         36.5132 
        1.81625         31.6191         5.84733         36.2939 
        1.82239         31.5308         5.79975         36.2207 
        1.82853         31.2558         5.75273         36.1146 
        1.83466         31.1624         5.70627         35.9743 
        1.84078         30.9338         5.66038         35.8398 
        1.84692         30.8473         5.61492         35.7337 
        1.85306          30.694          5.5699         35.6037 
         1.8592         30.5512         5.52544         35.4534 
        1.86533         30.3563          5.4815         35.3241 
        1.87147         30.2611         5.43799          35.197 
