# k  (h/Mpc)    P(k)  (Mpc/h)^3    P_linear(k)  (Mpc/h)^3     P_NL(k)  ShotnoiseSubtracted = false
     0.00783031         8432.96         8539.07         8506.26 
       0.013688         10755.8         10690.3           10633 
       0.019231         10987.6         10969.9         10894.1 
      0.0249154         10105.7         10264.9         10193.7 
      0.0312784         8899.09         8965.03         8902.14 
      0.0375637         7649.78         7641.14         7587.13 
      0.0433917         6535.58         6612.34         6559.31 
      0.0492413         5820.89         5839.72         5792.24 
      0.0555754         5160.29          5265.2         5222.45 
      0.0619321          4898.1         4873.27         4830.85 
       0.067871          4501.3         4581.92         4540.34 
      0.0738098         4210.36         4291.56         4226.02 
      0.0800417         3837.14         3946.96         3886.39 
      0.0862327         3497.84         3562.63         3529.52 
      0.0921407         3168.91         3183.61          3159.5 
      0.0982031         2796.79         2819.56            2830 
       0.104506         2552.05         2500.71         2539.46 
       0.110769         2313.08         2259.86          2288.3 
       0.116806         2139.42         2096.43         2124.25 
       0.122832         2036.53         1984.81         2015.73 
       0.129052         1912.42         1900.27         1925.41 
       0.135211         1834.85         1823.58         1844.22 
       0.141259         1768.34         1737.93          1764.9 
       0.147318         1675.22         1634.53         1675.06 
       0.153489         1541.36         1513.82         1542.09 
       0.159709         1441.16         1386.76         1435.51 
       0.165845         1356.59         1268.46         1347.78 
       0.171974            1256         1167.14            1250 
       0.178125          1183.5         1087.12         1188.89 
       0.184229         1128.37          1028.6         1125.68 
        0.19034         1058.21         986.199         1078.08 
       0.196428         1043.21         953.143          1031.6 
       0.202534         1015.28         922.079         1000.23 
       0.208729         970.122         887.091         957.027 
       0.214876         922.944         846.285         932.479 
       0.220989         892.064          800.25         895.297 
       0.227147         842.158         751.336         853.154 
        0.23329         802.861         703.916         820.002 
       0.239377         779.388         661.701         782.169 
       0.245482         725.307         626.124          740.97 
       0.251667         715.958         597.324         718.453 
       0.257832         690.122         574.727         691.261 
       0.263955         668.092         556.198         668.218 
       0.270079         645.469         539.195         648.769 
        0.27624         638.193         521.662         627.824 
       0.282372         612.386         502.589         611.183 
        0.28843         596.621          482.05         592.582 
       0.294538         567.585          460.29         575.832 
       0.300721         562.518         438.373         558.748 
        0.30691         535.623         417.751         543.511 
       0.313033         523.691         399.522         522.921 
       0.319153         506.403         383.814         507.527 
       0.325316         491.901         370.343         495.554 
        0.33145         477.622         358.725         477.311 
       0.337538         470.972         348.205         465.655 
       0.343633          456.18         337.971         459.773 
       0.349808         441.551         327.419         450.553 
       0.355968         436.659         316.462         441.703 
       0.362074         427.457         305.307         430.703 
       0.368217         415.556         294.049          417.06 
       0.374374         399.181         283.139         407.457 
       0.380519         394.808         272.948         396.869 
       0.386598         384.929         263.738         390.005 
       0.392688         381.517         255.442         379.333 
        0.39888         370.851         247.802         371.318 
       0.405048          362.83         240.798         366.257 
       0.411186         355.507         234.178         356.615 
       0.417313          349.11         227.689         348.203 
       0.423458         342.317         221.202         342.489 
       0.429607         335.034         214.691         335.922 
       0.435692         326.639         208.269         328.873 
       0.441815         323.935         201.949         325.573 
       0.447964         317.191         195.854         318.884 
       0.454126         306.451         190.071         310.088 
       0.460267         302.387         184.688         307.527 
       0.466387         298.957         179.695         301.165 
        0.47254          292.37         174.976         296.301 
       0.478662         291.095         170.514         290.586 
       0.484765         282.056         166.231         284.034 
       0.490885         278.542         162.037         280.528 
       0.497035         273.879         157.879         277.034 
       0.503198         268.075         153.779         272.707 
       0.509342         265.499         149.782         269.193 
       0.515458         262.069         145.915         266.446 
       0.521598          257.23         142.171         260.813 
       0.527764         253.062         138.574         256.826 
       0.533884         250.099         135.181         253.435 
           0.54         246.499         131.953         249.474 
       0.546137         244.986         128.848         246.659 
       0.552299         240.105         125.843         242.208 
       0.558452         237.404         122.937         239.085 
       0.564573         233.585         120.125         236.978 
       0.570708         229.325         117.373         234.064 
       0.576825         226.174         114.689         229.477 
       0.582926         223.302         112.077         226.805 
       0.589034         220.667         109.537         224.502 
       0.595184         218.216         107.067         220.406 
       0.601379         215.966         104.671         219.134 
       0.607522         211.637         102.381         215.816 
       0.613639         210.461         100.179         213.717 
       0.619772         205.835         98.0426         211.137 
       0.625918         204.254         95.9676         208.673 
       0.632068         201.528         93.9522         205.375 
       0.638161         200.334         92.0109          204.37 
         0.6443         197.206         90.1064         201.819 
       0.650464         195.096         88.2426         198.074 
       0.656582         193.373         86.4391         196.612 
       0.662703         191.263         84.6826         194.613 
       0.668861         188.134         82.9649           192.5 
       0.675024         185.836         81.2961         190.093 
       0.681124         185.018         79.6953         188.199 
       0.687237         182.055         78.1395         186.012 
       0.693381         179.445         76.6214         183.898 
       0.699536         178.157         75.1428         182.289 
       0.705665         177.599         73.7097         181.285 
       0.711789           174.2         72.3138         178.662 
       0.717957         173.537          70.942         176.976 
        0.72409         171.232         69.6117         176.051 
       0.730186           168.7         68.3224          174.31 
       0.736317         167.457         67.0584         172.035 
       0.742472         166.384         65.8221         170.507 
       0.748622         164.964         64.6191         168.546 
        0.75476         163.496         63.4504         167.193 
       0.760888         161.169         62.3136         165.028 
       0.767043         160.486         61.2012         164.124 
       0.773185         158.705         60.1189         163.141 
       0.779291         156.123         59.0695         161.325 
       0.785407         155.508         58.0437         159.461 
       0.791564         153.938         57.0357         158.462 
       0.797719         151.815         56.0518         157.534 
       0.803834         151.045         55.0971         155.613 
       0.809972         149.373          54.161         154.375 
       0.816124         149.181         53.2446          153.35 
       0.822261         147.233         52.3519         151.879 
       0.828378         145.823         51.4824         150.055 
       0.834502           145.6         50.6321         149.238 
       0.840667          143.24         49.7957         148.456 
       0.846816         142.015         48.9809         146.978 
       0.852925         141.185         48.1897         145.746 
       0.859047         139.466         47.4146         144.591 
       0.865192         138.538         46.6542         143.588 
       0.871341         137.209         45.9102         142.152 
       0.877463         136.076         45.1859          141.39 
       0.883569         135.168         44.4792         140.455 
       0.889708         134.103         43.7841         139.312 
       0.895864         132.653         43.1022         138.575 
       0.902008         131.876         42.4363         137.074 
       0.908149         131.167         41.7849         135.921 
       0.914301           129.7         41.1461         135.181 
       0.920448         128.763         40.5214         134.311 
       0.926574         127.977         39.9119         132.833 
       0.932687         127.441         39.3163         131.918 
       0.938823         125.581         38.7308         131.235 
       0.944975         124.484         38.1559         130.323 
       0.951105         123.874         37.5948          129.24 
       0.957225         122.434          37.046         128.455 
       0.963368         121.495         36.5064         127.073 
       0.969511         121.161         35.9776         126.395 
       0.975621         120.508         35.4622         126.591 
       0.981748         119.688         34.9556         125.232 
       0.987916         118.241         34.4558         124.509 
        0.99406         117.555         33.9677         123.444 
        1.00019         116.947         33.4901          122.42 
        1.00632         115.975         33.0222         121.654 
        1.01246         115.158         32.5626         120.626 
        1.01859         113.877         32.1125         120.256 
        1.02471         113.557         31.6716         119.845 
        1.03085          112.47         31.2375          118.82 
        1.03698         111.775         30.8124          117.83 
        1.04314         110.781         30.3935         117.246 
        1.04929         110.083         29.9834         116.731 
        1.05541         109.328         29.5826         116.083 
        1.06154         108.682         29.1881         115.437 
        1.06769         108.379         28.8003         114.733 
        1.07382         107.652         28.4208         114.004 
        1.07993         106.742         28.0491         113.269 
        1.08607         105.925         27.6825         112.616 
        1.09222         105.464         27.3221         111.847 
        1.09836          104.56         26.9686         111.055 
        1.10449         103.848         26.6218         110.481 
        1.11063          103.16         26.2807         109.522 
        1.11677         102.686         25.9458         108.985 
         1.1229         101.578         25.6173         108.659 
        1.12903         100.797         25.2942         107.821 
        1.13518         100.939         24.9765         107.231 
        1.14131         99.9253         24.6644         106.521 
        1.14745         99.1623         24.3578         106.026 
        1.15359         98.5558         24.0564         105.316 
        1.15973         98.1801           23.76         105.114 
        1.16584         97.3404           23.47         104.116 
        1.17197         96.7684         23.1843         103.737 
        1.17811         96.0901         22.9026         103.153 
        1.18424         95.5338         22.6264         102.662 
        1.19038         95.0567          22.354         102.045 
        1.19652         94.4682         22.0862         101.391 
        1.20267         93.6809         21.8228         100.876 
        1.20881         93.0911         21.5638         100.348 
        1.21495         92.5061         21.3094          99.613 
        1.22108          91.978         21.0591          99.403 
         1.2272         91.2234         20.8135          98.699 
        1.23334         90.8461         20.5713         98.3476 
        1.23949         90.0713         20.3323         97.5333 
        1.24562         89.7412         20.0978         97.0964 
        1.25174         89.0629         19.8674         96.6675 
        1.25789         88.6572         19.6399         96.1287 
        1.26402         88.2635         19.4164         95.6853 
        1.27014         87.4729          19.197         95.5069 
        1.27628         87.1471         18.9803         94.9934 
        1.28244         86.4125         18.7665         94.0337 
        1.28858         86.0974         18.5563         93.5806 
        1.29471          85.494         18.3498         93.3272 
        1.30084         84.9645         18.1467         92.6011 
        1.30697         84.4576         17.9463         92.2795 
        1.31312         84.0695         17.7487         91.9166 
        1.31925         83.5021         17.5547         91.3529 
        1.32537         83.1529         17.3639         90.9331 
        1.33151         82.3398         17.1751         90.4326 
        1.33765         81.9291         16.9893         90.0425 
        1.34378         81.4265         16.8066         89.5736 
        1.34992         81.2282         16.6265         89.1577 
        1.35606         80.6979         16.4487         88.6606 
         1.3622         79.9063         16.2737         88.2564 
        1.36833         79.7918         16.1018         87.7004 
        1.37445         79.1856         15.9324         87.2848 
        1.38059         78.6664         15.7649         87.0624 
        1.38675         78.1721         15.5995         86.3643 
        1.39288         77.7314          15.437         86.1609 
        1.39901         77.5408          15.277         85.7618 
        1.40515         77.0461         15.1189         85.4646 
         1.4113         76.4362         14.9631         85.1304 
        1.41742         76.3547         14.8101         84.5008 
        1.42355         75.6175         14.6589          83.987 
         1.4297         75.2652         14.5094          83.676 
        1.43585         74.6834         14.3621         83.3161 
        1.44198         74.4245         14.2174         83.0487 
        1.44809           73.99         14.0749         82.4246 
        1.45423         73.5209         13.9339         82.1087 
        1.46036         73.2908         13.7951         81.8297 
        1.46649         72.7904         13.6581         81.5455 
        1.47263          72.326         13.5229         81.1668 
        1.47877         72.1165         13.3895         80.5345 
        1.48491         71.6235         13.2578         80.3566 
        1.49104         71.2155         13.1281         79.9231 
        1.49718         70.7422         13.0001         79.5396 
        1.50333         70.3674         12.8735         79.1277 
        1.50947         69.9713         12.7489         78.7523 
         1.5156         69.6947         12.6262         78.4676 
        1.52172         69.2395          12.505         78.1725 
        1.52787         69.0676         12.3853         77.8124 
          1.534         68.5805         12.2672         77.4888 
        1.54013         68.0907         12.1508         77.0798 
        1.54627         67.8362         12.0357         76.7371 
        1.55241         67.3689         11.9221         76.4416 
        1.55855         67.0697         11.8101          75.971 
        1.56467         66.5617         11.6999         75.6706 
         1.5708         66.3945         11.5907         75.4622 
        1.57695         66.1279         11.4828         75.1734 
        1.58308         65.4984         11.3766         74.8358 
        1.58922         65.3944         11.2716         74.4457 
        1.59535         65.1516         11.1679         74.0894 
         1.6015         64.5238         11.0655         73.7215 
        1.60764         64.3341         10.9643         73.5112 
        1.61376         63.8966         10.8647         73.3738 
        1.61989         63.5638         10.7663          72.926 
        1.62604         63.3523         10.6689         72.4568 
        1.63218         63.0774         10.5727         72.1456 
        1.63831           62.62         10.4779          71.956 
        1.64444         62.3047         10.3843         71.6361 
        1.65059         61.8486         10.2916         71.1775 
        1.65673         61.6208         10.2001         70.9423 
        1.66285          61.284           10.11         70.7518 
        1.66898         61.0075          10.021         70.4003 
        1.67512         60.5943         9.93284         70.1801 
        1.68127         60.2634         9.84568         69.7951 
         1.6874         60.0303         9.75976         69.3861 
        1.69353         59.6931         9.67491         69.2531 
        1.69967          59.354         9.59088         69.0171 
        1.70581         59.1948         9.50788         68.6967 
        1.71193         58.9469         9.42618         68.3964 
        1.71806         58.3416         9.34527         68.1348 
        1.72421         58.2349         9.26515         67.8087 
        1.73035         57.8983         9.18606         67.5545 
        1.73649         57.4971         9.10792          67.355 
        1.74262         57.3535         9.03075         66.9844 
        1.74876         57.0356         8.95442         66.6675 
        1.75489         56.6521         8.87913         66.4298 
        1.76101          56.471         8.80473         66.1636 
        1.76715         56.0532         8.73108         65.8259 
        1.77329         55.8096         8.65819         65.5909 
        1.77943         55.4611          8.5861          65.358 
        1.78557         55.3108         8.51493         64.9964 
        1.79171         54.9779         8.44456         64.7162 
        1.79785         54.7535         8.37497         64.5202 
        1.80399         54.4645         8.30619         64.2929 
        1.81012         54.2516         8.23826         64.0147 
        1.81625         53.7543         8.17113         63.7202 
        1.82239         53.5866         8.10464          63.491 
        1.82853         53.2033         8.03893         63.3425 
        1.83466         53.0443         7.97401         63.0292 
        1.84078         52.6611         7.90988         62.6712 
        1.84692         52.3863         7.84635         62.5978 
        1.85306         52.1915         7.78344         62.3492 
         1.8592         51.8081         7.72132          61.983 
        1.86533          51.657         7.65991         61.8238 
        1.87147         51.3443         7.59911         61.5576 
        1.87761         51.1324         7.53893         61.2287 
