# k  (h/Mpc)    P(k)  (Mpc/h)^3    P_linear(k)  (Mpc/h)^3     P_NL(k)  ShotnoiseSubtracted = false
     0.00783031         9906.28         10035.3         9995.88 
       0.013688         12650.2         12562.7         12492.2 
       0.019231           12912           12891         12796.6 
      0.0249154         11856.7         12062.4         11970.1 
      0.0312784         10444.4         10534.8           10449 
      0.0375637         8983.87         8979.05         8904.34 
      0.0433917         7665.59         7770.08         7695.32 
      0.0492413         6832.52         6862.17          6794.6 
      0.0555754         6046.35         6187.04          6126.6 
      0.0619321         5750.68         5726.48         5666.75 
       0.067871         5273.99         5384.12         5326.22 
      0.0738098         4933.24         5042.92         4952.41 
      0.0800417         4491.85         4637.98         4554.34 
      0.0862327         4098.14         4186.37         4139.98 
      0.0921407         3719.01         3740.98         3706.59 
      0.0982031         3283.35         3313.19         3325.35 
       0.104506         3003.59         2938.52         2988.96 
       0.110769         2723.99         2655.51          2692.6 
       0.116806         2522.55         2463.46          2499.8 
       0.122832         2399.94         2332.29         2372.68 
       0.129052         2250.08         2232.95         2265.88 
       0.135211         2158.88         2142.84         2169.32 
       0.141259         2082.33          2042.2         2077.64 
       0.147318         1973.65         1920.69         1973.44 
       0.153489         1815.45         1778.85         1815.95 
       0.159709         1701.21         1629.54         1694.04 
       0.165845          1605.9         1490.54         1595.25 
       0.171974         1490.66         1371.47         1481.84 
       0.178125          1405.5         1277.44         1412.81 
       0.184229            1340         1208.68         1337.18 
        0.19034         1257.94         1158.85         1280.92 
       0.196428         1240.21         1120.01         1225.53 
       0.202534         1205.32         1083.51         1188.51 
       0.208729         1152.38          1042.4         1135.97 
       0.214876         1098.58         994.445         1108.64 
       0.220989         1062.15         940.351         1066.57 
       0.227147          1005.7         882.874         1018.97 
        0.23329         960.106         827.151         981.399 
       0.239377         934.733         777.546         937.004 
       0.245482         870.616          735.74         888.635 
       0.251667         861.047         701.898         862.622 
       0.257832         829.039         675.345          830.19 
       0.263955         802.936         653.572         802.905 
       0.270079         775.565         633.593         779.945 
        0.27624         767.564          612.99         755.429 
       0.282372          736.02         590.578         736.371 
        0.28843         720.516         566.444         715.229 
       0.294538         684.696         540.874         695.605 
       0.300721         679.891         515.119         675.187 
        0.30691         648.205         490.888         658.658 
       0.313033         634.611         469.467         634.277 
       0.319153         616.103         451.009         615.669 
       0.325316          597.64          435.18         601.742 
        0.33145          581.27         421.528         579.533 
       0.337538         572.991         409.165          566.37 
       0.343633         555.681          397.14         559.969 
       0.349808          537.39         384.741         549.223 
       0.355968          532.71         371.865         538.903 
       0.362074         522.979         358.757         526.203 
       0.368217         508.226         345.528         510.069 
       0.374374         487.275         332.709          498.84 
       0.380519          483.78         320.733         486.365 
       0.386598         471.586          309.91         479.013 
       0.392688         468.575         300.162         465.448 
        0.39888         454.997         291.185         456.791 
       0.405048         445.808         282.955         450.613 
       0.411186         437.606         275.176         438.754 
       0.417313         429.574         267.551         429.405 
       0.423458         421.525         259.929         422.814 
       0.429607         413.306         252.277         414.609 
       0.435692         403.554         244.731          406.02 
       0.441815         400.206         237.305         402.385 
       0.447964         391.572         230.142         394.697 
       0.454126         380.608         223.346         383.938 
       0.460267         374.873         217.021         381.326 
       0.466387         370.701         211.154         373.684 
        0.47254         362.957         205.609          368.07 
       0.478662         361.825         200.366         360.941 
       0.484765         350.232         195.333         353.476 
       0.490885         346.456         190.405         348.929 
       0.497035         340.155         185.519         344.784 
       0.503198         334.294         180.701         339.662 
       0.509342         331.498         176.004         335.449 
       0.515458         327.583         171.461         332.225 
       0.521598         320.746         167.061         325.746 
       0.527764         315.241         162.834         321.384 
       0.533884         312.559         158.847         317.177 
           0.54         308.228         155.054         312.227 
       0.546137         306.618         151.406         308.643 
       0.552299         300.314         147.875         303.661 
       0.558452         297.885          144.46         300.172 
       0.564573          293.23         141.155         297.613 
       0.570708          287.95         137.922         294.363 
       0.576825         283.248         134.767         288.582 
       0.582926         280.634         131.698           285.5 
       0.589034         277.702         128.714         282.292 
       0.595184         274.784         125.811         277.479 
       0.601379         271.713         122.996         275.718 
       0.607522         266.927         120.305         272.077 
       0.613639         265.395         117.717         269.702 
       0.619772          259.38         115.207          267.26 
       0.625918         258.103         112.769         263.674 
       0.632068         254.187         110.401         259.772 
       0.638161         253.039         108.119         258.446 
         0.6443         248.805         105.881         255.571 
       0.650464         246.262         103.691         250.954 
       0.656582         244.651         101.572         248.979 
       0.662703         242.716         99.5081         247.249 
       0.668861         238.377         97.4896         244.537 
       0.675024         235.507         95.5287         241.804 
       0.681124         234.531         93.6476         238.959 
       0.687237         231.437         91.8194         236.492 
       0.693381         227.954         90.0356         234.016 
       0.699536         226.146         88.2981         232.057 
       0.705665         224.731         86.6141          230.45 
       0.711789         221.788         84.9738         227.882 
       0.717957         220.621         83.3619         225.909 
        0.72409         218.021         81.7986         224.437 
       0.730186         215.232         80.2836         222.334 
       0.736317         213.093         78.7983         219.656 
       0.742472         211.909         77.3456         217.626 
       0.748622         210.153         75.9321         215.322 
        0.75476          208.33         74.5587         214.275 
       0.760888         205.468         73.2229         211.358 
       0.767043          205.16         71.9157          210.11 
       0.773185         202.651          70.644         208.714 
       0.779291         199.015         69.4108         206.387 
       0.785407         198.519         68.2054         204.442 
       0.791564         196.463         67.0209         203.099 
       0.797719         194.032         65.8648         201.935 
       0.803834         192.923         64.7429         200.007 
       0.809972         191.328          63.643         198.369 
       0.816124         191.188         62.5662         196.787 
       0.822261         188.452         61.5171         195.165 
       0.828378         186.765         60.4954         193.094 
       0.834502         186.542         59.4963         191.908 
       0.840667         183.453         58.5135         190.597 
       0.846816         182.128          57.556           189.1 
       0.852925         181.308         56.6263         187.653 
       0.859047         179.324         55.7155         186.313 
       0.865192         177.725          54.822         184.812 
       0.871341         176.113         53.9477         183.191 
       0.877463         174.821         53.0966         182.258 
       0.883569         173.916         52.2662         181.183 
       0.889708           172.3         51.4495         179.573 
       0.895864         170.173         50.6481         178.668 
       0.902008         169.537         49.8656         176.924 
       0.908149         168.768         49.1002         175.358 
       0.914301         166.713         48.3496         174.425 
       0.920448         165.454         47.6155         173.146 
       0.926574         164.561         46.8993         171.536 
       0.932687         164.035         46.1994         170.449 
       0.938823         161.851         45.5114         169.682 
       0.944975         160.436         44.8359         168.677 
       0.951105         159.729         44.1765         167.213 
       0.957225         157.991         43.5317         166.032 
       0.963368         156.261         42.8976         164.475 
       0.969511         155.817         42.2762         163.498 
       0.975621         154.796         41.6706           163.5 
       0.981748         154.292         41.0753          162.04 
       0.987916         152.371          40.488         161.022 
        0.99406         151.291         39.9145         159.864 
        1.00019         150.995         39.3533         158.613 
        1.00632         149.458         38.8034         157.375 
        1.01246         148.513         38.2634         156.071 
        1.01859         147.481         37.7345         155.721 
        1.02471         146.247         37.2164         155.196 
        1.03085         144.871         36.7062         153.992 
        1.03698         144.144         36.2068         152.887 
        1.04314         142.911         35.7145         151.982 
        1.04929         141.897         35.2326         151.185 
        1.05541         141.285         34.7616         150.336 
        1.06154         140.255         34.2981         149.513 
        1.06769          140.08         33.8424         148.705 
        1.07382         138.835         33.3965         147.764 
        1.07993         137.588         32.9596         146.771 
        1.08607         136.757         32.5289         146.069 
        1.09222          136.16         32.1054         145.372 
        1.09836         134.944           31.69         144.347 
        1.10449         133.747         31.2825         143.476 
        1.11063         132.807         30.8817         142.302 
        1.11677         132.426         30.4882         141.612 
         1.1229         131.083         30.1021         140.943 
        1.12903         130.358         29.7225          140.06 
        1.13518         130.142         29.3491         139.323 
        1.14131         128.699         28.9824         138.293 
        1.14745          128.18         28.6222         137.699 
        1.15359         127.216          28.268          136.83 
        1.15973          126.76         27.9197         136.418 
        1.16584         125.442         27.5789         135.161 
        1.17197          124.88         27.2432         134.677 
        1.17811         124.064         26.9122         134.141 
        1.18424         123.445         26.5877         133.239 
        1.19038         122.992         26.2676         132.656 
        1.19652         122.023         25.9529         131.923 
        1.20267         121.199         25.6433         131.124 
        1.20881         120.196          25.339         130.514 
        1.21495         119.664           25.04         129.556 
        1.22108         118.994          24.746         129.266 
         1.2272         117.961         24.4574         128.234 
        1.23334         117.409         24.1727         127.928 
        1.23949         116.309         23.8919         126.914 
        1.24562         115.827         23.6164         126.151 
        1.25174         114.743         23.3456         125.623 
        1.25789         114.322         23.0783         125.009 
        1.26402         113.724         22.8157         124.363 
        1.27014         112.947         22.5578         124.202 
        1.27628         112.335         22.3031         123.733 
        1.28244         111.724         22.0519         122.458 
        1.28858         111.274          21.805         121.781 
        1.29471         110.061         21.5623         121.336 
        1.30084         109.653         21.3236         120.568 
        1.30697         108.923         21.0882         120.148 
        1.31312         108.564          20.856         119.426 
        1.31925          107.53         20.6281         118.828 
        1.32537         107.087         20.4038         118.384 
        1.33151         106.074          20.182         117.667 
        1.33765         105.707         19.9637         117.195 
        1.34378         104.999          19.749         116.591 
        1.34992         104.814         19.5374         115.947 
        1.35606          104.01         19.3284         115.304 
         1.3622         103.089         19.1228         114.823 
        1.36833         102.711         18.9207         114.104 
        1.37445             102         18.7217         113.552 
        1.38059         101.535         18.5249         113.066 
        1.38675         100.746         18.3305          112.33 
        1.39288         100.351         18.1396          111.86 
        1.39901         99.9259         17.9516          111.49 
        1.40515         99.1847         17.7658         111.068 
         1.4113         98.3559         17.5827         110.582 
        1.41742         98.2109         17.4029         110.012 
        1.42355         97.3997         17.2253         109.349 
         1.4297         96.8724         17.0496         108.892 
        1.43585         96.0762         16.8765         108.224 
        1.44198         95.8324         16.7064         107.831 
        1.44809         95.1291          16.539         107.313 
        1.45423         94.4833         16.3733         106.713 
        1.46036         94.2744         16.2102         106.279 
        1.46649         93.5666         16.0492         105.951 
        1.47263         93.0126         15.8903         105.457 
        1.47877         92.7296         15.7336         104.635 
        1.48491         91.8249         15.5788         104.417 
        1.49104         91.5637         15.4264         104.041 
        1.49718         90.8491          15.276         103.253 
        1.50333         90.3856         15.1273         102.788 
        1.50947         89.9181         14.9809         102.376 
         1.5156         89.4281         14.8366         101.919 
        1.52172         88.7943         14.6943          101.52 
        1.52787         88.5174         14.5536         100.965 
          1.534         87.8973         14.4148         100.576 
        1.54013         87.2972         14.2781         100.101 
        1.54627         86.9633         14.1428         99.6422 
        1.55241          86.354         14.0093         99.2661 
        1.55855         86.0779         13.8777         98.6923 
        1.56467         85.5393         13.7482         98.2559 
         1.5708         84.9811         13.6199           97.89 
        1.57695         84.7852         13.4931         97.4605 
        1.58308          83.871         13.3683         97.0135 
        1.58922         83.7472         13.2449         96.5353 
        1.59535         83.2952         13.1231         96.1093 
         1.6015         82.7014         13.0027         95.6309 
        1.60764         82.2781         12.8839         95.2908 
        1.61376         81.9644         12.7668         95.1067 
        1.61989         81.3841         12.6512         94.6268 
        1.62604         81.0902         12.5367         93.9577 
        1.63218         80.6275         12.4237         93.5284 
        1.63831         79.9252         12.3123         93.3526 
        1.64444         79.6694         12.2023         92.8738 
        1.65059         79.1145         12.0934         92.2619 
        1.65673         78.5151         11.9859         91.9597 
        1.66285         78.3319           11.88         91.6917 
        1.66898         77.8266         11.7754         91.1792 
        1.67512         77.3553         11.6718         90.8506 
        1.68127         76.9728         11.5694         90.3904 
         1.6874         76.5634         11.4684         89.9193 
        1.69353         76.1271         11.3687         89.7161 
        1.69967          75.625           11.27          89.333 
        1.70581         75.4077         11.1724         88.8382 
        1.71193         75.1085         11.0764         88.4609 
        1.71806         74.4182         10.9814         88.2787 
        1.72421         74.1004         10.8872         87.8634 
        1.73035         73.7271         10.7943         87.3361 
        1.73649         73.3268         10.7024         86.9357 
        1.74262         72.9354         10.6118         86.7061 
        1.74876          72.601         10.5221         86.3405 
        1.75489         71.9938         10.4336         85.8909 
        1.76101         71.8144         10.3462          85.489 
        1.76715         71.3097         10.2596         85.0991 
        1.77329         70.9926          10.174         84.8071 
        1.77943         70.4709         10.0893         84.4755 
        1.78557         70.2919         10.0056         84.0038 
        1.79171         69.8034         9.92296         83.6618 
        1.79785         69.4913         9.84118         83.4051 
        1.80399         69.1666         9.76035          83.057 
        1.81012         68.8689         9.68054         82.6717 
        1.81625         68.3074         9.60165          82.295 
        1.82239         68.0443         9.52353         81.9814 
        1.82853         67.7324         9.44631          81.746 
        1.83466         67.3071         9.37003          81.369 
        1.84078         67.0134         9.29466         80.9618 
        1.84692         66.4882         9.22001         80.8152 
        1.85306         66.1751         9.14609         80.4638 
         1.8592         65.7318          9.0731         79.9853 
        1.86533         65.4837         9.00094         79.6944 
        1.87147         65.0027         8.92949          79.246 
        1.87761          64.755         8.85878         78.8752 
