# k  (h/Mpc)    P(k)  (Mpc/h)^3    P_linear(k)  (Mpc/h)^3     P_NL(k)  ShotnoiseSubtracted = false
     0.00783031         18496.4         18777.7         18693.1 
       0.013688           23751         23501.9         23333.4 
       0.019231         24141.6         24113.7         23877.5 
      0.0249154         21995.2         22562.4         22297.3 
      0.0312784         19398.1         19704.2         19416.5 
      0.0375637         16737.9         16793.9         16535.2 
      0.0433917         14193.2         14532.5         14262.2 
      0.0492413         12697.3         12834.3         12584.3 
      0.0555754           11137         11571.5         11351.4 
      0.0619321         10686.4           10710         10495.8 
       0.067871         9705.59         10069.6         9866.89 
      0.0738098         9082.03         9431.46         9122.06 
      0.0800417         8233.79         8674.11          8389.9 
      0.0862327         7542.19         7829.46         7664.65 
      0.0921407         6902.81         6996.47         6871.06 
      0.0982031         6113.44          6196.4         6214.97 
       0.104506         5654.39         5495.66         5635.33 
       0.110769         5147.27         4966.37         5075.69 
       0.116806         4803.37         4607.19         4714.57 
       0.122832         4553.98         4361.87         4478.98 
       0.129052         4243.12         4176.08         4275.04 
       0.135211         4064.55         4007.55         4080.45 
       0.141259         3936.95         3819.33         3925.65 
       0.147318          3744.2         3592.08         3738.22 
       0.153489          3443.6         3326.81         3438.63 
       0.159709         3252.84         3047.57         3240.49 
       0.165845         3116.72          2787.6         3090.11 
       0.171974          2924.3         2564.92         2896.94 
       0.178125         2768.16         2389.06         2788.55 
       0.184229         2629.06         2260.47         2634.87 
        0.19034         2505.09         2167.28         2527.87 
       0.196428         2457.28         2094.64         2425.46 
       0.202534         2367.14         2026.37          2354.4 
       0.208729         2274.42         1949.48         2243.01 
       0.214876         2197.52          1859.8         2196.33 
       0.220989         2122.93         1758.64         2133.16 
       0.227147         2037.37         1651.14         2064.77 
        0.23329         1955.35         1546.93          2000.1 
       0.239377         1925.71         1454.16         1917.69 
       0.245482         1809.96         1375.97         1830.58 
       0.251667         1798.93         1312.68         1781.55 
       0.257832         1727.74         1263.02         1719.73 
       0.263955         1671.75          1222.3          1670.2 
       0.270079         1618.14         1184.94          1625.2 
        0.27624         1598.83         1146.41         1579.87 
       0.282372         1534.81         1104.49         1556.41 
        0.28843         1532.81         1059.36         1527.46 
       0.294538         1460.79         1011.54         1485.16 
       0.300721         1448.22          963.37          1441.5 
        0.30691         1397.31         918.052         1421.64 
       0.313033          1367.8         877.992         1375.18 
       0.319153         1351.03         843.472         1334.13 
       0.325316            1306         813.868         1311.32 
        0.33145         1279.82         788.336         1265.06 
       0.337538         1253.74         765.216         1245.84 
       0.343633         1231.29         742.726         1231.91 
       0.349808         1192.72         719.538         1214.49 
       0.355968         1182.62         695.458         1194.47 
       0.362074         1173.16         670.943         1174.07 
       0.368217         1134.97         646.203          1147.3 
       0.374374         1097.48         622.228         1125.42 
       0.380519         1100.18         599.831         1103.55 
       0.386598         1067.55         579.591         1087.71 
       0.392688         1062.54         561.359         1064.54 
        0.39888         1032.95          544.57         1046.51 
       0.405048         1023.55         529.179         1028.42 
       0.411186         1008.45          514.63         1012.15 
       0.417313         987.194          500.37         1000.59 
       0.423458         970.177         486.115         982.786 
       0.429607          959.29         471.805         967.994 
       0.435692         941.118         457.693         947.954 
       0.441815         932.204         443.804         945.222 
       0.447964         913.293         430.408          933.76 
       0.454126         908.092         417.699         906.921 
       0.460267         885.113          405.87         904.946 
       0.466387         872.752         394.897         888.802 
        0.47254         872.953         384.527         876.206 
       0.478662          859.44         374.721         864.102 
       0.484765         837.227         365.309         855.429 
       0.490885         832.574         356.093         839.417 
       0.497035         814.222         346.954         832.567 
       0.503198         809.971         337.945         823.745 
       0.509342         800.202         329.161          809.22 
       0.515458         796.434         320.664         803.999 
       0.521598         777.362         312.436          796.52 
       0.527764         764.085          304.53         788.699 
       0.533884         761.283         297.074         779.566 
           0.54         756.038         289.979         770.496 
       0.546137         745.764         283.156         761.784 
       0.552299         738.032         276.553         751.342 
       0.558452         730.412         270.166         745.804 
       0.564573         721.828         263.987         739.062 
       0.570708         714.274          257.94         729.593 
       0.576825          696.41          252.04         720.543 
       0.582926         699.532           246.3         715.775 
       0.589034         691.003         240.719         704.948 
       0.595184         685.261          235.29          698.58 
       0.601379         675.742         230.025         692.485 
       0.607522          665.92         224.993         682.055 
       0.613639         665.675         220.153         680.042 
       0.619772         653.618         215.458         677.979 
       0.625918         648.078         210.898         668.878 
       0.632068         640.401         206.469         665.603 
       0.638161         637.112         202.203         654.528 
         0.6443         626.944         198.018         649.599 
       0.650464         625.233         193.922         641.476 
       0.656582         618.348         189.959         637.874 
       0.662703         616.397         186.098          633.07 
       0.668861         606.269         182.324         630.368 
       0.675024         600.647         178.656         626.021 
       0.681124         596.844         175.138         616.581 
       0.687237         592.447         171.719          611.01 
       0.693381         584.622         168.383         605.459 
       0.699536         574.128         165.134         601.425 
       0.705665         574.661         161.984         594.193 
       0.711789         570.852         158.917         589.548 
       0.717957         565.452         155.902         589.036 
        0.72409         562.535         152.979         582.595 
       0.730186         553.959         150.145         576.497 
       0.736317         551.659         147.367         572.746 
       0.742472             547         144.651         569.066 
       0.748622         541.532         142.007         563.248 
        0.75476         532.847         139.438         563.773 
       0.760888         529.082          136.94         557.157 
       0.767043         527.926         134.496         549.869 
       0.773185         523.331         132.117         546.723 
       0.779291         518.183         129.811         542.324 
       0.785407         513.137         127.557          539.19 
       0.791564         508.317         125.341          537.49 
       0.797719           506.6         123.179         532.073 
       0.803834         499.803         121.081         528.686 
       0.809972         498.115         119.024         525.409 
       0.816124          496.46          117.01         519.039 
       0.822261          488.81         115.048         516.588 
       0.828378         486.791         113.138         512.904 
       0.834502         481.064         111.269         511.333 
       0.840667         477.296         109.431         507.183 
       0.846816         474.539          107.64         503.105 
       0.852925         471.514         105.902         500.179 
       0.859047         469.744         104.198         495.107 
       0.865192           462.9         102.527         492.067 
       0.871341         459.172         100.892         489.188 
       0.877463         458.862         99.3005         486.325 
       0.883569         453.682         97.7475         483.998 
       0.889708          451.48           96.22         479.135 
       0.895864         449.949         94.7214         476.581 
       0.902008         445.649         93.2579         473.279 
       0.908149         438.801         91.8264         468.723 
       0.914301         437.643         90.4227         465.004 
       0.920448         435.379         89.0498         464.154 
       0.926574         428.435         87.7104         460.862 
       0.932687         427.228         86.4014         456.707 
       0.938823          423.01         85.1147         455.893 
       0.944975         422.796         83.8513         452.393 
       0.951105         418.205         82.6183          448.87 
       0.957225         415.042         81.4123         446.595 
       0.963368         410.433         80.2264          443.74 
       0.969511         409.302         79.0643         441.131 
       0.975621         406.851         77.9317         437.943 
       0.981748         403.239         76.8184         435.486 
       0.987916         401.052         75.7201         433.467 
        0.99406         395.316         74.6474         430.504 
        1.00019         393.392         73.5979         426.645 
        1.00632         391.691         72.5696         423.934 
        1.01246         388.216         71.5595         421.405 
        1.01859          387.23         70.5705         418.584 
        1.02471         382.633         69.6014         416.438 
        1.03085         380.651         68.6474         415.107 
        1.03698         378.471         67.7133         413.291 
        1.04314         375.431         66.7927         410.125 
        1.04929         371.622         65.8915         406.428 
        1.05541         372.204         65.0106         403.884 
        1.06154         366.427         64.1438         401.949 
        1.06769         364.652         63.2915         399.011 
        1.07382         361.537         62.4575         396.685 
        1.07993           359.6         61.6406         394.739 
        1.08607         358.556          60.835         391.942 
        1.09222         354.002          60.043         389.713 
        1.09836         351.508         59.2662         388.329 
        1.10449         349.571          58.504         386.269 
        1.11063         344.518         57.7545         382.761 
        1.11677          345.65         57.0185          381.12 
         1.1229         342.629         56.2966          378.66 
        1.12903          340.33         55.5866         376.587 
        1.13518         336.482         54.8883         373.686 
        1.14131         335.064         54.2024         372.392 
        1.14745         332.151         53.5287         369.214 
        1.15359         330.663         52.8664         368.508 
        1.15973         328.365          52.215         365.909 
        1.16584          325.67         51.5775         364.554 
        1.17197         324.701         50.9499         362.481 
        1.17811          321.44         50.3308         359.772 
        1.18424         318.735         49.7238         357.999 
        1.19038         317.214         49.1252          356.67 
        1.19652          315.12         48.5366         353.655 
        1.20267         313.529         47.9578         352.068 
        1.20881         311.073         47.3885         350.249 
        1.21495         308.835         46.8294         347.915 
        1.22108         306.756         46.2795         345.594 
         1.2272         304.903         45.7397         344.463 
        1.23334         303.015         45.2074         342.069 
        1.23949         299.792         44.6823          340.21 
        1.24562         298.512          44.167         338.278 
        1.25174         297.079         43.6606          336.57 
        1.25789         293.806         43.1607         334.623 
        1.26402         292.193         42.6695         333.487 
        1.27014         289.992         42.1872         330.878 
        1.27628         287.621          41.711         330.038 
        1.28244         287.776         41.2412         328.527 
        1.28858          284.68         40.7793         326.424 
        1.29471          283.58         40.3255             324 
        1.30084         280.835         39.8791         322.047 
        1.30697         279.806         39.4388          320.91 
        1.31312          276.58         39.0046         319.215 
        1.31925         274.987         38.5783         317.316 
        1.32537          274.13         38.1588         315.117 
        1.33151         271.518          37.744         313.925 
        1.33765          269.15         37.3357           312.6 
        1.34378         268.425         36.9343         310.329 
        1.34992         266.618         36.5384         308.678 
        1.35606         264.792         36.1476         306.765 
         1.3622         262.612         35.7631         305.847 
        1.36833         261.387         35.3852          304.75 
        1.37445         259.231          35.013         301.984 
        1.38059          257.37          34.645         301.191 
        1.38675          255.83         34.2813         300.017 
        1.39288         254.363         33.9244         297.868 
        1.39901         252.694         33.5727         295.957 
        1.40515         251.349         33.2253          294.12 
         1.4113         249.278         32.8829         292.484 
        1.41742         247.384         32.5466         291.267 
        1.42355         246.297         32.2144         289.741 
         1.4297         244.417         31.8859         287.759 
        1.43585         242.981         31.5621           287.4 
        1.44198         241.816         31.2441         285.383 
        1.44809         239.124          30.931          283.99 
        1.45423         237.897         30.6211         281.884 
        1.46036         236.576          30.316          280.79 
        1.46649          235.18          30.015         279.606 
        1.47263          233.86         29.7178         277.656 
        1.47877         231.836         29.4248         276.031 
        1.48491         229.552         29.1353         274.424 
        1.49104         228.774         28.8503         273.244 
        1.49718         227.057         28.5689         272.864 
        1.50333          226.11         28.2908         270.889 
        1.50947         224.421          28.017         269.277 
         1.5156         222.425         27.7472         268.261 
        1.52172         221.733         27.4811          266.76 
        1.52787         219.691         27.2178         265.476 
          1.534         219.027         26.9584         263.987 
        1.54013         216.822         26.7026         262.759 
        1.54627         215.926         26.4497         261.753 
        1.55241         214.451            26.2         260.542 
        1.55855         212.216         25.9539         259.172 
        1.56467         212.122         25.7116          257.41 
         1.5708         210.305         25.4718         256.011 
        1.57695         208.749         25.2347          254.83 
        1.58308         207.516         25.0011         253.373 
        1.58922         205.463         24.7704         252.147 
        1.59535         204.462         24.5426         251.199 
         1.6015         203.027         24.3174         250.323 
        1.60764         202.028         24.0952         248.887 
        1.61376         200.862         23.8763         247.164 
        1.61989         199.517           23.66         246.047 
        1.62604         197.979         23.4459         244.799 
        1.63218         196.935         23.2345         243.601 
        1.63831         195.449         23.0263         242.514 
        1.64444         194.289         22.8205         241.263 
        1.65059         193.441         22.6168         240.269 
        1.65673         191.823         22.4158         239.145 
        1.66285         190.381         22.2178         237.757 
        1.66898         189.437         22.0221         236.387 
        1.67512         188.444         21.8284         235.422 
        1.68127         186.404         21.6368         234.258 
         1.6874         185.822          21.448         233.083 
        1.69353         184.428         21.2616         232.294 
        1.69967         183.038         21.0769         231.076 
        1.70581         182.192         20.8945         229.906 
        1.71193         180.675          20.715         228.831 
        1.71806         179.956         20.5371         227.427 
        1.72421         178.532         20.3611         226.356 
        1.73035         177.782         20.1873         225.322 
        1.73649         176.571         20.0155         224.131 
        1.74262         175.223         19.8459         223.113 
        1.74876         173.804         19.6782         222.071 
        1.75489         173.199         19.5127         221.125 
        1.76101         171.703         19.3492         220.298 
        1.76715         170.816         19.1874         219.224 
        1.77329         169.736         19.0272         218.243 
        1.77943         168.738         18.8688         217.203 
        1.78557         167.417         18.7124           215.9 
        1.79171         166.775         18.5577         214.903 
        1.79785         165.222         18.4048         213.976 
        1.80399         164.369         18.2536         212.801 
        1.81012         163.385         18.1044         212.152 
        1.81625         162.499         17.9568         211.284 
        1.82239         161.204         17.8107         209.968 
        1.82853         160.518         17.6663         209.031 
        1.83466         159.544         17.5237          208.02 
        1.84078         158.503         17.3827         206.954 
        1.84692         157.356         17.2431         206.272 
        1.85306         156.389         17.1049         205.207 
         1.8592         155.421         16.9683         204.032 
        1.86533          154.68         16.8334         203.384 
        1.87147         153.649         16.6998         202.548 
        1.87761         152.596         16.5675         201.524 
