# k  (h/Mpc)    P(k)  (Mpc/h)^3    P_linear(k)  (Mpc/h)^3     P_NL(k)  ShotnoiseSubtracted = false
     0.00783031         2977.84         3009.44         2998.41 
       0.013688         3775.48         3768.78         3752.01 
       0.019231          3871.6         3867.88         3846.99 
      0.0249154         3587.16         3619.59          3603.8 
      0.0312784         3152.54         3161.38         3152.28 
      0.0375637          2701.8         2694.62         2688.04 
      0.0433917         2321.89         2331.86            2327 
      0.0492413         2060.46         2059.42         2055.68 
      0.0555754          1841.1         1856.83         1852.98 
      0.0619321         1729.58         1718.63         1714.52 
       0.067871         1604.91         1615.89         1611.03 
      0.0738098         1501.23          1513.5         1505.21 
      0.0800417         1373.83         1391.97         1384.34 
      0.0862327         1247.22         1256.44         1252.62 
      0.0921407         1121.84         1122.77         1120.61 
      0.0982031           990.1         994.382         997.149 
       0.104506         892.251         881.934         888.677 
       0.110769         806.888         796.996         802.156 
       0.116806         744.108         739.359          744.24 
       0.122832         708.655         699.992         705.254 
       0.129052         670.985         670.178         674.379 
       0.135211         643.289         643.133         646.786 
       0.141259         617.331         612.928         617.251 
       0.147318         583.681          576.46         583.083 
       0.153489         538.182          533.89         538.571 
       0.159709         497.382         489.078          496.71 
       0.165845         462.451         447.358         459.657 
       0.171974         423.783         411.623          424.02 
       0.178125         397.665         383.401         398.539 
       0.184229         378.344         362.765         377.522 
        0.19034         356.371          347.81         361.577 
       0.196428         349.122         336.152         347.358 
       0.202534         340.771         325.197         336.335 
       0.208729         325.441         312.857         323.212 
       0.214876         308.358         298.466         311.545 
       0.220989         296.649         282.231         296.473 
       0.227147         276.823          264.98         279.827 
        0.23329          261.66         248.256         265.515 
       0.239377         249.931         233.368         251.642 
       0.245482         233.678          220.82         237.835 
       0.251667         227.622         210.663         228.786 
       0.257832         219.589         202.694         220.065 
       0.263955         212.143         196.159         212.575 
       0.270079         205.504         190.163         205.994 
        0.27624         201.464         183.979         198.993 
       0.282372         193.965         177.252         192.876 
        0.28843         185.974         170.009         185.927 
       0.294538         177.909         162.335         179.091 
       0.300721         173.245         154.605         172.485 
        0.30691         164.536         147.332         165.722 
       0.313033         158.938         140.903         158.874 
       0.319153         151.363         135.363         153.724 
       0.325316         148.526         130.612         149.245 
        0.33145         143.262         126.515         144.098 
       0.337538         140.433         122.804         139.846 
       0.343633         135.916         119.195         136.543 
       0.349808         132.014         115.474         133.146 
       0.355968         128.703          111.61         130.083 
       0.362074         124.595         107.675         125.926 
       0.368217         120.753         103.705         121.274 
       0.374374         116.918         99.8573          117.97 
       0.380519         113.817          96.263         114.158 
       0.386598         110.567         93.0148         111.032 
       0.392688         108.323          90.089         108.194 
        0.39888         105.293         87.3945         105.003 
       0.405048         102.861         84.9246         102.523 
       0.411186         100.529         82.5896         100.572 
       0.417313         97.6161         80.3011         97.5287 
       0.423458         95.2697         78.0135         95.4424 
       0.429607         92.7343          75.717         93.0428 
       0.435692         89.7696         73.4522         90.9329 
       0.441815         88.5956         71.2233         89.2929 
       0.447964         86.9571         69.0735         86.7501 
       0.454126         83.1869         67.0339         84.3331 
       0.460267         81.9325         65.1356         82.8595 
       0.466387         79.9813         63.3745         80.7213 
        0.47254         78.6531         61.7103         79.1774 
       0.478662         77.3777         60.1367         77.4347 
       0.484765         75.2129         58.6261         75.5069 
       0.490885         73.6723         57.1472         74.4328 
       0.497035         72.6044         55.6806         73.1309 
       0.503198         70.6561         54.2347         71.3146 
       0.509342          68.913          52.825         70.0756 
       0.515458         67.6734         51.4614         69.1199 
       0.521598         66.6215         50.1408         67.1258 
       0.527764         65.3655         48.8721          65.438 
       0.533884         64.2043         47.6756         64.3138 
           0.54         62.8665         46.5369         63.1754 
       0.546137         62.0157          45.442         62.2719 
       0.552299         61.0481         44.3823         60.7647 
       0.558452          59.304         43.3574         59.5784 
       0.564573         58.2913         42.3656         58.8604 
       0.570708         57.5332         41.3951          57.809 
       0.576825          56.292         40.4483         56.7574 
       0.582926         55.1861         39.5271         55.7814 
       0.589034         53.8583         38.6316         55.0337 
       0.595184         53.1821         37.7603         53.9036 
       0.601379         52.3852         36.9153         53.1956 
       0.607522         51.1657         36.1077         51.9766 
       0.613639         50.8879         35.3311         51.2341 
       0.619772         49.6057         34.5776         50.3826 
       0.625918         49.2617         33.8458         49.8061 
       0.632068         48.5191          33.135         48.8105 
       0.638161         47.6429         32.4504         48.1161 
         0.6443         46.8084         31.7787         47.2431 
       0.650464         46.0303         31.1214          46.559 
       0.656582         45.6562         30.4853          45.973 
       0.662703         44.7283         29.8658         45.1119 
       0.668861         44.0539           29.26         44.6057 
       0.675024         43.3527         28.6715           43.78 
       0.681124         42.6116         28.1069         43.1343 
       0.687237         41.8644         27.5582         42.4803 
       0.693381         41.5349         27.0228         41.8333 
       0.699536         40.6228         26.5013         41.4698 
       0.705665         40.6578         25.9959         40.9273 
       0.711789         39.6013         25.5036         40.0812 
       0.717957         39.1666         25.0198         39.7131 
        0.72409         38.6176         24.5506         39.2601 
       0.730186         38.0194         24.0959         38.6517 
       0.736317         37.7143         23.6501         38.0909 
       0.742472         37.0418         23.2141         37.6805 
       0.748622         36.7133         22.7899         37.0789 
        0.75476          36.145         22.3776         36.6475 
       0.760888         35.5951         21.9767         36.2164 
       0.767043          35.187         21.5844         35.8488 
       0.773185         34.6252         21.2027         35.3716 
       0.779291         34.4616         20.8326         34.9882 
       0.785407         34.0952         20.4708         34.4723 
       0.791564         33.4549         20.1153         34.0542 
       0.797719          32.797         19.7683         33.7045 
       0.803834         32.7377         19.4316         33.2142 
       0.809972         32.3209         19.1015         32.8812 
       0.816124         31.6488         18.7783          32.471 
       0.822261           31.46         18.4634          32.022 
       0.828378         31.1812         18.1568          31.611 
       0.834502         30.8119         17.8569         31.4423 
       0.840667         30.4556         17.5619         30.9843 
       0.846816         29.9499         17.2746         30.6636 
       0.852925         29.6895         16.9955         30.4962 
       0.859047         29.3253         16.7222         29.9916 
       0.865192         29.0373          16.454         29.6588 
       0.871341         28.8638         16.1916         29.4179 
       0.877463         28.2939         15.9361         29.0793 
       0.883569         28.0061         15.6869         28.8263 
       0.889708         27.7001         15.4418         28.4428 
       0.895864         27.4582         15.2013         28.1158 
       0.902008         27.2348         14.9664          27.876 
       0.908149         26.9412         14.7367         27.6493 
       0.914301         26.8145         14.5114         27.4403 
       0.920448          26.279         14.2911         27.0491 
       0.926574         26.1046         14.0761         26.7427 
       0.932687         25.8034         13.8661         26.4762 
       0.938823         25.4704         13.6596           26.21 
       0.944975         25.2685         13.4568         25.9497 
       0.951105         25.0375         13.2589         25.6688 
       0.957225         24.7457         13.0654         25.4801 
       0.963368         24.5875         12.8751         25.1984 
       0.969511         24.3651         12.6886         24.9608 
       0.975621         24.1685         12.5068         24.7531 
       0.981748          23.816         12.3281         24.5631 
       0.987916         23.6642         12.1519         24.2685 
        0.99406         23.4103         11.9797         24.0651 
        1.00019         23.1097         11.8113         23.8436 
        1.00632         23.0088         11.6463         23.6637 
        1.01246         22.8236         11.4842         23.5027 
        1.01859         22.4778         11.3254         23.2646 
        1.02471         22.4187         11.1699         23.0234 
        1.03085         22.1993         11.0168         22.8276 
        1.03698         21.8351         10.8669         22.6277 
        1.04314         21.7036         10.7192         22.3862 
        1.04929         21.4802         10.5745         22.2575 
        1.05541         21.2547         10.4332         22.1312 
        1.06154         21.1389         10.2941         21.8435 
        1.06769         20.9889         10.1573         21.6416 
        1.07382         20.7704         10.0234         21.5177 
        1.07993         20.6604         9.89234         21.3169 
        1.08607           20.38         9.76305         21.1493 
        1.09222         20.2687         9.63595         21.0139 
        1.09836         20.0185         9.51128         20.8114 
        1.10449         19.9194         9.38897         20.6178 
        1.11063         19.6596         9.26868         20.4943 
        1.11677         19.5931         9.15056         20.2906 
         1.1229         19.4892          9.0347         20.1538 
        1.12903           19.22         8.92076         20.0131 
        1.13518         19.0335          8.8087         19.8091 
        1.14131         18.9687         8.69863         19.6729 
        1.14745          18.808         8.59051         19.5346 
        1.15359         18.6944         8.48421         19.3764 
        1.15973         18.4963         8.37968         19.2399 
        1.16584         18.2612         8.27738         19.1226 
        1.17197         18.2625         8.17665         19.0095 
        1.17811         18.0283         8.07729         18.7634 
        1.18424         17.8697         7.97989         18.6804 
        1.19038         17.8109         7.88381         18.5635 
        1.19652         17.6662         7.78936         18.3837 
        1.20267         17.5065         7.69646         18.2636 
        1.20881         17.4103         7.60511         18.1705 
        1.21495         17.2792         7.51538         18.0368 
        1.22108         17.1166         7.42713         17.8962 
         1.2272         16.9458         7.34051         17.7573 
        1.23334         16.8532         7.25507          17.672 
        1.23949         16.6965          7.1708         17.5097 
        1.24562         16.6347          7.0881         17.3818 
        1.25174         16.5344         7.00684         17.2849 
        1.25789         16.3994         6.92661         17.1555 
        1.26402         16.3305         6.84778         17.0165 
        1.27014           16.15         6.77038         16.9203 
        1.27628         15.9866         6.69395         16.7863 
        1.28244         15.9259         6.61856         16.7339 
        1.28858         15.8701         6.54443         16.5821 
        1.29471         15.7068         6.47161          16.466 
        1.30084         15.5725         6.39997         16.4207 
        1.30697         15.4785         6.32931         16.2751 
        1.31312         15.3273         6.25962         16.1513 
        1.31925         15.2222          6.1912         16.0914 
        1.32537         15.1815         6.12388         16.0009 
        1.33151         15.0373         6.05732         15.8733 
        1.33765         14.9624         5.99179         15.7656 
        1.34378         14.8707         5.92736         15.6744 
        1.34992         14.6984         5.86384         15.5876 
        1.35606         14.6684         5.80112         15.4669 
         1.3622         14.5762         5.73942         15.3728 
        1.36833         14.4362         5.67877         15.3195 
        1.37445          14.389         5.61903          15.188 
        1.38059         14.2883         5.55997         15.0721 
        1.38675         14.1359         5.50162         15.0211 
        1.39288         14.0925         5.44433          14.913 
        1.39901         13.9734          5.3879         14.8312 
        1.40515         13.9121         5.33213         14.7483 
         1.4113         13.8019         5.27718         14.6665 
        1.41742         13.7007         5.22322         14.5864 
        1.42355          13.635         5.16991         14.4722 
         1.4297         13.5605         5.11719          14.403 
        1.43585         13.5056         5.06522         14.3436 
        1.44198          13.378         5.01418          14.251 
        1.44809         13.3103         4.96394         14.1792 
        1.45423          13.215          4.9142          14.083 
        1.46036         13.1531         4.86524         13.9898 
        1.46649         13.0861         4.81693         13.9206 
        1.47263          12.966         4.76924         13.8682 
        1.47877         12.9016         4.72221         13.7969 
        1.48491         12.8346         4.67575         13.6707 
        1.49104         12.7765         4.63002         13.6166 
        1.49718         12.6777         4.58486         13.5594 
        1.50333         12.6125         4.54023         13.4797 
        1.50947         12.5404         4.49629         13.4154 
         1.5156         12.4444           4.453         13.3444 
        1.52172         12.3783         4.41028         13.2516 
        1.52787          12.308         4.36803         13.1801 
          1.534         12.2296         4.32639         13.1153 
        1.54013          12.143         4.28534         13.0178 
        1.54627         12.0732         4.24475         12.9451 
        1.55241         12.0145         4.20468         12.9046 
        1.55855         11.9536         4.16519         12.8402 
        1.56467         11.8746         4.12631         12.7672 
         1.5708         11.8546         4.08782         12.7184 
        1.57695         11.7381         4.04977         12.6563 
        1.58308         11.6874         4.01229         12.5875 
        1.58922         11.6321         3.97525         12.5425 
        1.59535         11.5718          3.9387         12.4698 
         1.6015         11.4842         3.90256         12.3984 
        1.60764         11.4215          3.8669         12.3313 
        1.61376         11.3893         3.83177         12.2641 
        1.61989         11.2821         3.79706         12.2232 
        1.62604          11.267          3.7627         12.1743 
        1.63218         11.1878         3.72878         12.1068 
        1.63831         11.1438         3.69536         12.0441 
        1.64444         11.0471         3.66234         11.9931 
        1.65059         10.9914         3.62964         11.9167 
        1.65673         10.9667         3.59738         11.8714 
        1.66285         10.8552          3.5656         11.8267 
        1.66898         10.8333          3.5342         11.7475 
        1.67512         10.7843         3.50311         11.6921 
        1.68127         10.7111         3.47237          11.634 
         1.6874          10.655         3.44207         11.5747 
        1.69353         10.5961         3.41215         11.5329 
        1.69967         10.5391         3.38251         11.4842 
        1.70581         10.4885         3.35324         11.4354 
        1.71193         10.4202         3.32443         11.3852 
        1.71806         10.3939         3.29589         11.3261 
        1.72421         10.3161         3.26763         11.2856 
        1.73035         10.2885         3.23974         11.2332 
        1.73649         10.2314         3.21218         11.1673 
        1.74262         10.1857         3.18496         11.1314 
        1.74876          10.136         3.15804         11.0754 
        1.75489         10.0862         3.13149         11.0054 
        1.76101         10.0028         3.10525         10.9547 
        1.76715         10.0027         3.07928         10.9314 
        1.77329         9.91803         3.05357         10.8784 
        1.77943         9.86762         3.02814         10.8173 
        1.78557         9.83487         3.00305         10.7844 
        1.79171         9.79991         2.97823         10.7316 
        1.79785         9.72308         2.95369         10.6724 
        1.80399         9.68087         2.92943         10.6384 
        1.81012         9.64286         2.90547          10.596 
        1.81625         9.58155         2.88179          10.556 
        1.82239         9.54389         2.85835         10.5194 
        1.82853         9.47341         2.83517         10.4637 
        1.83466         9.44069         2.81227           10.42 
        1.84078         9.37598         2.78966         10.3845 
        1.84692         9.36412         2.76725         10.3262 
        1.85306          9.3023         2.74506         10.2849 
         1.8592         9.26154         2.72316         10.2539 
        1.86533         9.22272          2.7015         10.2014 
        1.87147         9.17905         2.68005         10.1543 
        1.87761         9.14412         2.65883         10.1198 
