# k  (h/Mpc)    P(k)  (Mpc/h)^3    P_linear(k)  (Mpc/h)^3     P_NL(k)  ShotnoiseSubtracted = false
     0.00783031         842.673         850.597         847.393 
       0.013688         1063.92         1065.56         1061.17 
       0.019231         1093.61         1093.72         1088.48 
      0.0249154         1018.05         1023.58          1020.1 
      0.0312784         893.094         894.041         892.835 
      0.0375637          763.85         762.059         761.549 
      0.0433917          658.86         659.479         659.579 
      0.0492413         583.279         582.437         582.725 
      0.0555754         523.586         525.146         525.195 
      0.0619321         488.203         486.063         485.959 
       0.067871         455.808         457.009          456.57 
      0.0738098          426.45         428.051         427.192 
      0.0800417         391.217         393.683          392.88 
      0.0862327         354.187         355.351         354.939 
      0.0921407         317.404         317.548         317.421 
      0.0982031         280.503         281.237          281.62 
       0.104506         250.746         249.434         250.212 
       0.110769         226.564         225.412         226.064 
       0.116806         209.183          209.11         209.657 
       0.122832         198.791         197.977         198.502 
       0.129052         189.248         189.544         189.904 
       0.135211         181.367         181.896         182.159 
       0.141259         173.464         173.353          173.65 
       0.147318         163.695         163.039         163.555 
       0.153489         151.222         150.999         151.388 
       0.159709          138.88         138.325         139.003 
       0.165845         128.131         126.526         127.635 
       0.171974         117.205         116.418         117.534 
       0.178125         109.545         108.437         109.778 
       0.184229         103.959           102.6         103.907 
        0.19034         98.7225         98.3706         99.5659 
       0.196428         95.9917         95.0734         96.0081 
       0.202534         93.4747          91.975         92.8873 
       0.208729         89.4449          88.485         89.3465 
       0.214876         84.9012         84.4147          85.522 
       0.220989         81.1343         79.8229           81.04 
       0.227147         75.6112         74.9439         76.2084 
        0.23329         71.0423         70.2139         71.7024 
       0.239377         67.1378         66.0031         67.6006 
       0.245482         63.2404         62.4544         63.9267 
       0.251667         60.9169         59.5817         61.1495 
       0.257832         58.5586         57.3277         58.8234 
       0.263955         56.6519         55.4795          56.871 
       0.270079         54.9362         53.7835         55.1062 
        0.27624         53.4973         52.0346         53.2766 
       0.282372         51.5333         50.1321         51.4544 
        0.28843         49.2493         48.0835         49.4459 
       0.294538         47.0973         45.9129         47.3385 
       0.300721         45.2724         43.7267         45.2548 
        0.30691         42.9801         41.6698         43.2367 
       0.313033         41.2246         39.8515         41.3833 
       0.319153         39.2253         38.2847         39.8656 
       0.325316         38.4578          36.941         38.5427 
        0.33145         37.1173         35.7821         37.2886 
       0.337538         36.0905         34.7327         36.1802 
       0.343633         34.9275         33.7119         35.1452 
       0.349808          33.945         32.6594         34.1333 
       0.355968         32.8874         31.5664         33.1692 
       0.362074         31.7286         30.4537         32.0015 
       0.368217         30.6316         29.3308         30.7876 
       0.374374         29.4615         28.2426         29.7847 
       0.380519         28.5778          27.226         28.7293 
       0.386598         27.6953         26.3073         27.8368 
       0.392688         26.9783         25.4798         27.0056 
        0.39888         26.1294         24.7177         26.2158 
       0.405048         25.4721         24.0192         25.4485 
       0.411186         24.8269         23.3588         24.8855 
       0.417313         24.0243         22.7115         24.1721 
       0.423458         23.4057         22.0645         23.5461 
       0.429607         22.6924          21.415         22.8585 
       0.435692         22.0222         20.7745         22.2551 
       0.441815         21.4559          20.144         21.6871 
       0.447964         20.9872          19.536         21.0307 
       0.454126         20.2038         18.9592         20.4321 
       0.460267          19.726         18.4223         19.9297 
       0.466387         19.1136         17.9242          19.373 
        0.47254         18.7454         17.4535         18.9146 
       0.478662          18.347         17.0084         18.4415 
       0.484765         17.8195         16.5812         17.9998 
       0.490885         17.3902         16.1629         17.6518 
       0.497035         17.1069         15.7481         17.2504 
       0.503198         16.6358         15.3392         16.7546 
       0.509342         16.2211         14.9405         16.3822 
       0.515458          15.791         14.5548         16.0496 
       0.521598         15.4523         14.1813         15.5837 
       0.527764         15.0603         13.8225         15.2023 
       0.533884         14.7794         13.4841         14.8618 
           0.54         14.4304          13.162         14.5237 
       0.546137         14.1421         12.8523          14.241 
       0.552299         13.8505         12.5526         13.8701 
       0.558452          13.435         12.2627         13.5844 
       0.564573         13.2301         11.9822         13.3671 
       0.570708         12.9542         11.7078         13.0708 
       0.576825         12.6075           11.44         12.7838 
       0.582926         12.3818         11.1794          12.536 
       0.589034         12.0118         10.9261         12.3068 
       0.595184         11.8148         10.6797         11.9691 
       0.601379         11.5531         10.4407          11.797 
       0.607522         11.3654         10.2123         11.5373 
       0.613639         11.1956         9.99266            11.3 
       0.619772         10.8904         9.77957         11.1109 
       0.625918         10.7627         9.57259         10.8739 
       0.632068         10.5802         9.37156         10.6502 
       0.638161         10.3102         9.17792         10.4499 
         0.6443         10.0966         8.98795         10.2394 
       0.650464         9.87532         8.80204         10.0891 
       0.656582         9.77525         8.62215         9.89178 
       0.662703         9.58292         8.44694         9.69793 
       0.668861         9.40223         8.27559         9.55007 
       0.675024         9.19873         8.10914         9.34812 
       0.681124         9.02992         7.94946         9.17799 
       0.687237         8.88246         7.79427         8.98817 
       0.693381         8.74237         7.64285         8.82328 
       0.699536         8.50338         7.49536         8.67963 
       0.705665           8.391         7.35241         8.57724 
       0.711789         8.24558         7.21317         8.41034 
       0.717957         8.09364         7.07634         8.24715 
        0.72409         7.94761         6.94364         8.12274 
       0.730186         7.83452         6.81503         7.96868 
       0.736317         7.73766         6.68895         7.83107 
       0.742472         7.60534         6.56563         7.74464 
       0.748622         7.46561         6.44564         7.60807 
        0.75476         7.29487         6.32906         7.46342 
       0.760888         7.20072         6.21567         7.35381 
       0.767043         7.10732         6.10471         7.24966 
       0.773185          6.9521         5.99676         7.14093 
       0.779291         6.88037         5.89207         7.03031 
       0.785407           6.764         5.78975         6.90909 
       0.791564         6.65124          5.6892         6.80672 
       0.797719         6.53877         5.59106         6.68184 
       0.803834         6.47142         5.49583         6.58509 
       0.809972         6.38454         5.40246         6.51656 
       0.816124         6.24403         5.31105         6.39414 
       0.822261         6.13912         5.22201         6.29679 
       0.828378         6.06582         5.13528         6.20734 
       0.834502         5.99965         5.05046          6.1126 
       0.840667         5.87699         4.96704         6.02433 
       0.846816         5.77627         4.88576         5.95199 
       0.852925         5.72066         4.80684         5.86852 
       0.859047         5.63441         4.72952         5.79213 
       0.865192          5.5688         4.65368         5.70258 
       0.871341         5.49594         4.57946         5.62868 
       0.877463         5.41001         4.50721         5.53822 
       0.883569         5.31159         4.43672         5.47154 
       0.889708         5.22323         4.36739         5.39704 
       0.895864         5.16665         4.29937         5.31522 
       0.902008         5.09567         4.23295         5.25115 
       0.908149         5.03375         4.16797         5.17705 
       0.914301         4.94484         4.10426          5.1144 
       0.920448         4.87299         4.04194         5.03065 
       0.926574         4.80418         3.98114         4.97828 
       0.932687         4.75328         3.92173         4.88393 
       0.938823         4.68934         3.86333         4.84914 
       0.944975          4.6222         3.80598         4.77253 
       0.951105         4.56894         3.75002         4.70736 
       0.957225         4.53927         3.69528         4.66541 
       0.963368         4.46534         3.64145         4.59685 
       0.969511         4.40188          3.5887         4.54386 
       0.975621         4.33769         3.53729         4.46848 
       0.981748         4.29146         3.48676         4.41601 
       0.987916         4.23601         3.43691         4.37619 
        0.99406         4.16394         3.38822         4.32393 
        1.00019         4.10997         3.34058         4.27835 
        1.00632         4.07194         3.29391         4.21719 
        1.01246         4.02374         3.24806          4.1702 
        1.01859         3.96952         3.20317         4.11341 
        1.02471         3.92121         3.15919          4.0554 
        1.03085         3.87327         3.11588         4.00844 
        1.03698         3.81811         3.07348         3.96736 
        1.04314         3.78038          3.0317         3.91947 
        1.04929         3.72921         2.99079         3.87591 
        1.05541         3.68401         2.95081         3.83684 
        1.06154         3.64483         2.91146         3.79262 
        1.06769         3.61516         2.87278         3.75393 
        1.07382         3.55758         2.83493         3.70762 
        1.07993         3.50808         2.79785         3.66212 
        1.08607         3.48601         2.76128         3.62295 
        1.09222         3.43913         2.72533         3.57668 
        1.09836         3.40653         2.69007         3.53686 
        1.10449         3.36517         2.65548         3.50276 
        1.11063          3.3215         2.62146         3.45788 
        1.11677         3.28747         2.58805         3.42593 
         1.1229         3.24894         2.55528         3.39358 
        1.12903         3.20936         2.52306         3.35704 
        1.13518         3.17935         2.49136         3.32137 
        1.14131         3.13049         2.46023         3.27888 
        1.14745         3.08495         2.42965         3.23851 
        1.15359          3.0687         2.39959         3.21578 
        1.15973         3.02351         2.37002         3.17936 
        1.16584         3.00095         2.34109         3.14874 
        1.17197         2.96639          2.3126         3.11389 
        1.17811         2.93781          2.2845         3.08154 
        1.18424          2.9119         2.25695         3.04625 
        1.19038         2.87967         2.22978         3.01636 
        1.19652         2.84848         2.20306         2.99279 
        1.20267         2.81874         2.17679         2.95082 
        1.20881         2.78552         2.15095         2.92611 
        1.21495         2.76253         2.12557         2.90395 
        1.22108         2.73196         2.10061         2.87259 
         1.2272          2.7111         2.07611         2.83628 
        1.23334         2.67158         2.05195          2.8148 
        1.23949         2.64301         2.02811         2.79484 
        1.24562         2.62611         2.00473         2.76564 
        1.25174         2.59041         1.98174          2.7304 
        1.25789         2.56947         1.95905         2.70366 
        1.26402         2.53803         1.93676         2.67466 
        1.27014         2.51275         1.91487         2.65663 
        1.27628         2.49685         1.89325         2.63354 
        1.28244         2.46092         1.87192         2.60371 
        1.28858         2.44499         1.85096         2.57757 
        1.29471         2.41596         1.83036           2.553 
        1.30084         2.38993          1.8101         2.53672 
        1.30697         2.37828         1.79012         2.51064 
        1.31312          2.3343         1.77041         2.48645 
        1.31925         2.32344         1.75106         2.46922 
        1.32537         2.29984         1.73202         2.44541 
        1.33151         2.28549         1.71319         2.42242 
        1.33765         2.25332         1.69466         2.39992 
        1.34378         2.23303         1.67644         2.38191 
        1.34992         2.22159         1.65847         2.35919 
        1.35606         2.18728         1.64073          2.3311 
         1.3622         2.17611         1.62328         2.31305 
        1.36833         2.15368         1.60613         2.30066 
        1.37445          2.1313         1.58923         2.27876 
        1.38059          2.1179         1.57252         2.25772 
        1.38675         2.10376         1.55602         2.23284 
        1.39288         2.07609         1.53982         2.21961 
        1.39901         2.05429         1.52386          2.2007 
        1.40515         2.03826         1.50809         2.17859 
         1.4113         2.02091         1.49254          2.1626 
        1.41742         2.00409         1.47728          2.1485 
        1.42355         1.98998          1.4622         2.11953 
         1.4297         1.96479         1.44729         2.11296 
        1.43585         1.95411          1.4326         2.09717 
        1.44198         1.93933         1.41816         2.06998 
        1.44809         1.91372         1.40395         2.05966 
        1.45423         1.89836         1.38988         2.03668 
        1.46036         1.88115         1.37603         2.02101 
        1.46649         1.86442         1.36237          2.0092 
        1.47263         1.84649         1.34888         1.99224 
        1.47877         1.82812         1.33558         1.97234 
        1.48491         1.81495         1.32244         1.95968 
        1.49104         1.80251         1.30951         1.94094 
        1.49718         1.78752         1.29673         1.92799 
        1.50333         1.77058         1.28411         1.91223 
        1.50947         1.75724         1.27168         1.89539 
         1.5156         1.74177         1.25944         1.88235 
        1.52172          1.7272         1.24736         1.86978 
        1.52787         1.71205         1.23541         1.85033 
          1.534         1.69905         1.22363         1.83691 
        1.54013         1.68289         1.21202         1.82316 
        1.54627         1.66589         1.20054         1.80743 
        1.55241         1.65302         1.18921          1.7941 
        1.55855         1.64311         1.17804         1.78014 
        1.56467          1.6295         1.16704         1.76857 
         1.5708         1.61072         1.15616          1.7527 
        1.57695         1.60243         1.14539         1.74005 
        1.58308         1.58802         1.13479          1.7313 
        1.58922         1.57693         1.12432         1.71634 
        1.59535         1.56381         1.11398         1.70332 
         1.6015         1.55183         1.10376         1.68992 
        1.60764         1.54133         1.09367         1.67841 
        1.61376         1.52877         1.08374         1.66904 
        1.61989         1.51458         1.07392         1.65531 
        1.62604         1.50167          1.0642         1.64337 
        1.63218         1.49523         1.05461         1.63244 
        1.63831         1.47816         1.04516         1.61985 
        1.64444         1.46632         1.03582         1.60674 
        1.65059         1.45791         1.02657          1.5952 
        1.65673         1.44583         1.01745         1.58477 
        1.66285         1.43234         1.00846         1.57307 
        1.66898         1.42492        0.999577            1.56 
        1.67512         1.40924        0.990785         1.55044 
        1.68127          1.4005        0.982091         1.54222 
         1.6874         1.39371         0.97352          1.5321 
        1.69353         1.37614        0.965057         1.51896 
        1.69967         1.36697        0.956675         1.50706 
        1.70581         1.36209        0.948396         1.49893 
        1.71193         1.34873        0.940247         1.49087 
        1.71806         1.34136        0.932176          1.4775 
        1.72421         1.33043        0.924184         1.46688 
        1.73035         1.31864        0.916295         1.45783 
        1.73649         1.31034          0.9085         1.44759 
        1.74262          1.3004        0.900803         1.43719 
        1.74876         1.29162        0.893189         1.42942 
        1.75489         1.27907        0.885679         1.42043 
        1.76101         1.27025        0.878258         1.40842 
        1.76715         1.26222        0.870912         1.39873 
        1.77329         1.25372        0.863641         1.39007 
        1.77943         1.24204         0.85645         1.38087 
        1.78557         1.23387        0.849351         1.37153 
        1.79171         1.22841        0.842332         1.36285 
        1.79785           1.216        0.835391         1.35433 
        1.80399         1.20894        0.828529         1.34503 
        1.81012         1.20202        0.821754         1.33517 
        1.81625          1.1908        0.815057         1.32648 
        1.82239         1.18278        0.808426         1.31983 
        1.82853          1.1707        0.801871         1.31399 
        1.83466         1.16631        0.795395         1.30599 
        1.84078          1.1574        0.788998         1.29603 
        1.84692         1.15114        0.782661         1.28682 
        1.85306         1.14096        0.776386         1.27773 
         1.8592         1.13419         0.77019          1.2699 
        1.86533         1.12521        0.764065         1.26349 
        1.87147         1.11906        0.757999         1.25482 
        1.87761         1.11089        0.751997         1.24675 
