# k  (h/Mpc)    P(k)  (Mpc/h)^3    P_linear(k)  (Mpc/h)^3     P_NL(k)  ShotnoiseSubtracted = false
     0.00783031         17551.3         17814.5         17735.6 
       0.013688         22525.7         22296.7         22140.7 
       0.019231         22905.6         22877.4         22659.4 
      0.0249154         20885.3         21405.7         21163.6 
      0.0312784         18417.6         18694.1         18434.1 
      0.0375637         15886.9         15933.1         15699.7 
      0.0433917         13479.8         13787.6         13544.3 
      0.0492413         12054.7         12176.4         11951.6 
      0.0555754         10582.7         10978.3         10780.3 
      0.0619321         10146.4         10161.1         9967.92 
       0.067871         9223.74         9553.51         9370.51 
      0.0738098         8630.61         8948.06         8668.36 
      0.0800417         7827.72         8229.52          7972.3 
      0.0862327         7167.43         7428.17         7279.42 
      0.0921407         6554.33         6637.88         6524.62 
      0.0982031         5802.32         5878.81         5896.82 
       0.104506         5361.38         5213.99         5342.16 
       0.110769          4878.5         4711.82         4811.15 
       0.116806         4548.68         4371.06         4468.58 
       0.122832         4314.04         4138.31         4245.03 
       0.129052         4021.42         3962.05         4051.78 
       0.135211         3853.42         3802.15         3868.66 
       0.141259          3730.8         3623.58         3719.96 
       0.147318         3546.82         3407.98         3541.83 
       0.153489          3261.7          3156.3         3257.63 
       0.159709         3079.22         2891.37         3067.01 
       0.165845         2945.88         2644.73         2921.54 
       0.171974         2761.65         2433.46         2736.21 
       0.178125         2612.91         2266.62         2631.84 
       0.184229         2483.12         2144.62         2487.04 
        0.19034         2361.18         2056.21         2385.65 
       0.196428         2317.93         1987.28         2287.89 
       0.202534         2234.98         1922.52          2220.7 
       0.208729         2146.07         1849.57         2115.77 
       0.214876         2070.65         1764.48         2071.74 
       0.220989         2000.56          1668.5         2010.33 
       0.227147         1917.81         1566.52         1943.46 
        0.23329         1839.71         1467.65         1882.13 
       0.239377         1810.15         1379.63         1803.74 
       0.245482         1699.44         1305.45         1720.67 
       0.251667         1688.84         1245.41         1674.47 
       0.257832          1621.8         1198.29         1615.66 
       0.263955         1569.59         1159.66         1568.29 
       0.270079         1518.63         1124.21         1525.88 
        0.27624         1501.36         1087.65         1482.97 
       0.282372         1440.52         1047.89         1459.13 
        0.28843         1436.61         1005.06          1430.6 
       0.294538         1367.94         959.693         1391.22 
       0.300721         1357.21         913.995         1350.09 
        0.30691         1307.52             871         1330.54 
       0.313033         1280.38         832.993         1286.53 
       0.319153         1262.74         800.242         1248.26 
       0.325316         1220.87         772.156         1226.18 
        0.33145         1195.76         747.932         1182.58 
       0.337538         1172.13         725.997         1163.88 
       0.343633         1149.64          704.66         1151.15 
       0.349808         1112.76          682.66         1134.23 
       0.355968         1103.91         659.814         1115.39 
       0.362074         1094.35         636.556         1095.75 
       0.368217         1059.11         613.083         1069.76 
       0.374374         1022.42         590.337          1049.3 
       0.380519         1024.72         569.088         1028.07 
       0.386598         994.757         549.885         1013.91 
       0.392688         990.507         532.588         990.801 
        0.39888         962.338         516.659           974.5 
       0.405048         952.444         502.058          957.97 
       0.411186         938.721         488.254         941.584 
       0.417313         918.956         474.725         930.177 
       0.423458         902.898           461.2         914.319 
       0.429607         892.251         447.624         899.753 
       0.435692         874.775         434.235         881.272 
       0.441815         866.705         421.058         878.154 
       0.447964         848.742         408.349         866.756 
       0.454126         843.124         396.291         841.992 
       0.460267         821.751         385.069         840.081 
       0.466387          811.01         374.658         824.916 
        0.47254         809.101         364.819         813.306 
       0.478662         798.105         355.516         801.442 
       0.484765         776.346         346.586         792.812 
       0.490885         771.929         337.843         778.263 
       0.497035         755.027         329.172         771.574 
       0.503198         750.904         320.625         763.106 
       0.509342         742.288         312.291         749.993 
       0.515458         738.459         304.229         745.153 
       0.521598         720.241         296.423         737.714 
       0.527764         707.748         288.922         730.232 
       0.533884         705.307         281.848         721.514 
           0.54          699.51         275.117         712.697 
       0.546137         691.321         268.644          704.37 
       0.552299         683.176         262.379         694.688 
       0.558452         676.781          256.32         689.493 
       0.564573         668.483         250.457         683.476 
       0.570708         661.393          244.72         675.143 
       0.576825         644.153         239.122         666.077 
       0.582926         647.049         233.676         661.379 
       0.589034         639.507         228.382         651.217 
       0.595184         634.117         223.231          645.32 
       0.601379         624.865         218.236          639.48 
       0.607522         616.054         213.462         630.051 
       0.613639         615.922          208.87         628.297 
       0.619772         603.977         204.416         626.499 
       0.625918           599.4         200.089         617.517 
       0.632068          591.87         195.887         614.256 
       0.638161          589.12          191.84          604.37 
         0.6443         579.296         187.869          599.95 
       0.650464         577.429         183.983         591.651 
       0.656582          571.54         180.223         588.397 
       0.662703         569.606         176.561         584.264 
       0.668861         560.128         172.979         581.519 
       0.675024          555.16           169.5         577.277 
       0.681124         551.383         166.162         568.278 
       0.687237         547.086         162.918         563.161 
       0.693381         539.691         159.753         558.214 
       0.699536         530.416          156.67         554.486 
       0.705665         530.609         153.682         547.687 
       0.711789         527.293         150.772         543.665 
       0.717957         522.242         147.912         542.995 
        0.72409          519.61         145.138         536.914 
       0.730186          511.49          142.45         531.422 
       0.736317         509.047         139.815         527.733 
       0.742472         505.226         137.237         523.933 
       0.748622         499.995         134.729         518.797 
        0.75476         492.077         132.292         519.585 
       0.760888         488.079         129.922         513.017 
       0.767043         487.753         127.602         506.791 
       0.773185         483.221         125.346         503.792 
       0.779291         478.127         123.158         499.635 
       0.785407         473.983         121.019         496.876 
       0.791564         469.101         118.917         494.788 
       0.797719         467.208         116.866         489.663 
       0.803834         461.218         114.876         486.965 
       0.809972         460.006         112.924         483.845 
       0.816124         458.378         111.013         477.633 
       0.822261         451.458         109.152         475.594 
       0.828378         449.527         107.339         472.134 
       0.834502         444.032         105.566         470.637 
       0.840667         440.777         103.822         466.506 
       0.846816         438.397         102.124          462.93 
       0.852925         435.428         100.474         460.277 
       0.859047         433.583         98.8579         455.855 
       0.865192         427.552         97.2725         452.728 
       0.871341          423.97         95.7212          450.31 
       0.877463         423.805         94.2111         447.511 
       0.883569         419.096         92.7377         445.497 
       0.889708         416.687         91.2885         441.012 
       0.895864         415.232         89.8667         438.653 
       0.902008         411.194         88.4783         435.543 
       0.908149         405.405         87.1201         431.529 
       0.914301         403.873         85.7884         428.104 
       0.920448         401.731         84.4858         426.977 
       0.926574         395.372          83.215         423.807 
       0.932687         394.654         81.9732         420.309 
       0.938823         390.549         80.7524         419.702 
       0.944975         390.712         79.5538          416.11 
       0.951105          385.99         78.3839         412.939 
       0.957225         383.345         77.2398         410.886 
       0.963368         378.979         76.1147         408.381 
       0.969511         377.844         75.0121         405.927 
       0.975621         375.656         73.9375         402.931 
       0.981748         372.639         72.8813          400.67 
       0.987916         370.623         71.8393         398.842 
        0.99406         365.047         70.8216         396.132 
        1.00019         363.213         69.8259         392.479 
        1.00632         361.746         68.8503          390.05 
        1.01246          358.49          67.892         387.494 
        1.01859          358.03         66.9536         384.959 
        1.02471         353.259         66.0342          383.16 
        1.03085         351.502         65.1291         381.826 
        1.03698         349.767         64.2429         380.159 
        1.04314         346.823         63.3695         377.254 
        1.04929         343.306         62.5144         373.878 
        1.05541         343.919         61.6787          371.58 
        1.06154          338.27         60.8563         369.839 
        1.06769         336.853         60.0476         367.179 
        1.07382         334.093         59.2565          365.08 
        1.07993         332.275         58.4814          363.34 
        1.08607         331.235         57.7171         360.584 
        1.09222         327.235         56.9657           358.6 
        1.09836         325.024         56.2287         357.364 
        1.10449         322.857         55.5056         355.271 
        1.11063         318.596         54.7945         352.268 
        1.11677         319.329         54.0961         350.565 
         1.1229         316.592         53.4112         348.488 
        1.12903         314.479         52.7377         346.682 
        1.13518         311.075         52.0752         344.076 
        1.14131         309.702         51.4245         342.635 
        1.14745         307.347         50.7853         339.926 
        1.15359         305.698         50.1569         339.058 
        1.15973          303.48         49.5389         336.811 
        1.16584          301.07         48.9341         335.464 
        1.17197         300.535         48.3386         333.647 
        1.17811         297.133         47.7512         331.277 
        1.18424         294.844         47.1754         329.613 
        1.19038         293.544         46.6074         328.427 
        1.19652         291.305          46.049         325.731 
        1.20267         290.033         45.4998         324.115 
        1.20881         287.848         44.9598           322.5 
        1.21495         285.672         44.4293         320.316 
        1.22108         283.849         43.9076         318.192 
         1.2272         282.151         43.3955         316.883 
        1.23334         280.379         42.8904         314.894 
        1.23949         277.574         42.3922         313.343 
        1.24562         276.575         41.9033         311.498 
        1.25174         274.985         41.4229         309.939 
        1.25789         272.234         40.9486         308.116 
        1.26402          270.38         40.4826         307.153 
        1.27014          268.55          40.025         304.749 
        1.27628         266.573         39.5732         304.004 
        1.28244         266.434         39.1275         302.646 
        1.28858         263.715         38.6893         300.653 
        1.29471         262.461         38.2588         298.211 
        1.30084         260.084         37.8352         296.703 
        1.30697         258.901         37.4175         295.619 
        1.31312         256.021         37.0055         293.864 
        1.31925          254.63         36.6011         292.264 
        1.32537         253.868         36.2031         290.278 
        1.33151         251.447         35.8096         289.102 
        1.33765         249.351         35.4222          287.89 
        1.34378         248.624         35.0413         286.019 
        1.34992         246.999         34.6658         284.366 
        1.35606          245.65         34.2949         282.582 
         1.3622         243.334         33.9302         281.728 
        1.36833         241.943         33.5717         280.691 
        1.37445         240.261         33.2185         278.028 
        1.38059         238.342         32.8693          277.41 
        1.38675         237.191         32.5244         276.371 
        1.39288         235.772         32.1857         274.171 
        1.39901          234.39         31.8521         272.611 
        1.40515         232.919         31.5224         270.993 
         1.4113          231.21         31.1976         269.447 
        1.41742         229.373         30.8785          268.36 
        1.42355         228.544         30.5634         266.832 
         1.4297         226.561         30.2517         265.184 
        1.43585          225.21         29.9445         264.776 
        1.44198         224.162         29.6427         262.955 
        1.44809         222.026         29.3457         261.743 
        1.45423         220.892         29.0517         259.713 
        1.46036         219.536         28.7622         258.729 
        1.46649         218.059         28.4766         257.736 
        1.47263         216.983         28.1947         255.982 
        1.47877         215.134         27.9167         254.426 
        1.48491         213.047          27.642         252.938 
        1.49104         212.375         27.3716         251.942 
        1.49718         210.709         27.1047         251.398 
        1.50333         209.837         26.8409         249.775 
        1.50947         208.298         26.5811         248.415 
         1.5156          206.44         26.3251          247.28 
        1.52172         205.736         26.0726         245.703 
        1.52787         203.851         25.8229         244.694 
          1.534         203.298         25.5767         243.398 
        1.54013          201.31          25.334         242.213 
        1.54627         200.404         25.0941         241.304 
        1.55241         199.047         24.8572         240.168 
        1.55855         197.207         24.6237         238.823 
        1.56467          196.73         24.3939         237.324 
         1.5708         195.363         24.1663         236.095 
        1.57695         194.031         23.9413         234.993 
        1.58308         192.744         23.7198         233.693 
        1.58922         190.906         23.5008         232.515 
        1.59535           189.8         23.2848          231.64 
         1.6015         188.662         23.0711         230.746 
        1.60764         187.677         22.8602          229.44 
        1.61376         186.653         22.6526         228.019 
        1.61989         185.438         22.4474         226.932 
        1.62604         184.066         22.2442         225.748 
        1.63218         182.973         22.0437         224.663 
        1.63831         181.523         21.8462         223.704 
        1.64444         180.639          21.651         222.599 
        1.65059         179.748         21.4577          221.64 
        1.65673         178.329         21.2669         220.535 
        1.66285         176.906         21.0791         219.282 
        1.66898         176.082         20.8934         218.131 
        1.67512         175.235         20.7096         217.224 
        1.68127         173.302         20.5279         216.191 
         1.6874         172.831         20.3488         215.132 
        1.69353         171.406         20.1719         214.271 
        1.69967          170.08         19.9967         213.166 
        1.70581         169.421         19.8236         212.184 
        1.71193         167.998         19.6533         211.214 
        1.71806         167.337         19.4846         209.829 
        1.72421         166.041         19.3175         208.893 
        1.73035         165.213         19.1526         208.003 
        1.73649         164.189         18.9897         206.891 
        1.74262         163.086         18.8288         205.974 
        1.74876          161.63         18.6697         205.015 
        1.75489         161.079         18.5127         204.099 
        1.76101         159.608         18.3576          203.31 
        1.76715         158.985          18.204         202.407 
        1.77329         157.825          18.052         201.442 
        1.77943         157.069         17.9017         200.409 
        1.78557         155.928         17.7533         199.323 
        1.79171         155.196         17.6066         198.433 
        1.79785         153.795         17.4615         197.544 
        1.80399         153.044         17.3181           196.5 
        1.81012         152.098         17.1765         195.895 
        1.81625         151.379         17.0365         195.059 
        1.82239         150.047         16.8979         193.831 
        1.82853         149.492         16.7609         192.951 
        1.83466         148.424         16.6255             192 
        1.84078         147.592         16.4918         191.029 
        1.84692         146.402         16.3594         190.463 
        1.85306         145.723         16.2282         189.433 
         1.8592         144.734         16.0987         188.305 
        1.86533         144.041         15.9707         187.841 
        1.87147         143.002         15.8439         187.176 
        1.87761         142.007         15.7184         186.173 
