# k  (h/Mpc)    P(k)  (Mpc/h)^3    P_linear(k)  (Mpc/h)^3     P_NL(k)  ShotnoiseSubtracted = false
     0.00783031         13515.8           13705         13648.2 
       0.013688           17304         17154.9         17047.5 
       0.019231           17629         17602.4         17455.1 
      0.0249154           16131         16470.5         16315.7 
      0.0312784         14218.1         14384.3         14227.6 
      0.0375637         12247.1           12260         12120.8 
      0.0433917         10420.6         10609.1         10466.1 
      0.0492413         9303.57         9369.44         9238.36 
      0.0555754         8200.28          8447.6         8331.39 
      0.0619321         7832.05         7818.74         7704.74 
       0.067871         7150.79         7351.26         7242.39 
      0.0738098         6689.56         6885.39          6717.5 
      0.0800417         6078.87          6332.5         6177.53 
      0.0862327         5556.16         5715.88         5627.76 
      0.0921407         5061.56         5107.76         5040.99 
      0.0982031         4473.52         4523.68          4539.1 
       0.104506         4113.98         4012.11         4095.78 
       0.110769         3736.75          3625.7         3688.27 
       0.116806         3471.44         3363.49          3424.9 
       0.122832         3297.73         3184.39         3252.33 
       0.129052         3081.97         3048.76         3104.82 
       0.135211         2956.15         2925.72         2968.81 
       0.141259         2856.62         2788.31         2848.66 
       0.147318         2711.23         2622.41         2709.64 
       0.153489         2492.95         2428.75            2492 
       0.159709         2345.96         2224.89         2335.63 
       0.165845         2229.09          2035.1         2212.93 
       0.171974         2080.39         1872.53         2063.67 
       0.178125         1964.46         1744.14         1977.06 
       0.184229         1871.07         1650.27         1869.56 
        0.19034         1765.09         1582.23         1792.01 
       0.196428         1737.83          1529.2         1715.69 
       0.202534         1682.69         1479.36         1664.61 
       0.208729         1611.64         1423.23         1587.73 
       0.214876         1545.27         1357.76         1553.32 
       0.220989         1493.77          1283.9         1500.94 
       0.227147         1423.65         1205.43         1442.49 
        0.23329         1362.66         1129.34         1394.19 
       0.239377         1334.35         1061.62          1333.6 
       0.245482         1247.02         1004.54         1268.37 
       0.251667         1237.25         958.331         1233.35 
       0.257832         1188.75         922.077          1188.1 
       0.263955         1151.35          892.35         1150.82 
       0.270079         1112.45         865.071            1119 
        0.27624         1101.56          836.94         1085.94 
       0.282372         1055.67         806.341         1062.86 
        0.28843         1044.16         773.389         1037.13 
       0.294538          991.86         738.478         1009.16 
       0.300721         986.169         703.313         979.348 
        0.30691          944.21         670.229         960.988 
       0.313033         925.434         640.983         927.317 
       0.319153         905.908         615.782         900.039 
       0.325316         876.873         594.169         881.729 
        0.33145          856.21         575.529         849.492 
       0.337538          842.01          558.65         833.442 
       0.343633         820.677         542.231         824.855 
       0.349808         792.917         525.303         810.733 
       0.355968         787.682         507.723         796.718 
       0.362074         777.785         489.826         780.376 
       0.368217         754.415         471.764         758.717 
       0.374374         723.766         454.261           743.5 
       0.380519         723.175          437.91         726.394 
       0.386598         703.639         423.133         717.184 
       0.392688         701.167         409.824         697.315 
        0.39888         680.137         397.566         686.427 
       0.405048         669.623          386.33         676.142 
       0.411186         659.607         375.708          660.64 
       0.417313         646.206         365.298         649.901 
       0.423458          634.71         354.891          640.38 
       0.429607         625.053         344.444         628.224 
       0.435692         611.215         334.141         615.485 
       0.441815           606.1         324.002         611.452 
       0.447964         592.854         314.222         601.438 
       0.454126         584.014         304.944         585.025 
       0.460267         571.577         296.308         582.713 
       0.466387         565.303         288.297         571.629 
        0.47254         557.334         280.726         563.784 
       0.478662         554.263         273.568          553.65 
       0.484765         536.609         266.696         545.104 
       0.490885         532.659         259.968         536.598 
       0.497035         521.663         253.296         531.063 
       0.503198         516.997         246.719         524.111 
       0.509342         512.249         240.306         516.768 
       0.515458         507.899         234.103         512.778 
       0.521598         495.316         228.095         505.186 
       0.527764         486.242         222.324         499.499 
       0.533884         484.469         216.881         493.074 
           0.54         478.382         211.701         485.805 
       0.546137         475.558          206.72          479.89 
       0.552299         467.031         201.899         473.328 
       0.558452         464.253         197.237         469.078 
       0.564573         457.526         192.725         465.323 
       0.570708         451.385          188.31         460.645 
       0.576825         440.028         184.003         452.481 
       0.582926         439.944         179.813         448.346 
       0.589034         435.702         175.739         441.984 
       0.595184         431.744         171.775         436.836 
       0.601379         425.428         167.931         432.772 
       0.607522          419.55         164.257          427.28 
       0.613639         418.432         160.724         425.219 
       0.619772         408.695         157.297         423.607 
       0.625918         407.267         153.968         416.621 
       0.632068         400.865         150.734         412.611 
       0.638161         399.341          147.62         408.399 
         0.6443         392.194         144.564         404.962 
       0.650464         389.381         141.574         397.929 
       0.656582         386.942          138.68         395.156 
       0.662703          385.22         135.862          393.45 
       0.668861         378.318         133.106           390.2 
       0.675024         374.752         130.429         386.656 
       0.681124         372.024         127.861         380.401 
       0.687237         368.531         125.365         377.186 
       0.693381         363.335         122.929         373.921 
       0.699536         358.855         120.557         371.423 
       0.705665         356.967         118.258         367.063 
       0.711789         354.691         116.018         364.822 
       0.717957         351.619         113.817         362.983 
        0.72409         348.753         111.683         359.354 
       0.730186         344.239         109.614         355.889 
       0.736317         341.214         107.587         352.523 
       0.742472         339.354         105.603         349.124 
       0.748622         335.877         103.673         346.112 
        0.75476         331.937         101.798         346.298 
       0.760888         328.267         99.9741         341.404 
       0.767043         328.845         98.1894         338.811 
       0.773185         324.444         96.4531         336.207 
       0.779291         319.836         94.7693         332.822 
       0.785407          318.73         93.1236         330.954 
       0.791564         314.671         91.5064         328.421 
       0.797719         312.236         89.9278         325.635 
       0.803834         309.377         88.3961         324.186 
       0.809972         308.365         86.8944         321.581 
       0.816124         307.774         85.4241          317.69 
       0.822261         303.245         83.9918         316.192 
       0.828378          301.26         82.5969         313.651 
       0.834502         298.763         81.2326         311.932 
       0.840667         295.651         79.8908         308.982 
       0.846816         294.094         78.5836         307.306 
       0.852925         292.113         77.3142         305.137 
       0.859047         290.095         76.0706         303.014 
       0.865192          286.58         74.8507         300.432 
       0.871341         284.467          73.657         298.606 
       0.877463          283.07          72.495         296.846 
       0.883569         281.418         71.3612         295.458 
       0.889708         278.554          70.246         292.423 
       0.895864         275.847         69.1519         290.656 
       0.902008         274.365         68.0836         288.651 
       0.908149         272.579         67.0385         286.108 
       0.914301         269.329         66.0137         284.157 
       0.920448         267.714         65.0114         282.137 
       0.926574         265.008         64.0335         280.232 
       0.932687         265.138         63.0779         278.395 
       0.938823         261.774         62.1385         277.593 
       0.944975         260.913         61.2162         275.649 
       0.951105         258.781          60.316         273.538 
       0.957225          256.86         59.4356         271.638 
       0.963368         253.536         58.5698         269.865 
       0.969511         252.318         57.7214         267.873 
       0.975621         250.237         56.8945         266.685 
       0.981748          249.84         56.0818         265.177 
       0.987916          247.72         55.2799          263.59 
        0.99406         244.258         54.4968         261.889 
        1.00019         244.011         53.7306         259.702 
        1.00632          242.23         52.9799         257.916 
        1.01246         240.154         52.2425         255.915 
        1.01859         240.343         51.5204         254.692 
        1.02471         236.541          50.813         253.625 
        1.03085         234.852         50.1165         252.383 
        1.03698         234.039         49.4345         251.403 
        1.04314         231.566         48.7625         249.254 
        1.04929          230.12         48.1045         247.312 
        1.05541         230.217         47.4614         245.917 
        1.06154         226.709         46.8286         244.573 
        1.06769         226.231         46.2063         243.304 
        1.07382         224.503         45.5975         241.693 
        1.07993         222.683         45.0011         240.434 
        1.08607         222.084          44.413         238.856 
        1.09222         220.261         43.8348         237.553 
        1.09836         218.491         43.2676         236.641 
        1.10449         216.214         42.7112         235.342 
        1.11063         214.371         42.1641         233.828 
        1.11677         213.981         41.6267         232.042 
         1.1229         212.331         41.0997         230.927 
        1.12903         211.088         40.5813         229.915 
        1.13518         209.642         40.0716         228.362 
        1.14131         207.801         39.5708         226.992 
        1.14745         207.535          39.079         225.817 
        1.15359         205.664         38.5954         224.538 
        1.15973         204.208         38.1199          223.22 
        1.16584         202.523         37.6545         221.522 
        1.17197         202.403         37.1963         221.003 
        1.17811         200.002         36.7443         219.797 
        1.18424          198.99         36.3012         218.208 
        1.19038         198.325         35.8641         217.623 
        1.19652         196.645         35.4345         216.383 
        1.20267         196.031         35.0119         214.717 
        1.20881         194.139         34.5963         213.937 
        1.21495         193.089         34.1881         212.561 
        1.22108         191.861         33.7867         211.406 
         1.2272         190.309         33.3926         209.649 
        1.23334         189.526         33.0039         209.058 
        1.23949         188.099         32.6206         208.373 
        1.24562         187.057         32.2444         206.664 
        1.25174         185.529         31.8747         205.868 
        1.25789         184.222         31.5097          204.58 
        1.26402         182.772         31.1512         203.661 
        1.27014          181.55         30.7991         202.739 
        1.27628         180.727         30.4514         202.241 
        1.28244         180.486         30.1084         200.925 
        1.28858         178.422         29.7712         199.602 
        1.29471          176.99         29.4399         198.224 
        1.30084          176.33          29.114         197.369 
        1.30697         174.899         28.7926         196.528 
        1.31312         173.554         28.4756         195.021 
        1.31925         172.949         28.1643          194.14 
        1.32537         172.031         27.8581         193.493 
        1.33151         170.248         27.5553         192.367 
        1.33765         169.367         27.2572         191.314 
        1.34378         168.614         26.9641         190.539 
        1.34992         167.734         26.6751         189.169 
        1.35606         167.454         26.3898         188.076 
         1.3622         165.552         26.1091         187.448 
        1.36833         164.118         25.8332         186.417 
        1.37445         163.352         25.5615         185.147 
        1.38059         162.121         25.2928         184.332 
        1.38675         161.479         25.0273          183.59 
        1.39288         160.408         24.7667         181.918 
        1.39901          160.19           24.51         181.542 
        1.40515         158.306         24.2563         180.925 
         1.4113         157.431         24.0064         179.875 
        1.41742         156.385         23.7609         179.074 
        1.42355         155.528         23.5184         178.245 
         1.4297         154.427         23.2785         177.295 
        1.43585         153.505         23.0421         176.231 
        1.44198         152.628         22.8099         175.584 
        1.44809         151.977         22.5814         174.664 
        1.45423         150.934         22.3551         173.519 
        1.46036         149.901         22.1324          172.72 
        1.46649         148.744         21.9126         172.179 
        1.47263          147.84         21.6957         171.484 
        1.47877         147.125         21.4818         170.304 
        1.48491         145.568         21.2704         169.416 
        1.49104         145.449         21.0623         169.052 
        1.49718         143.904         20.8569         167.788 
        1.50333         143.368         20.6539         166.854 
        1.50947         142.678          20.454         166.299 
         1.5156         141.507         20.2571         165.469 
        1.52172         140.725         20.0627         164.403 
        1.52787         139.563         19.8706         163.784 
          1.534         139.115         19.6811         163.068 
        1.54013         138.172         19.4944         162.328 
        1.54627          137.36         19.3097         161.682 
        1.55241         136.323         19.1275         160.862 
        1.55855         135.515         18.9478         159.889 
        1.56467         134.731         18.7709         159.106 
         1.5708         133.857         18.5958         158.509 
        1.57695         133.158         18.4227         157.777 
        1.58308         132.505         18.2522         156.952 
        1.58922         131.776         18.0838         156.231 
        1.59535         130.657         17.9175         155.563 
         1.6015         130.177         17.7531         154.706 
        1.60764         129.287         17.5908         153.867 
        1.61376         128.437         17.4311         153.374 
        1.61989         127.611         17.2731         152.808 
        1.62604         126.801         17.1168         151.793 
        1.63218         126.292         16.9625         151.051 
        1.63831         125.225         16.8105         150.543 
        1.64444          124.74         16.6603         149.585 
        1.65059         124.009         16.5116         149.124 
        1.65673         122.804         16.3648         148.384 
        1.66285         122.603         16.2202         147.574 
        1.66898         121.685         16.0774         147.088 
        1.67512         121.318          15.936         146.391 
        1.68127          120.09         15.7961         145.785 
         1.6874         119.196         15.6583         145.229 
        1.69353         118.909         15.5221         144.446 
        1.69967         118.126         15.3873          143.65 
        1.70581          117.36         15.2542         143.046 
        1.71193          116.66         15.1231         142.445 
        1.71806         116.071         14.9933         141.554 
        1.72421         115.289         14.8647         140.979 
        1.73035         115.064         14.7379          140.44 
        1.73649         114.157         14.6125         139.736 
        1.74262         113.236         14.4887         139.139 
        1.74876          112.82         14.3662         138.522 
        1.75489         111.895         14.2454          137.86 
        1.76101         111.215          14.126         137.242 
        1.76715         110.603         14.0079         136.713 
        1.77329         110.327         13.8909         135.965 
        1.77943         109.271         13.7753         135.205 
        1.78557         108.766         13.6611         134.725 
        1.79171         108.022         13.5482         134.242 
        1.79785         107.432         13.4366         133.647 
        1.80399         106.691         13.3262         132.981 
        1.81012         106.178         13.2172         132.282 
        1.81625         105.548         13.1095         131.733 
        1.82239         105.145         13.0028         131.243 
        1.82853         104.441         12.8974         130.555 
        1.83466         103.629         12.7933          129.88 
        1.84078         103.335         12.6904         129.377 
        1.84692         102.379         12.5884         128.978 
        1.85306         102.092         12.4875         128.318 
         1.8592         101.312         12.3879          127.63 
        1.86533         100.476         12.2893         127.229 
        1.87147         100.023         12.1918         126.671 
        1.87761         99.4774         12.0952         126.062 
