# k  (h/Mpc)    P(k)  (Mpc/h)^3    P_linear(k)  (Mpc/h)^3     P_NL(k)  ShotnoiseSubtracted = false
     0.00783031          5021.7         5079.18         5060.44 
       0.013688         6383.65         6359.78         6329.42 
       0.019231         6535.59          6526.6         6487.71 
      0.0249154         6036.39         6107.42         6075.01 
      0.0312784         5310.15         5334.15         5310.68 
      0.0375637         4556.89         4546.52         4527.61 
      0.0433917         3906.33         3934.42         3917.55 
      0.0492413         3471.98         3474.73         3460.31 
      0.0555754         3092.16          3132.9         3119.44 
      0.0619321         2918.35          2899.7         2886.07 
       0.067871         2696.77         2726.35         2712.16 
      0.0738098         2522.45         2553.59         2530.43 
      0.0800417         2304.35         2348.55         2327.18 
      0.0862327         2095.74         2119.87         2108.75 
      0.0921407         1890.58         1894.34         1886.97 
      0.0982031         1668.05         1677.72         1683.46 
       0.104506         1511.46            1488         1504.39 
       0.110769         1368.01         1344.69         1356.88 
       0.116806         1262.36         1247.45         1259.25 
       0.122832         1202.57         1181.02         1194.02 
       0.129052         1134.48         1130.72         1141.24 
       0.135211         1088.09         1085.09         1094.12 
       0.141259         1046.24         1034.13         1045.22 
       0.147318         990.055         972.601         989.499 
       0.153489           911.9         900.776         912.526 
       0.159709         847.048         825.169         844.782 
       0.165845         791.642          754.78          786.62 
       0.171974         728.199         694.487             727 
       0.178125         684.755         646.872         686.776 
       0.184229         652.329         612.055         650.629 
        0.19034          612.26         586.823         623.027 
       0.196428         602.117         567.153         597.156 
       0.202534         587.463          548.67         578.574 
       0.208729         560.902         527.851         555.127 
       0.214876         531.817         503.569          537.81 
       0.220989         512.999         476.177         513.644 
       0.227147         480.698         447.072         486.542 
        0.23329         456.238         418.855         464.447 
       0.239377         439.024         393.736          441.59 
       0.245482          408.96         372.566         417.513 
       0.251667         401.001         355.429         403.162 
       0.257832         387.193         341.983          387.79 
       0.263955         374.231         330.958         374.589 
       0.270079         362.047         320.841         363.213 
        0.27624         356.419         310.407         350.923 
       0.282372         342.736         299.059          340.76 
        0.28843         330.349         286.837         329.193 
       0.294538          315.46         273.889         318.506 
       0.300721         309.896         260.848          308.12 
        0.30691         294.532         248.577         297.499 
       0.313033         286.174          237.73         285.587 
       0.319153         273.997         228.384         276.878 
       0.325316          267.61         220.368         269.533 
        0.33145         258.744         213.455         259.892 
       0.337538         254.679         207.194         252.583 
       0.343633         246.485         201.105         247.922 
       0.349808         239.066         194.826         242.328 
       0.355968         234.508         188.306         237.113 
       0.362074           227.9         181.669         230.297 
       0.368217         221.357          174.97         222.311 
       0.374374         214.093         168.478         216.677 
       0.380519         209.571         162.414         210.312 
       0.386598         203.948         156.934         205.298 
       0.392688         200.669         151.997          200.22 
        0.39888          195.36         147.451         194.696 
       0.405048         190.866         143.284         191.254 
       0.411186         186.561         139.344             187 
       0.417313         182.378         135.483         181.642 
       0.423458         178.397         131.624         178.121 
       0.429607         173.948         127.749         174.367 
       0.435692         168.661         123.928         170.577 
       0.441815          167.16         120.167         168.198 
       0.447964         164.026          116.54         163.956 
       0.454126         156.909         113.099         159.346 
       0.460267         155.008         109.896         157.292 
       0.466387         152.592         106.925         153.613 
        0.47254         149.511         104.117         150.847 
       0.478662         147.789         101.462         147.855 
       0.484765         143.629         98.9133         144.133 
       0.490885         141.202         96.4181         142.282 
       0.497035         139.183         93.9437         140.218 
       0.503198         135.399         91.5042          137.45 
       0.509342         132.937         89.1258         135.317 
       0.515458         130.999          86.825         133.752 
       0.521598         129.103         84.5971         130.309 
       0.527764         127.037         82.4565         127.421 
       0.533884         124.865         80.4377         125.596 
           0.54         122.605         78.5166         123.615 
       0.546137         121.379         76.6693         122.108 
       0.552299         119.442         74.8813         119.388 
       0.558452         116.783         73.1521         117.317 
       0.564573         114.654         71.4788         116.108 
       0.570708         113.161         69.8414         114.273 
       0.576825         111.418         68.2439         112.228 
       0.582926         109.336         66.6898         110.483 
       0.589034         107.324         65.1787         109.338 
       0.595184         106.001         63.7087         107.446 
       0.601379         104.801         62.2832         106.301 
       0.607522          102.19         60.9206         104.009 
       0.613639         101.932         59.6102         102.908 
       0.619772         99.5879         58.3389         101.142 
       0.625918         98.5592         57.1042         100.235 
       0.632068         97.3803          55.905         98.4652 
       0.638161         96.1411         54.7499         97.5608 
         0.6443         94.8461         53.6167         95.9215 
       0.650464         93.5325         52.5076          94.156 
       0.656582         92.3413         51.4345         93.5032 
       0.662703         90.5932         50.3893         91.8974 
       0.668861         89.6039         49.3672         90.9434 
       0.675024         88.4634         48.3742         89.5774 
       0.681124         87.3581         47.4216         88.4475 
       0.687237         85.7775         46.4959         87.3042 
       0.693381         84.8887         45.5926         86.0909 
       0.699536         83.7522         44.7127          85.566 
       0.705665         84.0571           43.86         84.6817 
       0.711789         81.6832         43.0294         82.9439 
       0.717957         81.1654         42.2131         82.3466 
        0.72409         79.9984         41.4215         81.7758 
       0.730186         78.6488         40.6543          80.698 
       0.736317         78.4475         39.9022          79.494 
       0.742472         77.3803         39.1666         78.6706 
       0.748622         76.6522         38.4508         77.6924 
        0.75476         75.7565         37.7553         76.8135 
       0.760888         74.6444         37.0789         75.8542 
       0.767043         73.9001         36.4169         75.4728 
       0.773185         73.0069          35.773         74.7998 
       0.779291         72.4816         35.1485         73.9369 
       0.785407         71.8555         34.5381         72.8681 
       0.791564         70.7922         33.9383          72.138 
       0.797719         69.7693         33.3529         71.6591 
       0.803834         69.4877         32.7848         70.6552 
       0.809972         68.2338         32.2278         70.0022 
       0.816124         67.6686         31.6825         69.4891 
       0.822261         67.1767         31.1513         68.5639 
       0.828378         66.5879         30.6339         67.6418 
       0.834502          65.879          30.128         67.4322 
       0.840667         65.2393         29.6303         66.8192 
       0.846816         64.3891         29.1455         66.1248 
       0.852925         63.8263         28.6747          65.547 
       0.859047         62.9516         28.2134         64.7306 
       0.865192         62.6095          27.761         64.2735 
       0.871341         62.2305         27.3183          63.633 
       0.877463         61.0988         26.8873         63.1152 
       0.883569          60.695         26.4668         62.7098 
       0.889708         60.3439         26.0532         62.0155 
       0.895864         59.7412         25.6474         61.4798 
       0.902008          59.221         25.2512         60.9014 
       0.908149         58.7464         24.8635         60.4807 
       0.914301         58.2064         24.4835         60.0594 
       0.920448         57.6271         24.1117         59.4252 
       0.926574         57.1143         23.7491         58.7802 
       0.932687         56.6982         23.3946         58.4474 
       0.938823         55.8257         23.0462         57.7975 
       0.944975          55.677         22.7042          57.302 
       0.951105         55.0869         22.3703          57.057 
       0.957225          54.407         22.0438          56.532 
       0.963368         54.3073         21.7227         55.9062 
       0.969511         53.8559          21.408         55.4847 
       0.975621         53.4009         21.1013         55.3348 
       0.981748         52.7957         20.7999         54.7783 
       0.987916         52.4276         20.5025         54.4241 
        0.99406         52.1258         20.2121         53.9617 
        1.00019         51.4325         19.9279         53.5134 
        1.00632         51.2289         19.6494         53.1153 
        1.01246         50.7653          19.376         52.6679 
        1.01859         50.1189         19.1082         52.3533 
        1.02471         50.1813         18.8458         52.0152 
        1.03085         49.6183         18.5874         51.5515 
        1.03698         49.1003         18.3345         51.1403 
        1.04314         48.6384         18.0853         50.6682 
        1.04929         48.3972         17.8412         50.4666 
        1.05541         47.8855         17.6027         50.2853 
        1.06154         47.7769          17.368         49.7595 
        1.06769         47.2928         17.1372         49.4197 
        1.07382         47.0269         16.9114         49.0972 
        1.07993         46.8092         16.6902         48.6704 
        1.08607         46.2543         16.4721         48.3636 
        1.09222         46.0698         16.2577         48.0687 
        1.09836         45.6829         16.0473         47.7534 
        1.10449          45.329          15.841         47.3489 
        1.11063         44.7865          15.638          47.023 
        1.11677         44.5606         15.4387         46.7026 
         1.1229         44.4004         15.2432         46.4377 
        1.12903         43.7432          15.051         46.1334 
        1.13518         43.7578         14.8619         45.7755 
        1.14131           43.57         14.6762         45.5451 
        1.14745         42.9699         14.4938         45.2422 
        1.15359         42.8863         14.3145         45.0211 
        1.15973         42.3887         14.1381         44.7151 
        1.16584         42.0869         13.9655         44.3564 
        1.17197         41.9655         13.7955         44.0991 
        1.17811         41.6059         13.6279         43.7173 
        1.18424         41.1965         13.4636         43.4751 
        1.19038         41.1396         13.3015         43.3762 
        1.19652         40.8988         13.1421         42.9657 
        1.20267         40.5643         12.9854         42.8048 
        1.20881         40.2349         12.8312         42.4985 
        1.21495         39.9319         12.6799         42.3498 
        1.22108         39.6961          12.531         41.9894 
         1.2272         39.2503         12.3848         41.8179 
        1.23334         39.1502         12.2407         41.5318 
        1.23949         39.0209         12.0985         41.1992 
        1.24562         38.7079          11.959          41.025 
        1.25174         38.5231         11.8219         40.8145 
        1.25789         38.2543         11.6865         40.5299 
        1.26402         37.9864         11.5535         40.2746 
        1.27014          37.622         11.4229         40.1054 
        1.27628         37.4798          11.294         39.8459 
        1.28244         37.1831         11.1668         39.7037 
        1.28858         37.0582         11.0417         39.4275 
        1.29471         36.9034         10.9188         39.2327 
        1.30084         36.6356          10.798         38.9451 
        1.30697         36.3183         10.6787         38.6806 
        1.31312         36.0354         10.5612         38.5654 
        1.31925         35.9144         10.4457         38.3238 
        1.32537         35.7465         10.3321         38.1349 
        1.33151         35.4607         10.2198         37.9543 
        1.33765         35.3968         10.1093         37.7501 
        1.34378         35.1782         10.0006         37.5335 
        1.34992         34.7204         9.89341         37.3614 
        1.35606         34.5828         9.78758         37.2116 
         1.3622         34.3845         9.68348         37.0174 
        1.36833         34.1956         9.58116         36.8143 
        1.37445         34.1664         9.48036         36.5637 
        1.38059         33.9348         9.38071         36.4562 
        1.38675         33.6052         9.28226         36.2579 
        1.39288         33.5183         9.18561         36.0876 
        1.39901         33.2054         9.09039         35.9054 
        1.40515         33.0736         8.99631         35.6772 
         1.4113         32.9503          8.9036         35.4778 
        1.41742         32.6041         8.81255         35.3473 
        1.42355         32.5433         8.72261         35.1335 
         1.4297         32.2939         8.63366         34.9222 
        1.43585         32.2434         8.54598         34.8209 
        1.44198         31.9334         8.45986         34.6438 
        1.44809         31.8026          8.3751         34.4482 
        1.45423         31.6766         8.29119         34.2296 
        1.46036         31.5298         8.20858         34.0844 
        1.46649         31.2883         8.12707         33.9623 
        1.47263         31.1264          8.0466         33.8234 
        1.47877         31.0076         7.96726         33.6834 
        1.48491          30.819         7.88887         33.4676 
        1.49104         30.6793         7.81171         33.3133 
        1.49718         30.3886         7.73551         33.1534 
        1.50333         30.3284         7.66022         33.0331 
        1.50947         30.1738         7.58608         32.9081 
         1.5156         29.9652         7.51304         32.7375 
        1.52172         29.7421         7.44097         32.5488 
        1.52787         29.7797         7.36969         32.3961 
          1.534         29.4875         7.29944          32.274 
        1.54013         29.2933         7.23018         32.1057 
        1.54627         29.2406          7.1617         31.9322 
        1.55241         29.0383         7.09409         31.8027 
        1.55855         28.8764         7.02746         31.6905 
        1.56467         28.6872         6.96186         31.5547 
         1.5708         28.6321         6.89692         31.4072 
        1.57695          28.338         6.83272         31.2375 
        1.58308         28.3935         6.76948         31.0876 
        1.58922         28.1956           6.707         30.9927 
        1.59535         27.9916         6.64533         30.8664 
         1.6015         27.8506         6.58436         30.7016 
        1.60764         27.7761         6.52418         30.5448 
        1.61376         27.5694         6.46492         30.4202 
        1.61989         27.3495         6.40635         30.3089 
        1.62604         27.3311         6.34837         30.2273 
        1.63218         27.1333         6.29115         30.1209 
        1.63831         27.0415         6.23477         29.9743 
        1.64444         26.9052         6.17906         29.8397 
        1.65059         26.6933         6.12389         29.6964 
        1.65673         26.6051         6.06946         29.5601 
        1.66285         26.4724         6.01584         29.4518 
        1.66898         26.3488         5.96286         29.3535 
        1.67512         26.2646         5.91041         29.2093 
        1.68127         26.0377         5.85854         29.0917 
         1.6874         25.9518         5.80742         28.9597 
        1.69353         25.8515         5.75693          28.764 
        1.69967         25.6684         5.70693         28.6801 
        1.70581          25.567         5.65754         28.6254 
        1.71193         25.4447         5.60893         28.5156 
        1.71806         25.3222         5.56079         28.3574 
        1.72421         25.1662         5.51311         28.2356 
        1.73035         25.0619         5.46605         28.1516 
        1.73649           24.96         5.41955         28.0496 
        1.74262         24.8116         5.37363         27.8787 
        1.74876         24.7642         5.32821         27.7583 
        1.75489         24.5842         5.28341         27.6888 
        1.76101         24.4819         5.23914         27.6032 
        1.76715         24.3685         5.19532         27.4612 
        1.77329         24.2893         5.15195          27.329 
        1.77943         24.1482         5.10905         27.2326 
        1.78557         24.0277          5.0667          27.145 
        1.79171         23.9286         5.02483         27.0355 
        1.79785         23.7832         4.98342         26.9427 
        1.80399         23.6689         4.94249         26.8814 
        1.81012         23.6315         4.90207         26.7184 
        1.81625         23.5016         4.86213         26.5774 
        1.82239         23.4484         4.82256         26.5189 
        1.82853           23.22         4.78346          26.426 
        1.83466         23.1109         4.74483         26.3277 
        1.84078         22.9562         4.70667         26.2382 
        1.84692         22.9413         4.66887         26.1355 
        1.85306         22.7964         4.63144         26.0362 
         1.8592         22.6859         4.59447         25.9402 
        1.86533         22.5734         4.55794         25.8355 
        1.87147         22.4772         4.52175         25.7326 
        1.87761         22.4513         4.48595         25.6324 
