# k  (h/Mpc)    Pcb(k)  (Mpc/h)^3    Pcb_linear(k) (Mpc/h)^3    Pcb_NL(k) (Mpc/h)^3   ShotnoiseSubtracted = false
     0.00783031         12565.4         12737.9         12685.9 
       0.013688         16075.9         15944.8           15848 
       0.019231         16386.4         16360.9           16229 
      0.0249154         15008.9           15309         15172.9 
      0.0312784           13227           13370           13235 
      0.0375637         11388.9         11395.5         11276.1 
      0.0433917            9698         9861.08         9739.12 
      0.0492413         8654.44          8708.8         8597.38 
      0.0555754         7636.67         7851.97         7752.99 
      0.0619321         7285.48         7267.45         7170.17 
       0.067871         6659.98         6832.95         6739.74 
      0.0738098         6230.16         6399.92         6255.73 
      0.0800417         5664.53         5886.02         5752.85 
      0.0862327         5174.85         5312.87         5237.62 
      0.0921407         4709.12         4747.63         4690.84 
      0.0982031         4160.53         4204.73         4219.45 
       0.104506         3820.71         3729.23         3803.16 
       0.110769         3468.78         3370.07         3424.98 
       0.116806         3219.46         3126.34         3180.23 
       0.122832         3059.73         2959.88         3019.59 
       0.129052         2861.93         2833.81         2882.89 
       0.135211          2745.5         2719.44         2757.63 
       0.141259         2651.66         2591.72          2644.6 
       0.147318         2515.66         2437.52         2514.65 
       0.153489         2313.27         2257.51         2312.89 
       0.159709         2174.54         2068.02         2164.94 
       0.165845         2062.36         1891.61         2047.85 
       0.171974         1922.02         1740.51         1907.55 
       0.178125         1814.09         1621.17         1825.17 
       0.184229         1728.57         1533.92         1726.34 
        0.19034         1627.86         1470.68         1654.43 
       0.196428         1603.65         1421.39         1583.48 
       0.202534         1554.47         1375.06         1536.15 
       0.208729         1487.97         1322.89         1465.95 
       0.214876         1424.25         1262.03         1433.43 
       0.220989         1376.97         1193.38         1383.43 
       0.227147         1309.97         1120.44         1327.32 
        0.23329         1253.03         1049.72         1281.82 
       0.239377         1225.11         986.769          1225.5 
       0.245482          1143.7         933.713         1164.59 
       0.251667         1133.89         890.767         1132.02 
       0.257832         1089.94         857.068         1090.13 
       0.263955         1055.78         829.436          1055.4 
       0.270079         1019.89          804.08         1025.97 
        0.27624            1010         777.929         995.152 
       0.282372         967.908         749.491         972.747 
        0.28843         954.751         718.862         947.909 
       0.294538         906.738         686.411         922.375 
       0.300721         901.558         653.727         895.234 
        0.30691         862.004         622.975         877.107 
       0.313033         844.792          595.79         845.882 
       0.319153         825.155         572.366         821.047 
       0.325316         799.077          552.28         803.784 
        0.33145         779.426         534.952         774.261 
       0.337538         767.147         519.262         758.847 
       0.343633         746.476         504.003         750.996 
       0.349808         721.229         488.265         737.675 
       0.355968         716.395         471.926         724.677 
       0.362074         706.346         455.292         709.193 
       0.368217         685.563         438.502         688.832 
       0.374374         657.121         422.235         674.699 
       0.380519         655.644         407.036         658.771 
       0.386598         638.319         393.301         650.228 
       0.392688         635.829          380.93         631.808 
        0.39888         616.793         369.537         621.691 
       0.405048         606.356         359.093         612.719 
       0.411186         596.845         349.218          597.85 
       0.417313         585.024         339.543          587.32 
       0.423458         574.528         329.871         578.784 
       0.429607         565.087         320.158         567.575 
       0.435692         552.366         310.583         556.028 
       0.441815         547.804         301.159         551.979 
       0.447964         535.772         292.069         542.513 
       0.454126         525.963         283.444         527.798 
       0.460267         515.771         275.418         525.345 
       0.466387          510.12         267.971         515.201 
        0.47254         501.643         260.934         508.065 
       0.478662          499.59          254.28         498.585 
       0.484765         483.417         247.893         490.134 
       0.490885         479.468         241.638         482.922 
       0.497035         469.804         235.439          477.72 
       0.503198         464.684         229.324         471.197 
       0.509342         460.663         223.364         464.969 
       0.515458         456.326         217.598          461.11 
       0.521598         445.353         212.014         453.611 
       0.527764         437.228          206.65         448.337 
       0.533884         435.258          201.59         442.523 
           0.54         429.532         196.775         435.814 
       0.546137         427.301         192.145         430.571 
       0.552299         419.108         187.665         424.534 
       0.558452         416.633         183.331         420.456 
       0.564573         410.416         179.138         417.062 
       0.570708         404.315         175.033         412.915 
       0.576825         395.042         171.031          405.26 
       0.582926         393.983         167.135         401.379 
       0.589034         390.224         163.348          395.99 
       0.595184         386.561         159.665         390.781 
       0.601379         381.236         156.091         387.376 
       0.607522         375.685         152.677         382.596 
       0.613639         374.264         149.393         380.321 
       0.619772         365.497         146.207         378.474 
       0.625918         364.348         143.112         372.395 
       0.632068         358.504         140.107         368.201 
       0.638161         357.113         137.212         365.129 
         0.6443         350.777         134.372         361.794 
       0.650464         347.879         131.592         355.398 
       0.656582         345.883         128.903         352.752 
       0.662703         344.159         126.284         351.253 
       0.668861         337.902         123.722         347.966 
       0.675024          334.42         121.234         344.653 
       0.681124         332.254         118.846         339.333 
       0.687237         328.935         116.526         336.406 
       0.693381         324.177         114.262         333.357 
       0.699536          320.64         112.057         331.036 
       0.705665         318.509          109.92         327.491 
       0.711789         316.202         107.838         325.257 
       0.717957         313.705         105.793         323.227 
        0.72409         310.773         103.809         320.271 
       0.730186          307.02         101.886         317.227 
       0.736317         304.013         100.001         313.992 
       0.742472         302.349         98.1577          310.92 
       0.748622         299.482         96.3638         308.158 
        0.75476         296.343         94.6208          307.98 
       0.760888         292.849         92.9256         303.622 
       0.767043         293.223         91.2667         301.556 
       0.773185         289.189         89.6528         299.216 
       0.779291         284.688         88.0878         296.036 
       0.785407         283.914         86.5581         294.162 
       0.791564         280.412         85.0548         291.917 
       0.797719         277.909         83.5876         289.747 
       0.803834         275.674         82.1639         288.174 
       0.809972         274.448          80.768          285.78 
       0.816124         274.104         79.4014         282.648 
       0.822261         270.046         78.0701          281.07 
       0.828378         268.066         76.7735         278.677 
       0.834502         266.489         75.5055         277.005 
       0.840667         263.177         74.2583         274.489 
       0.846816         261.665         73.0431         273.007 
       0.852925         260.129         71.8633         270.978 
       0.859047         258.089         70.7074         269.145 
       0.865192         255.083         69.5734         266.845 
       0.871341         253.172         68.4639         265.041 
       0.877463         251.577         67.3838          263.58 
       0.883569           250.4           66.33         262.268 
       0.889708         247.763         65.2934          259.59 
       0.895864         244.946         64.2765         258.072 
       0.902008         243.979         63.2834         256.196 
       0.908149         242.718          62.312         253.924 
       0.914301         239.516         61.3595         252.323 
       0.920448         238.027         60.4279         250.339 
       0.926574         236.098         59.5189          248.61 
       0.932687         236.068         58.6307         247.054 
       0.938823         233.009         57.7575         246.162 
       0.944975           231.8         56.9002         244.674 
       0.951105         230.303         56.0635         242.733 
       0.957225         228.385         55.2452         240.917 
       0.963368         225.392         54.4405          239.18 
       0.969511          224.34         53.6519         237.444 
       0.975621         222.399         52.8833         236.678 
       0.981748         222.307         52.1278         235.216 
       0.987916         220.069         51.3825         233.725 
        0.99406         217.449         50.6546         232.237 
        1.00019         217.387         49.9424         230.402 
        1.00632         215.449         49.2446         228.638 
        1.01246         213.728         48.5592         226.845 
        1.01859         213.583         47.8881             226 
        1.02471         210.579         47.2305         225.063 
        1.03085         208.777         46.5831         223.767 
        1.03698         207.973         45.9492          222.81 
        1.04314         205.978         45.3245         220.983 
        1.04929         204.672          44.713         219.371 
        1.05541         204.575         44.1152         218.146 
        1.06154         201.947          43.527         216.911 
        1.06769         201.567         42.9486         215.884 
        1.07382         199.898         42.3827         214.412 
        1.07993          198.13         41.8284         213.166 
        1.08607         197.582         41.2817         211.987 
        1.09222         196.208         40.7443         210.902 
        1.09836         194.525         40.2171         209.964 
        1.10449         192.465            39.7         208.773 
        1.11063         190.824         39.1913         207.347 
        1.11677         190.508         38.6919         205.849 
         1.1229         189.005          38.202         204.795 
        1.12903         187.954         37.7202         203.869 
        1.13518         186.799         37.2464         202.594 
        1.14131         185.003          36.781         201.267 
        1.14745         184.806         36.3238         200.366 
        1.15359         183.194         35.8743         199.158 
        1.15973          182.09         35.4323         197.999 
        1.16584         180.348         34.9997         196.374 
        1.17197         180.041         34.5738         195.922 
        1.17811         178.311         34.1537         194.991 
        1.18424          177.41         33.7418         193.456 
        1.19038         176.888         33.3356         192.988 
        1.19652         175.378         32.9362         191.993 
        1.20267         174.667         32.5434         190.508 
        1.20881         172.941         32.1571          189.77 
        1.21495         172.205         31.7778         188.558 
        1.22108         171.098         31.4046         187.726 
         1.2272         169.635         31.0383         186.055 
        1.23334         169.012         30.6771         185.631 
        1.23949         167.698         30.3207         184.863 
        1.24562         166.703         29.9711         183.325 
        1.25174         165.173         29.6274         182.665 
        1.25789         164.158         29.2882         181.572 
        1.26402         163.043         28.9549         180.615 
        1.27014         161.891         28.6276         180.058 
        1.27628         161.212         28.3044         179.606 
        1.28244         160.884         27.9856         178.229 
        1.28858         159.294         27.6722         177.102 
        1.29471         157.796         27.3643         176.087 
        1.30084         157.316         27.0614         175.219 
        1.30697         156.068         26.7626         174.454 
        1.31312         155.129         26.4679         173.145 
        1.31925         154.307         26.1786         172.417 
        1.32537         153.462          25.894         171.897 
        1.33151         151.918         25.6125         170.834 
        1.33765         151.329         25.3354         169.951 
        1.34378         150.491          25.063         169.206 
        1.34992         149.811         24.7944         168.061 
        1.35606         149.339         24.5292         167.099 
         1.3622          147.74         24.2683          166.51 
        1.36833         146.646         24.0119         165.511 
        1.37445         145.859         23.7593           164.6 
        1.38059             145         23.5095         163.757 
        1.38675         144.262         23.2628         163.016 
        1.39288         143.453         23.0206         161.687 
        1.39901         143.194          22.782         161.364 
        1.40515         141.586         22.5462         160.841 
         1.4113         140.643         22.3138         159.982 
        1.41742         139.906         22.0856         159.311 
        1.42355         139.036         21.8602         158.573 
         1.4297         138.203         21.6373         157.699 
        1.43585         137.141         21.4176         156.646 
        1.44198         136.606         21.2018         156.084 
        1.44809         135.886         20.9893         155.351 
        1.45423         134.956          20.779         154.397 
        1.46036         134.126          20.572         153.663 
        1.46649         133.077         20.3677         153.176 
        1.47263          132.39         20.1661         152.592 
        1.47877          131.79         19.9672         151.529 
        1.48491         130.353         19.7708         150.846 
        1.49104         130.236         19.5774         150.496 
        1.49718         128.883         19.3864         149.234 
        1.50333          128.42         19.1977         148.445 
        1.50947         127.872         19.0119         147.957 
         1.5156         126.833         18.8289         147.261 
        1.52172          126.06         18.6482         146.473 
        1.52787         125.218         18.4696         145.807 
          1.534          124.66         18.2935         145.184 
        1.54013         123.804           18.12         144.569 
        1.54627         123.217         17.9483         143.934 
        1.55241         122.165         17.7789          143.22 
        1.55855         121.473         17.6119         142.442 
        1.56467         121.059         17.4475           141.7 
         1.5708         120.074         17.2848         141.196 
        1.57695         119.516         17.1239         140.588 
        1.58308         118.859         16.9654         139.785 
        1.58922         118.354         16.8088         139.147 
        1.59535         117.347         16.6543         138.572 
         1.6015         116.858         16.5014         137.828 
        1.60764         116.116         16.3506         137.125 
        1.61376         115.563         16.2021         136.755 
        1.61989         114.666         16.0553         136.267 
        1.62604           114.1           15.91         135.278 
        1.63218         113.553         15.7666         134.608 
        1.63831         112.595         15.6253         134.249 
        1.64444         112.202         15.4857         133.369 
        1.65059         111.573         15.3474         132.905 
        1.65673         110.417          15.211          132.31 
        1.66285         110.286         15.0767         131.663 
        1.66898         109.632         14.9439         131.201 
        1.67512         109.065         14.8124         130.589 
        1.68127          108.15         14.6824         129.973 
         1.6874          107.34         14.5543         129.432 
        1.69353          106.98         14.4278          128.87 
        1.69967         106.458         14.3025         128.176 
        1.70581         105.704         14.1787         127.579 
        1.71193          105.25         14.0569         127.067 
        1.71806         104.578         13.9362         126.429 
        1.72421         103.843         13.8167         125.876 
        1.73035         103.575         13.6988         125.295 
        1.73649         102.773         13.5822         124.674 
        1.74262         102.029         13.4672         124.215 
        1.74876         101.713         13.3533         123.661 
        1.75489         100.836         13.2411         123.024 
        1.76101         100.304         13.1301          122.46 
        1.76715         99.6012         13.0203         122.018 
        1.77329         99.3595         12.9116         121.409 
        1.77943         98.4449         12.8041         120.763 
        1.78557         98.0171          12.698          120.32 
        1.79171          97.304          12.593         119.894 
        1.79785          96.867         12.4892         119.395 
        1.80399         96.2135         12.3867         118.816 
        1.81012         95.7869         12.2854         118.159 
        1.81625          95.191         12.1852         117.654 
        1.82239         94.8643         12.0861         117.255 
        1.82853         94.2789         11.9881          116.68 
        1.83466         93.4773         11.8913         116.099 
        1.84078         93.3011         11.7957         115.658 
        1.84692         92.5021         11.7009         115.321 
        1.85306         92.0206         11.6071         114.734 
         1.8592         91.5101         11.5145         114.119 
        1.86533         90.8264         11.4229         113.744 
        1.87147         90.3125         11.3322          113.14 
