# k  (h/Mpc)    P(k)  (Mpc/h)^3    P_linear(k)  (Mpc/h)^3     P_NL(k)  ShotnoiseSubtracted = false
     0.00783031         76.7716         77.4247         77.1202 
       0.013688           96.63         97.0505         96.6553 
       0.019231         99.5118         99.6359         99.1751 
      0.0249154         92.9732         93.2559         92.9603 
      0.0312784         81.4321         81.4594         81.3769 
      0.0375637         69.5416         69.4367         69.4233 
      0.0433917         60.1497         60.0912          60.134 
      0.0492413         53.1578          53.072         53.1266 
      0.0555754         47.8714         47.8521         47.8809 
      0.0619321         44.3737          44.291         44.3007 
       0.067871         41.6186         41.6437         41.6217 
      0.0738098         38.9557         39.0052         38.9591 
      0.0800417         35.8001         35.8736         35.8294 
      0.0862327         32.3486         32.3809         32.3551 
      0.0921407         28.9345         28.9362         28.9312 
      0.0982031         25.6171         25.6275         25.6468 
       0.104506          22.775         22.7296          22.765 
       0.110769         20.5787         20.5406          20.574 
       0.116806         19.0526         19.0551         19.0785 
       0.122832         18.0564         18.0405         18.0581 
       0.129052         17.2549         17.2722          17.278 
       0.135211         16.5439         16.5751          16.573 
       0.141259         15.7815         15.7967         15.7937 
       0.147318         14.8604         14.8569         14.8611 
       0.153489         13.7536         13.7597         13.7648 
       0.159709         12.6038         12.6049         12.6219 
       0.165845         11.5605         11.5297         11.5612 
       0.171974         10.6103         10.6087         10.6417 
       0.178125         9.89036         9.88134         9.92003 
       0.184229         9.36616         9.34949         9.38585 
        0.19034         8.95417         8.96405         8.99517 
       0.196428           8.664         8.66358          8.6852 
       0.202534         8.40042         8.38122         8.40077 
       0.208729         8.06499          8.0632         8.08094 
       0.214876         7.68094          7.6923         7.71732 
       0.220989         7.28864         7.27388         7.30328 
       0.227147         6.82262         6.82929         6.86119 
        0.23329         6.39439         6.39827         6.43727 
       0.239377         6.01475         6.01457         6.05716 
       0.245482         5.68783         5.69119         5.73025 
       0.251667         5.43896         5.42941         5.47063 
       0.257832         5.22577         5.22401         5.26257 
       0.263955         5.05981         5.05559         5.09046 
       0.270079          4.9055         4.90104         4.93334 
        0.27624         4.75448         4.74167         4.77153 
       0.282372         4.57999         4.56831         4.60081 
        0.28843         4.38426         4.38162         4.41573 
       0.294538         4.18826         4.18384         4.21998 
       0.300721         3.99803         3.98462         4.02387 
        0.30691         3.80287         3.79718         3.83768 
       0.313033         3.63885         3.63149         3.67117 
       0.319153         3.48299         3.48871         3.52977 
       0.325316         3.37987         3.36627         3.40768 
        0.33145         3.27104         3.26066         3.29918 
       0.337538         3.17323         3.16503         3.20166 
       0.343633         3.07606         3.07201         3.10771 
       0.349808         2.98348          2.9761          3.0131 
       0.355968         2.88551         2.87651          2.9179 
       0.362074          2.7815         2.77511         2.81464 
       0.368217         2.68025         2.67278         2.70949 
       0.374374         2.57541         2.57362         2.61321 
       0.380519         2.48895         2.48098         2.51934 
       0.386598          2.4073         2.39727         2.43666 
       0.392688         2.33481         2.32186          2.3608 
        0.39888         2.26228         2.25242         2.29091 
       0.405048         2.19913         2.18876          2.2245 
       0.411186         2.13963         2.12858         2.16751 
       0.417313          2.0775          2.0696         2.10697 
       0.423458         2.02182         2.01064         2.04845 
       0.429607         1.95876         1.95145         1.98797 
       0.435692         1.90076         1.89308         1.93098 
       0.441815         1.84384         1.83564         1.87552 
       0.447964         1.79299         1.78023         1.81871 
       0.454126         1.73571         1.72767         1.76561 
       0.460267         1.68619         1.67874         1.71762 
       0.466387         1.63956         1.63335         1.67029 
        0.47254         1.59765         1.59046         1.62759 
       0.478662         1.55835          1.5499         1.58605 
       0.484765         1.51745         1.51097         1.54707 
       0.490885         1.48027         1.47285         1.51141 
       0.497035         1.44696         1.43506         1.47403 
       0.503198         1.40693         1.39779         1.43361 
       0.509342         1.37259         1.36146          1.3981 
       0.515458         1.33499         1.32631         1.36461 
       0.521598         1.30133         1.29228         1.32768 
       0.527764         1.26641         1.25958         1.29477 
       0.533884         1.23949         1.22874         1.26381 
           0.54         1.20895          1.1994         1.23377 
       0.546137         1.18175         1.17118         1.20638 
       0.552299         1.15368         1.14386         1.17645 
       0.558452          1.1254         1.11745         1.15058 
       0.564573         1.10117         1.09189         1.12753 
       0.570708         1.07611         1.06688         1.10161 
       0.576825         1.05075         1.04247          1.0764 
       0.582926           1.029         1.01873          1.0532 
       0.589034         1.00181        0.995652         1.03124 
       0.595184        0.980256        0.973196         1.00512 
       0.601379        0.958894         0.95142        0.986023 
       0.607522        0.939727        0.930605        0.964451 
       0.613639        0.921426        0.910588        0.943775 
       0.619772        0.898925        0.891169         0.92537 
       0.625918        0.880782        0.872308         0.90505 
       0.632068        0.863725        0.853989        0.886049 
       0.638161        0.844902        0.836344        0.868397 
         0.6443        0.827611        0.819033        0.850319 
       0.650464        0.809097        0.802091        0.834766 
       0.656582         0.79392        0.785698        0.817741 
       0.662703        0.778152        0.769732        0.801118 
       0.668861        0.764256        0.754119        0.786473 
       0.675024        0.747602        0.738951        0.770482 
       0.681124        0.731374          0.7244        0.755279 
       0.687237        0.718955        0.710258        0.739837 
       0.693381        0.705545        0.696459        0.725259 
       0.699536        0.689422        0.683019        0.712215 
       0.705665        0.676943        0.669993        0.701074 
       0.711789        0.665495        0.657305        0.687724 
       0.717957        0.651855        0.644836        0.674117 
        0.72409        0.640352        0.632743         0.66217 
       0.730186        0.627898        0.621024        0.649487 
       0.736317        0.618347        0.609535         0.63756 
       0.742472        0.606458        0.598298        0.627858 
       0.748622         0.59492        0.587363         0.61697 
        0.75476         0.58346         0.57674        0.604903 
       0.760888        0.572671        0.566407        0.594672 
       0.767043         0.56528        0.556295         0.58481 
       0.773185        0.553765        0.546458        0.575274 
       0.779291        0.544165        0.536919        0.565451 
       0.785407        0.535014        0.527595        0.555539 
       0.791564        0.526086        0.518432        0.546314 
       0.797719        0.517655        0.509489        0.536212 
       0.803834        0.509019        0.500811        0.527853 
       0.809972        0.499932        0.492303        0.520178 
       0.816124        0.491303        0.483973        0.510667 
       0.822261        0.482591        0.475859        0.502185 
       0.828378          0.4755        0.467955         0.49428 
       0.834502        0.468267        0.460226        0.485901 
       0.840667        0.459372        0.452624        0.478625 
       0.846816        0.452141        0.445218        0.472261 
       0.852925        0.446093        0.438026         0.46416 
       0.859047        0.438839        0.430981        0.457896 
       0.865192        0.431109        0.424069        0.450192 
       0.871341         0.42418        0.417306        0.443009 
       0.877463        0.418844        0.410723        0.435947 
       0.883569        0.411566        0.404299        0.430003 
       0.889708        0.405229        0.397981        0.423524 
       0.895864        0.398881        0.391783        0.416858 
       0.902008        0.392581         0.38573        0.410724 
       0.908149        0.386493        0.379809        0.404827 
       0.914301        0.379626        0.374003        0.398448 
       0.920448        0.374519        0.368324        0.392505 
       0.926574        0.368852        0.362784        0.387173 
       0.932687        0.363161         0.35737          0.3808 
       0.938823        0.358996        0.352048        0.376701 
       0.944975        0.353346        0.346823         0.37008 
       0.951105        0.348445        0.341723        0.364951 
       0.957225        0.343966        0.336734        0.360513 
       0.963368         0.33863         0.33183        0.355003 
       0.969511        0.333231        0.327023        0.350206 
       0.975621        0.328405        0.322338        0.344459 
       0.981748         0.32475        0.317734        0.339894 
       0.987916         0.31982         0.31319         0.33624 
        0.99406        0.315115        0.308754        0.331883 
        1.00019        0.311261        0.304413        0.327287 
        1.00632        0.306082         0.30016        0.322373 
        1.01246        0.301848        0.295982        0.317937 
        1.01859        0.298204        0.291891        0.314115 
        1.02471        0.293967        0.287883        0.310018 
        1.03085        0.290814        0.283937         0.30527 
        1.03698        0.286248        0.280073        0.301155 
        1.04314        0.282566        0.276266        0.297492 
        1.04929        0.278472        0.272538        0.293707 
        1.05541        0.275336        0.268895        0.290297 
        1.06154        0.271261        0.265309        0.286541 
        1.06769        0.267448        0.261784        0.282824 
        1.07382        0.264189        0.258335        0.279195 
        1.07993        0.260456        0.254956        0.275636 
        1.08607        0.257974        0.251623         0.27241 
        1.09222        0.254094        0.248348        0.268599 
        1.09836        0.251516        0.245135        0.265573 
        1.10449        0.248217        0.241982        0.262313 
        1.11063        0.244543        0.238882        0.258678 
        1.11677        0.241221        0.235838         0.25596 
         1.1229        0.238684        0.232852        0.252827 
        1.12903         0.23545        0.229915        0.249684 
        1.13518        0.232779        0.227027        0.246689 
        1.14131          0.2297         0.22419        0.243838 
        1.14745        0.226164        0.221404        0.240468 
        1.15359        0.223961        0.218664        0.237997 
        1.15973        0.220826         0.21597        0.235368 
        1.16584        0.218786        0.213333        0.232248 
        1.17197         0.21607        0.210737        0.229714 
        1.17811         0.21375        0.208176        0.227259 
        1.18424        0.211475        0.205666        0.224211 
        1.19038        0.208528         0.20319        0.221737 
        1.19652        0.205564        0.200755        0.219388 
        1.20267        0.203856        0.198361         0.21634 
        1.20881        0.201307        0.196007        0.214258 
        1.21495        0.199307        0.193694        0.212347 
        1.22108        0.196684         0.19142        0.209454 
         1.2272        0.194677        0.189187        0.206892 
        1.23334        0.192236        0.186985        0.204801 
        1.23949        0.190066        0.184813        0.202802 
        1.24562        0.187883        0.182682        0.200515 
        1.25174        0.185885        0.180588        0.198077 
        1.25789        0.184091         0.17852         0.19592 
        1.26402        0.181401        0.176488        0.193835 
        1.27014        0.179616        0.174493         0.19163 
        1.27628        0.177821        0.172524        0.189478 
        1.28244        0.175361         0.17058        0.187533 
        1.28858        0.173717         0.16867        0.185276 
        1.29471         0.17221        0.166793        0.183511 
        1.30084        0.169969        0.164947        0.181964 
        1.30697        0.168123        0.163126         0.17987 
        1.31312         0.16586         0.16133        0.177882 
        1.31925         0.16429        0.159566        0.176231 
        1.32537        0.162754        0.157831        0.174437 
        1.33151        0.161153        0.156116        0.172601 
        1.33765        0.159411        0.154427        0.170814 
        1.34378        0.157451        0.152766        0.169073 
        1.34992        0.155858        0.151129        0.167388 
        1.35606        0.154285        0.149512        0.165432 
         1.3622         0.15269        0.147922        0.163824 
        1.36833        0.150968        0.146359        0.162338 
        1.37445        0.149096         0.14482          0.1608 
        1.38059        0.147739        0.143297        0.159039 
        1.38675        0.146729        0.141793        0.157386 
        1.39288        0.145042        0.140317         0.15577 
        1.39901        0.143484        0.138863        0.154333 
        1.40515        0.142269        0.137425        0.152751 
         1.4113        0.140462        0.136009        0.151415 
        1.41742        0.139085        0.134618        0.150247 
        1.42355        0.137967        0.133244        0.148187 
         1.4297        0.136334        0.131886        0.147175 
        1.43585        0.135102        0.130546        0.145638 
        1.44198        0.133896        0.129231        0.143797 
        1.44809        0.132378        0.127936        0.143008 
        1.45423        0.131223        0.126654        0.141137 
        1.46036        0.129825        0.125392         0.13998 
        1.46649        0.128866        0.124147        0.138974 
        1.47263        0.127487        0.122918        0.137512 
        1.47877        0.125895        0.121706        0.136241 
        1.48491        0.124975        0.120508        0.135133 
        1.49104        0.123451         0.11933        0.133503 
        1.49718         0.12228        0.118166        0.132662 
        1.50333        0.121465        0.117016        0.131033 
        1.50947        0.120109        0.115883        0.129762 
         1.5156        0.118935        0.114767        0.128885 
        1.52172        0.117925        0.113666        0.127526 
        1.52787        0.116783        0.112578        0.126334 
          1.534        0.115521        0.111504        0.125371 
        1.54013        0.114508        0.110446        0.124207 
        1.54627        0.113633          0.1094        0.122997 
        1.55241        0.112332        0.108368        0.121895 
        1.55855        0.111245         0.10735        0.120805 
        1.56467        0.110641        0.106348        0.119853 
         1.5708        0.109427        0.105356        0.118632 
        1.57695        0.108385        0.104375        0.117462 
        1.58308        0.107405        0.103409        0.116639 
        1.58922        0.106463        0.102454        0.115678 
        1.59535        0.105489        0.101512        0.114572 
         1.6015        0.104421        0.100581        0.113436 
        1.60764        0.103646       0.0996618        0.112608 
        1.61376        0.102534       0.0987565        0.111916 
        1.61989        0.101737       0.0978618        0.110847 
        1.62604        0.100931       0.0969762        0.109823 
        1.63218       0.0999988       0.0961021        0.108929 
        1.63831       0.0991165       0.0952408        0.108006 
        1.64444       0.0982765       0.0943897        0.106988 
        1.65059       0.0974709       0.0935471        0.106072 
        1.65673       0.0965942       0.0927156        0.105245 
        1.66285       0.0958666       0.0918966        0.104386 
        1.66898       0.0949806       0.0910872        0.103443 
        1.67512       0.0940299        0.090286         0.10257 
        1.68127       0.0931674       0.0894937        0.101775 
         1.6874       0.0925524       0.0887127         0.10102 
        1.69353       0.0915514       0.0879415        0.100209 
        1.69967        0.091067       0.0871777       0.0992281 
        1.70581        0.089972       0.0864233       0.0983849 
        1.71193       0.0893328       0.0856807       0.0976732 
        1.71806       0.0884741       0.0849452       0.0968378 
        1.72421       0.0879998        0.084217       0.0961681 
        1.73035        0.087093       0.0834981       0.0953758 
        1.73649       0.0864688       0.0827877       0.0944009 
        1.74262       0.0857057       0.0820863       0.0936707 
        1.74876        0.084965       0.0813925         0.09309 
        1.75489       0.0844041       0.0807081       0.0923829 
        1.76101        0.083579       0.0800319       0.0915422 
        1.76715       0.0828611       0.0793625       0.0909065 
        1.77329        0.082069       0.0786999       0.0902655 
        1.77943       0.0814962       0.0780446       0.0895015 
        1.78557       0.0809789       0.0773977       0.0886968 
        1.79171       0.0803021       0.0767581       0.0879271 
        1.79785       0.0796699       0.0761256       0.0872914 
        1.80399       0.0789779       0.0755003       0.0867396 
        1.81012       0.0784154       0.0748829       0.0858715 
        1.81625       0.0777121       0.0742727       0.0851475 
        1.82239       0.0770754       0.0736684       0.0847336 
        1.82853       0.0764679       0.0730711       0.0841507 
        1.83466       0.0758887        0.072481       0.0834141 
        1.84078       0.0752801        0.071898       0.0827169 
        1.84692       0.0746024       0.0713206        0.082194 
        1.85306       0.0741736       0.0707487        0.081485 
         1.8592       0.0734419       0.0701841       0.0807276 
        1.86533       0.0729721       0.0696259       0.0802312 
        1.87147        0.072372       0.0690732       0.0796903 
        1.87761       0.0719133       0.0685263       0.0791389 
