# k  (h/Mpc)    Pcb(k)  (Mpc/h)^3    Pcb_linear(k) (Mpc/h)^3    Pcb_NL(k) (Mpc/h)^3   ShotnoiseSubtracted = false
     0.00783031         7066.45          7152.2         7125.21 
       0.013688         9001.39         8954.53         8908.79 
       0.019231         9203.36         9189.01         9129.19 
      0.0249154         8478.65         8598.61         8544.79 
      0.0312784          7463.5          7509.8         7465.33 
      0.0375637         6411.47         6400.86         6363.37 
      0.0433917         5484.88         5539.06         5503.26 
      0.0492413         4881.18         4891.87         4860.23 
      0.0555754         4335.14          4410.6         4381.85 
      0.0619321         4105.95          4082.3          4053.6 
       0.067871         3781.45         3838.24         3809.65 
      0.0738098            3537         3595.01         3549.44 
      0.0800417         3226.49         3306.35         3264.25 
      0.0862327         2938.56          2984.4         2961.79 
      0.0921407         2657.68          2666.9         2650.86 
      0.0982031         2345.07         2361.93         2370.58 
       0.104506         2134.12         2094.84         2123.64 
       0.110769         1933.14         1893.08         1914.26 
       0.116806         1786.06         1756.18         1776.84 
       0.122832          1700.9         1662.67          1685.6 
       0.129052         1600.02         1591.85         1610.46 
       0.135211         1534.98         1527.61         1543.19 
       0.141259         1478.07         1455.86         1475.71 
       0.147318         1399.59         1369.24         1399.31 
       0.153489         1288.21         1268.13            1289 
       0.159709         1201.48         1161.69         1197.27 
       0.165845         1127.75         1062.59         1120.52 
       0.171974         1041.38         977.709         1037.67 
       0.178125         980.547         910.674         984.368 
       0.184229         934.704          861.66         932.325 
        0.19034         876.347         826.137         892.785 
       0.196428         863.443         798.447         854.655 
       0.202534         841.352         772.425         828.455 
       0.208729         803.568         743.116         793.563 
       0.214876         763.198         708.933         771.652 
       0.220989         737.231         670.369         739.332 
       0.227147         693.875         629.393         702.773 
        0.23329         660.452          589.67         673.809 
       0.239377         639.048         554.306         641.996 
       0.245482         594.583         524.503         607.596 
       0.251667         585.555         500.379         588.285 
       0.257832         564.989         481.449         565.921 
       0.263955         546.599         465.927         546.845 
       0.270079         528.319         451.683         530.635 
        0.27624         521.611         436.993         513.095 
       0.282372          500.93         421.019         498.953 
        0.28843         485.776         403.813         482.996 
       0.294538         462.822         385.584         468.702 
       0.300721          457.35         367.224          454.45 
        0.30691         435.088          349.95         440.738 
       0.313033         424.523         334.679          423.65 
       0.319153         408.839         321.521         411.079 
       0.325316         397.846         310.238         400.941 
        0.33145         385.648         300.504          386.29 
       0.337538         380.199          291.69         376.224 
       0.343633         368.017         283.119         370.743 
       0.349808         356.522         274.278         362.959 
       0.355968         351.516           265.1         355.534 
       0.362074         343.076         255.756         346.172 
       0.368217         333.519         246.324         334.831 
       0.374374          321.27         237.186         326.787 
       0.380519         316.423         228.648         317.909 
       0.386598         308.359         220.933         311.585 
       0.392688         304.743         213.983         303.455 
        0.39888         296.515         207.584         296.181 
       0.405048         289.831         201.717         291.885 
       0.411186         283.569          196.17           284.5 
       0.417313         278.267         190.735         277.161 
       0.423458         272.595         185.302         272.269 
       0.429607         266.367         179.846         267.011 
       0.435692         259.123         174.467         261.336 
       0.441815          256.99         169.173         258.366 
       0.447964         251.877         164.067         252.616 
       0.454126         242.073         159.222         245.558 
       0.460267         239.134         154.714         243.133 
       0.466387         236.245          150.53         237.881 
        0.47254         231.027         146.577         233.795 
       0.478662         229.465         142.839           229.3 
       0.484765         222.618         139.252         223.807 
       0.490885         219.462         135.738         221.055 
       0.497035         216.093         132.255         218.161 
       0.503198         210.781         128.821         214.511 
       0.509342         208.197         125.472         211.535 
       0.515458          205.37         122.233         209.272 
       0.521598         202.032         119.097         204.494 
       0.527764         198.891         116.083          200.84 
       0.533884         195.971         113.241         198.143 
           0.54         192.945         110.537         195.053 
       0.546137         191.485         107.936         192.838 
       0.552299         187.963         105.419         188.979 
       0.558452          185.07         102.984         186.223 
       0.564573          181.93         100.629         184.514 
       0.570708         178.897         98.3231         181.953 
       0.576825         176.554         96.0747         178.488 
       0.582926         173.792         93.8866         176.162 
       0.589034         171.386         91.7592         174.464 
       0.595184         169.376         89.6901         171.301 
       0.601379         167.655         87.6829         170.124 
       0.607522         163.889         85.7647         167.097 
       0.613639         163.173         83.9199          165.41 
       0.619772         159.613         82.1302         162.962 
       0.625918         158.005          80.392         161.294 
       0.632068         156.157         78.7037         158.673 
       0.638161         154.846         77.0776         157.732 
         0.6443         152.671         75.4821         155.487 
       0.650464         150.911         73.9208         152.513 
       0.656582         149.139         72.4101         151.517 
       0.662703         146.994         70.9386         149.467 
       0.668861         144.957         69.4996         147.907 
       0.675024         143.216         68.1018         145.883 
       0.681124         142.261         66.7607         144.434 
       0.687237         139.705         65.4574          142.64 
       0.693381         137.874         64.1857         140.879 
       0.699536         136.761         62.9471         139.754 
       0.705665         136.851         61.7466         138.891 
       0.711789         133.454         60.5771         136.449 
       0.717957         132.963         59.4281         135.205 
        0.72409         131.049         58.3137         134.548 
       0.730186         128.903         57.2336         133.075 
       0.736317         128.369         56.1748         131.202 
       0.742472         127.271         55.1391         130.016 
       0.748622         126.115         54.1314         128.482 
        0.75476         124.871         53.1524         127.122 
       0.760888         123.068         52.2001         125.519 
       0.767043         122.224         51.2682         124.939 
       0.773185         120.882         50.3616         124.148 
       0.779291         119.372         49.4825         122.734 
       0.785407         118.656         48.6232         121.127 
       0.791564         117.307         47.7787         120.271 
       0.797719         115.646         46.9545         119.511 
       0.803834         115.095         46.1548         117.851 
       0.809972         113.421         45.3707          116.91 
       0.816124         113.112          44.603         116.218 
       0.822261         111.911         43.8551          114.93 
       0.828378          110.82         43.1268         113.434 
       0.834502         110.267         42.4145         112.935 
       0.840667         108.787         41.7139         112.363 
       0.846816         107.675         41.0313         111.116 
       0.852925          106.83         40.3685         110.066 
       0.859047         105.466         39.7192         109.047 
       0.865192          104.95         39.0822         108.404 
       0.871341         104.001         38.4589         107.231 
       0.877463         102.808         37.8522          106.59 
       0.883569           102.1         37.2602         105.855 
       0.889708         101.392          36.678         104.947 
       0.895864          100.45         36.1067         104.291 
       0.902008         99.6829         35.5489         103.164 
       0.908149         99.0414         35.0032          102.37 
       0.914301         97.9272         34.4681         101.767 
       0.920448         97.3037         33.9448         101.032 
       0.926574         96.5345         33.4342         99.8609 
       0.932687         96.1176         32.9352         99.1985 
       0.938823         94.6122         32.4447          98.478 
       0.944975         93.9834         31.9632         97.7382 
       0.951105         93.3002         31.4932         97.0625 
       0.957225         92.1739         31.0334         96.4772 
       0.963368         91.7928         30.5814         95.3491 
       0.969511         91.3717         30.1384         94.8132 
       0.975621         90.8382         29.7067          94.929 
       0.981748         90.0002         29.2823         93.8372 
       0.987916         89.0918         28.8636          93.368 
        0.99406         88.5743         28.4548         92.4773 
        1.00019         87.7482         28.0547         91.7017 
        1.00632         87.2889         27.6627         91.1822 
        1.01246          86.502         27.2777         90.4016 
        1.01859         85.3825         26.9007         89.9982 
        1.02471         85.5376         26.5313         89.6189 
        1.03085         84.6129         26.1676         88.8124 
        1.03698         83.9977         25.8115         88.0945 
        1.04314         83.1864         25.4606         87.5752 
        1.04929         82.7167         25.1171         87.2092 
        1.05541          82.026         24.7813         86.7901 
        1.06154         81.6995         24.4509         86.2069 
        1.06769         81.1471          24.126         85.6676 
        1.07382         80.8014         23.8081         85.0635 
        1.07993         80.2238         23.4967         84.5302 
        1.08607         79.5022         23.1896          83.989 
        1.09222         79.0911         22.8877         83.2504 
        1.09836         78.4801         22.5916         82.7577 
        1.10449         77.9757         22.3011         82.3313 
        1.11063         77.3793         22.0154         81.5949 
        1.11677          76.917         21.7348         81.1093 
         1.1229         76.2547         21.4596          80.971 
        1.12903         75.4005          21.189         80.3218 
        1.13518         75.6307         20.9228         79.8249 
        1.14131         75.0352         20.6614         79.3692 
        1.14745         74.1447         20.4045         78.9481 
        1.15359         73.8854         20.1521         78.4919 
        1.15973         73.3888         19.9038         78.1387 
        1.16584         72.8704         19.6608          77.463 
        1.17197         72.4008         19.4215         77.1686 
        1.17811         71.9792         19.1855         76.6118 
        1.18424         71.3817         18.9542         76.2506 
        1.19038         71.0086          18.726         75.8619 
        1.19652         70.7006         18.5016         75.2911 
        1.20267         70.0655          18.281         74.9895 
        1.20881         69.6744          18.064         74.5121 
        1.21495         69.1145         17.8509         74.0721 
        1.22108         68.7329         17.6412         73.8065 
         1.2272         68.1436         17.4355         73.3612 
        1.23334         67.8698         17.2325         72.9567 
        1.23949         67.5678         17.0324         72.4148 
        1.24562         67.1283          16.836         72.1046 
        1.25174         66.7609         16.6429         71.8264 
        1.25789         66.4139         16.4524         71.3264 
        1.26402         65.9727         16.2651         70.9593 
        1.27014          65.302         16.0813           70.76 
        1.27628         65.1293         15.8998         70.3366 
        1.28244         64.5236         15.7207         69.7669 
        1.28858         64.2461         15.5446         69.4696 
        1.29471         64.0435         15.3716         69.2668 
        1.30084         63.5657         15.2015         68.6069 
        1.30697         63.1154         15.0336          68.305 
        1.31312         62.7501         14.8681         68.1744 
        1.31925         62.5295         14.7056         67.7179 
        1.32537         62.1856         14.5457         67.3555 
        1.33151         61.5735         14.3876         67.0132 
        1.33765         61.3466          14.232         66.6905 
        1.34378         60.9719         14.0789         66.3323 
        1.34992         60.5943          13.928         66.0605 
        1.35606         60.2627         13.7791          65.759 
         1.3622         59.7619         13.6325         65.3923 
        1.36833          59.608         13.4885         65.0009 
        1.37445         59.2782         13.3466         64.7285 
        1.38059         58.8237         13.2063         64.6399 
        1.38675         58.5034         13.0677         64.0746 
        1.39288         58.1732         12.9316          63.914 
        1.39901         57.9323         12.7976         63.5707 
        1.40515           57.61         12.6651         63.3143 
         1.4113         57.3139         12.5346         63.0589 
        1.41742         57.0429         12.4064         62.6173 
        1.42355         56.5927         12.2798         62.2733 
         1.4297         56.2928         12.1546         61.9887 
        1.43585         55.9811         12.0311         61.7996 
        1.44198         55.7087         11.9099         61.5883 
        1.44809         55.4301         11.7906         61.0463 
        1.45423         55.1655         11.6724          60.835 
        1.46036         54.8473         11.5561         60.6393 
        1.46649          54.523         11.4414         60.4159 
        1.47263          54.171         11.3281         60.1535 
        1.47877         54.0067         11.2164         59.7453 
        1.48491         53.7725          11.106         59.5074 
        1.49104         53.3531         10.9974         59.1616 
        1.49718         52.9153         10.8901          58.943 
        1.50333         52.7538         10.7841         58.6737 
        1.50947         52.4771         10.6798         58.4091 
         1.5156         52.1841         10.5769         58.1992 
        1.52172         51.9384         10.4755         57.9698 
        1.52787           51.82         10.3751         57.7021 
          1.534         51.4447         10.2762         57.4432 
        1.54013         51.1511         10.1787         57.1735 
        1.54627         50.9542         10.0823         56.9081 
        1.55241         50.5672         9.98714         56.6433 
        1.55855         50.2713         9.89333         56.3467 
        1.56467         49.8651         9.80099          56.114 
         1.5708         49.8599         9.70957         55.9728 
        1.57695         49.5773         9.61918         55.7922 
        1.58308          49.292         9.53015         55.5027 
        1.58922         49.2239         9.44219         55.2012 
        1.59535         48.9368         9.35537          54.973 
         1.6015          48.489         9.26953         54.7038 
        1.60764         48.3381         9.18481         54.4957 
        1.61376         48.0628         9.10138         54.3578 
        1.61989         47.7019         9.01893         54.0408 
        1.62604         47.6148         8.93731         53.7518 
        1.63218         47.4501         8.85675         53.5508 
        1.63831         47.1388         8.77738         53.3704 
        1.64444         46.8823         8.69894         53.1335 
        1.65059         46.5039         8.62128         52.8849 
        1.65673         46.3338         8.54465         52.6661 
        1.66285         46.1189         8.46917         52.4816 
        1.66898         45.8719         8.39458         52.3189 
        1.67512          45.622         8.32074         52.1365 
        1.68127         45.3366         8.24772         51.8161 
         1.6874         45.2368         8.17575         51.5035 
        1.69353         44.9073         8.10467         51.3882 
        1.69967         44.7273         8.03428         51.2368 
        1.70581          44.638         7.96475         51.0878 
        1.71193         44.3317         7.89631         50.8849 
        1.71806         43.9609         7.82853         50.5125 
        1.72421         43.8309         7.76142         50.2846 
        1.73035         43.5748         7.69517         50.2315 
        1.73649         43.2622          7.6297         50.1217 
        1.74262         43.2002         7.56505         49.7052 
        1.74876         43.0685         7.50111         49.4656 
        1.75489         42.7245         7.43805         49.3556 
        1.76101         42.5755         7.37572         49.1714 
        1.76715          42.316         7.31403         48.9792 
        1.77329         42.0681         7.25296         48.7972 
        1.77943         41.9582         7.19257         48.6037 
        1.78557         41.7494         7.13296         48.3902 
        1.79171         41.4649         7.07401         48.1828 
        1.79785         41.2918         7.01571         48.0311 
        1.80399          41.136         6.95809         47.9121 
        1.81012         40.9462         6.90119         47.6199 
        1.81625         40.6026         6.84495         47.3559 
        1.82239         40.4936         6.78926         47.2471 
        1.82853         40.1613         6.73421         47.1212 
        1.83466         40.0984         6.67983         46.8946 
        1.84078         39.7631          6.6261         46.6649 
        1.84692         39.6112         6.57289         46.5862 
        1.85306         39.4326         6.52019         46.4176 
         1.8592         39.2261         6.46815         46.1849 
        1.86533          39.038         6.41671         46.0632 
        1.87147         38.8906         6.36577         45.9056 
