# k  (h/Mpc)    Pcb(k)  (Mpc/h)^3    Pcb_linear(k) (Mpc/h)^3    Pcb_NL(k) (Mpc/h)^3   ShotnoiseSubtracted = false
     0.00783031         2703.52         2731.84         2721.82 
       0.013688         3426.12         3421.23         3406.18 
       0.019231         3514.29         3511.24         3492.57 
      0.0249154         3257.82         3285.86         3271.98 
      0.0312784         2862.59         2869.91         2862.28 
      0.0375637         2452.76         2446.19         2440.82 
      0.0433917         2108.74         2116.88         2113.14 
      0.0492413         1870.81         1869.56         1866.78 
      0.0555754         1672.54         1685.65         1682.68 
      0.0619321         1569.96         1560.19         1556.96 
       0.067871         1457.81         1466.92         1462.96 
      0.0738098         1363.64         1373.97         1367.14 
      0.0800417         1248.27         1263.65         1257.36 
      0.0862327          1132.9         1140.61         1137.48 
      0.0921407         1018.54         1019.26         1017.56 
      0.0982031         899.013         902.712         905.099 
       0.104506         809.419          800.63          806.31 
       0.110769         731.889         723.523         727.898 
       0.116806         674.946         671.199         675.312 
       0.122832           642.7         635.461         639.869 
       0.129052         608.912         608.396         611.898 
       0.135211         583.739         583.844         586.885 
       0.141259         559.986         556.424         560.003 
       0.147318         529.372         523.318         528.811 
       0.153489         488.202         484.672         488.571 
       0.159709         450.823         443.991         450.335 
       0.165845         418.802         406.118         416.327 
       0.171974         383.602         373.676         383.951 
       0.178125         359.814         348.056         360.587 
       0.184229         342.244         329.323         341.552 
        0.19034         322.622         315.747         327.142 
       0.196428         315.813         305.163         314.413 
       0.202534         308.236         295.218         304.404 
       0.208729         294.403         284.016         292.582 
       0.214876          278.96         270.952         281.779 
       0.220989         268.212         256.213         267.999 
       0.227147         250.164         240.552          252.82 
        0.23329         236.293          225.37         239.644 
       0.239377         225.413         211.854         226.989 
       0.245482         210.922         200.464         214.537 
       0.251667         205.206         191.243         206.238 
       0.257832         197.901         184.008         198.378 
       0.263955         191.197         178.076         191.637 
       0.270079          185.25         172.632         185.693 
        0.27624         181.474         167.018         179.389 
       0.282372         174.743         160.912         173.816 
        0.28843         167.437         154.336         167.494 
       0.294538         160.197         147.369         161.212 
       0.300721         155.757         140.352         155.133 
        0.30691         147.914          133.75          148.94 
       0.313033         142.745         127.913         142.756 
       0.319153         135.862         122.884          138.07 
       0.325316          133.39         118.572         133.983 
        0.33145         128.634         114.852         129.392 
       0.337538         125.981         111.483          125.56 
       0.343633         121.927         108.207         122.496 
       0.349808         118.451         104.828         119.396 
       0.355968         115.372         101.321         116.607 
       0.362074         111.635         97.7492         112.821 
       0.368217         108.145         94.1446          108.62 
       0.374374         104.669         90.6521         105.613 
       0.380519         101.831         87.3888         102.152 
       0.386598         98.8952           84.44         99.3086 
       0.392688         96.8272          81.784         96.7299 
        0.39888         94.0775         79.3381         93.8724 
       0.405048         91.8996         77.0957         91.5621 
       0.411186         89.8042         74.9757         89.8357 
       0.417313         87.1198         72.8985         87.1173 
       0.423458         84.9942         70.8218         85.2184 
       0.429607         82.7079         68.7367         83.0177 
       0.435692         80.0707          66.681         81.1134 
       0.441815         78.9269         64.6575         79.5862 
       0.447964         77.4588         62.7059         77.2891 
       0.454126         74.1344         60.8542         75.1378 
       0.460267         72.9593         59.1312          73.763 
       0.466387         71.1158         57.5322         71.8303 
        0.47254         69.9617         56.0215         70.4312 
       0.478662         68.7857         54.5929         68.8515 
       0.484765         66.8496         53.2217         67.1494 
       0.490885          65.441         51.8786         66.1704 
       0.497035         64.4873         50.5477         64.9747 
       0.503198         62.7673          49.235         63.3082 
       0.509342         61.1794         47.9553         62.1841 
       0.515458          60.024         46.7173         61.3033 
       0.521598         59.0614         45.5185         59.5132 
       0.527764          57.911         44.3669           58.01 
       0.533884         56.8767         43.2805         56.9767 
           0.54         55.6748         42.2469         55.9361 
       0.546137         54.8789         41.2529         55.1107 
       0.552299          54.009         40.2908         53.7599 
       0.558452         52.4269         39.3604         52.7012 
       0.564573         51.5612         38.4601         52.0513 
       0.570708         50.8532         37.5789         51.0986 
       0.576825         49.6999         36.7196         50.1532 
       0.582926         48.7303         35.8833          49.284 
       0.589034         47.5156         35.0702         48.5938 
       0.595184         46.9147         34.2794         47.5453 
       0.601379         46.1689         33.5122         46.9232 
       0.607522         45.1367         32.7791         45.8513 
       0.613639           44.84          32.074         45.1547 
       0.619772          43.697           31.39         44.4177 
       0.625918          43.412         30.7257         43.8626 
       0.632068         42.7345         30.0804         42.9765 
       0.638161         41.9197         29.4589         42.3324 
         0.6443         41.1526         28.8491         41.5593 
       0.650464         40.4514         28.2524         40.9823 
       0.656582         40.1456          27.675         40.4187 
       0.662703         39.3363         27.1126         39.6596 
       0.668861         38.6949         26.5626          39.205 
       0.675024         38.0564         26.0284         38.4507 
       0.681124          37.397         25.5158         37.8764 
       0.687237         36.7405         25.0177         37.2764 
       0.693381         36.4471         24.5317         36.7038 
       0.699536         35.6046         24.0583         36.3465 
       0.705665         35.5887         23.5994         35.8761 
       0.711789         34.6948         23.1525         35.1406 
       0.717957         34.2876         22.7133         34.7771 
        0.72409         33.7991         22.2874         34.3638 
       0.730186         33.2866         21.8746         33.8176 
       0.736317          32.982         21.4699          33.325 
       0.742472         32.3889         21.0741         32.9749 
       0.748622         32.0917         20.6889         32.4265 
        0.75476         31.5626         20.3147         32.0303 
       0.760888         31.0923         19.9508          31.652 
       0.767043         30.7263         19.5946         31.3067 
       0.773185         30.2089         19.2481         30.8743 
       0.779291         30.0623         18.9121         30.5356 
       0.785407         29.7292         18.5837         30.0833 
       0.791564         29.1636          18.261         29.7138 
       0.797719         28.5687         17.9459         29.3749 
       0.803834         28.5194         17.6403         28.9422 
       0.809972         28.1872         17.3406           28.66 
       0.816124          27.557         17.0472         28.2732 
       0.822261         27.3817         16.7614         27.8834 
       0.828378         27.1243          16.483          27.529 
       0.834502         26.8118         16.2107         27.3543 
       0.840667         26.4815          15.943         26.9438 
       0.846816         26.0259         15.6821         26.6604 
       0.852925          25.794         15.4288         26.5142 
       0.859047         25.4879         15.1806         26.0677 
       0.865192         25.2255         14.9372         25.7655 
       0.871341         25.0573         14.6989         25.5526 
       0.877463         24.5716         14.4671         25.2442 
       0.883569            24.3         14.2408          25.007 
       0.889708         24.0001         14.0183         24.6769 
       0.895864         23.8022         13.7999         24.3831 
       0.902008         23.6112         13.5867         24.1711 
       0.908149          23.349         13.3782         23.9556 
       0.914301         23.2266         13.1737         23.7775 
       0.920448         22.7491         12.9736         23.4223 
       0.926574         22.5922         12.7785         23.1574 
       0.932687         22.3291         12.5878         22.8959 
       0.938823         22.0418         12.4003         22.6775 
       0.944975         21.8359         12.2163         22.4522 
       0.951105         21.6421         12.0366         22.1748 
       0.957225         21.3983         11.8609         22.0328 
       0.963368         21.2335         11.6882         21.7738 
       0.969511         21.0449         11.5189         21.5689 
       0.975621         20.8692         11.3538         21.3665 
       0.981748         20.5664         11.1917         21.2012 
       0.987916          20.428         11.0316         20.9402 
        0.99406         20.1893         10.8754         20.7588 
        1.00019         19.9214         10.7225         20.5704 
        1.00632         19.8451         10.5726         20.4025 
        1.01246         19.6704         10.4255         20.2708 
        1.01859         19.3656         10.2814         20.0462 
        1.02471         19.3029         10.1402         19.8215 
        1.03085         19.1129         10.0012         19.6576 
        1.03698         18.7938         9.86513         19.4854 
        1.04314         18.6879         9.73101         19.2732 
        1.04929         18.4731         9.59971         19.1508 
        1.05541         18.2775         9.47138         19.0295 
        1.06154         18.1675         9.34508         18.7868 
        1.06769         18.0479         9.22091         18.6086 
        1.07382         17.8421         9.09942         18.4922 
        1.07993         17.7369          8.9804         18.3223 
        1.08607         17.5085         8.86303         18.1663 
        1.09222         17.3965         8.74765         18.0385 
        1.09836         17.1796         8.63447         17.8544 
        1.10449         17.0876         8.52343         17.6916 
        1.11063          16.873         8.41424         17.5802 
        1.11677         16.8108           8.307         17.3972 
         1.1229         16.7117         8.20183         17.2824 
        1.12903         16.4841         8.09839         17.1672 
        1.13518         16.3079         7.99666         16.9892 
        1.14131         16.2419         7.89674         16.8596 
        1.14745         16.1062         7.79858         16.7249 
        1.15359         15.9994         7.70209         16.5901 
        1.15973         15.8384         7.60719          16.463 
        1.16584         15.6225         7.51432         16.3691 
        1.17197         15.6006         7.42287         16.2674 
        1.17811         15.4299         7.33268         16.0587 
        1.18424         15.2901         7.24425         15.9787 
        1.19038         15.2304         7.15703         15.8621 
        1.19652         15.0914         7.07129         15.7135 
        1.20267         14.9472         6.98695         15.6038 
        1.20881          14.881         6.90402         15.5281 
        1.21495         14.7662         6.82257         15.3993 
        1.22108         14.6086         6.74245         15.2841 
         1.2272         14.4754         6.66381         15.1512 
        1.23334          14.376         6.58625          15.077 
        1.23949         14.2435         6.50975         14.9436 
        1.24562         14.1882         6.43468         14.8224 
        1.25174         14.0985         6.36091         14.7385 
        1.25789         13.9822         6.28807         14.6222 
        1.26402         13.9219         6.21651         14.5013 
        1.27014         13.7755         6.14625          14.415 
        1.27628         13.6172         6.07686         14.3004 
        1.28244         13.5537         6.00842         14.2478 
        1.28858          13.517         5.94112         14.1175 
        1.29471         13.3698         5.87502         14.0186 
        1.30084         13.2481         5.80998         13.9762 
        1.30697         13.1813         5.74584         13.8461 
        1.31312          13.036         5.68257         13.7411 
        1.31925         12.9432         5.62046         13.6887 
        1.32537         12.9015         5.55934         13.6058 
        1.33151         12.7907         5.49892         13.4914 
        1.33765         12.7111         5.43943         13.3922 
        1.34378         12.6234         5.38094         13.3143 
        1.34992         12.4929         5.32328         13.2372 
        1.35606         12.4578         5.26633         13.1327 
         1.3622         12.3782         5.21033         13.0456 
        1.36833         12.2539         5.15527          13.005 
        1.37445         12.2048         5.10103         12.8915 
        1.38059         12.1277         5.04742         12.7873 
        1.38675         11.9989         4.99444         12.7441 
        1.39288          11.956         4.94244          12.649 
        1.39901         11.8474         4.89121         12.5755 
        1.40515         11.7953         4.84058         12.5022 
         1.4113         11.7054          4.7907         12.4287 
        1.41742         11.6209         4.74171         12.3565 
        1.42355         11.5497         4.69331         12.2615 
         1.4297         11.4846         4.64545            12.2 
        1.43585         11.4364         4.59828         12.1446 
        1.44198         11.3426         4.55194         12.0597 
        1.44809         11.2721         4.50633         11.9965 
        1.45423         11.1847         4.46118         11.9191 
        1.46036         11.1271         4.41673         11.8386 
        1.46649         11.0737         4.37287         11.7754 
        1.47263         10.9676         4.32958         11.7256 
        1.47877         10.9106         4.28689         11.6587 
        1.48491         10.8519         4.24471         11.5585 
        1.49104          10.792         4.20319         11.5113 
        1.49718         10.7194          4.1622         11.4543 
        1.50333         10.6578         4.12168         11.3849 
        1.50947          10.587         4.08179         11.3292 
         1.5156          10.518         4.04249          11.268 
        1.52172         10.4638         4.00371         11.1893 
        1.52787         10.3893         3.96536          11.122 
          1.534         10.3255         3.92756         11.0663 
        1.54013         10.2594         3.89029         10.9871 
        1.54627         10.1874         3.85345         10.9252 
        1.55241         10.1416         3.81707         10.8873 
        1.55855         10.0918         3.78122         10.8274 
        1.56467         10.0168         3.74592         10.7646 
         1.5708         9.99911         3.71098         10.7236 
        1.57695         9.90134         3.67643         10.6676 
        1.58308          9.8461         3.64241         10.6061 
        1.58922         9.80721         3.60879         10.5672 
        1.59535         9.75834         3.57561         10.5041 
         1.6015         9.67906          3.5428         10.4394 
        1.60764         9.61642         3.51042         10.3833 
        1.61376         9.59539         3.47854         10.3309 
        1.61989         9.51057         3.44702         10.2908 
        1.62604         9.48258         3.41583         10.2415 
        1.63218         9.42674         3.38504         10.1846 
        1.63831         9.38257          3.3547         10.1337 
        1.64444         9.30792         3.32472         10.0838 
        1.65059         9.24713         3.29504         10.0206 
        1.65673         9.22933         3.26575         9.98095 
        1.66285         9.13238          3.2369         9.94119 
        1.66898         9.10683          3.2084         9.87719 
        1.67512         9.06895         3.18017         9.83013 
        1.68127         9.00635         3.15227         9.77629 
         1.6874         8.96422         3.12476         9.72551 
        1.69353         8.90555         3.09759         9.69635 
        1.69967          8.8585         3.07069         9.64567 
        1.70581         8.81816         3.04412         9.59848 
        1.71193         8.75652         3.01796         9.55967 
        1.71806         8.73545         2.99205         9.50888 
        1.72421         8.66732          2.9664         9.47114 
        1.73035          8.6453         2.94108         9.42489 
        1.73649         8.59677         2.91606         9.36938 
        1.74262         8.54556         2.89135         9.33857 
        1.74876         8.51025         2.86691         9.29105 
        1.75489         8.46825         2.84281          9.2306 
        1.76101          8.3966         2.81899         9.18498 
        1.76715         8.38802         2.79541         9.16424 
        1.77329         8.32122         2.77207         9.12102 
        1.77943         8.27705         2.74899         9.06769 
        1.78557         8.25323         2.72621         9.03343 
        1.79171         8.21616         2.70368         8.98793 
        1.79785         8.15405          2.6814         8.93906 
        1.80399         8.11298         2.65937         8.90739 
        1.81012         8.08292         2.63763         8.87538 
        1.81625         8.02974         2.61613         8.84083 
        1.82239          7.9988         2.59485         8.80346 
        1.82853         7.94272         2.57381         8.75879 
        1.83466         7.91101         2.55302         8.72413 
        1.84078         7.86235         2.53249         8.69181 
        1.84692         7.85028         2.51215         8.63967 
        1.85306          7.7923         2.49201         8.60338 
         1.8592         7.75482         2.47212         8.57716 
        1.86533         7.72152         2.45246          8.5321 
        1.87147         7.68677         2.43299         8.48918 
