# k  (h/Mpc)    Pcb(k)  (Mpc/h)^3    Pcb_linear(k) (Mpc/h)^3    Pcb_NL(k) (Mpc/h)^3   ShotnoiseSubtracted = false
     0.00783031         5062.97         5120.92         5102.03 
       0.013688         6436.11         6412.05         6381.44 
       0.019231          6589.3         6580.24         6541.03 
      0.0249154            6086         6157.61         6124.93 
      0.0312784         5353.79         5377.99         5354.32 
      0.0375637         4594.34         4583.89         4564.82 
      0.0433917         3938.43         3966.75         3949.74 
      0.0492413         3500.52         3503.29         3488.75 
      0.0555754         3117.58         3158.64         3145.07 
      0.0619321         2942.34         2923.53         2909.79 
       0.067871         2718.93         2748.76         2734.45 
      0.0738098         2543.18         2574.58         2551.22 
      0.0800417         2323.29         2367.85          2346.3 
      0.0862327         2112.97         2137.29         2126.08 
      0.0921407         1906.12         1909.91         1902.48 
      0.0982031         1681.76         1691.51         1697.29 
       0.104506         1523.88         1500.23         1516.75 
       0.110769         1379.26         1355.74         1368.04 
       0.116806         1272.73          1257.7         1269.59 
       0.122832         1212.46         1190.73         1203.84 
       0.129052          1143.8         1140.01         1150.62 
       0.135211         1097.04         1094.01         1103.11 
       0.141259         1054.84         1042.63         1053.81 
       0.147318         998.192         980.595         997.632 
       0.153489         919.395         908.178         920.025 
       0.159709         854.009         831.951         851.724 
       0.165845         798.148         760.983         793.085 
       0.171974         734.184         700.194         732.975 
       0.178125         690.383         652.187          692.42 
       0.184229          657.69         617.085         655.976 
        0.19034         617.292         591.645         628.147 
       0.196428         607.066         571.814         602.064 
       0.202534         592.291         553.179         583.329 
       0.208729         565.511         532.189          559.69 
       0.214876         536.187         507.709         542.231 
       0.220989         517.215         480.091         517.866 
       0.227147         484.648         450.746         490.541 
        0.23329         459.987         422.298         468.264 
       0.239377         442.632         396.972         445.219 
       0.245482         412.321         375.628         420.944 
       0.251667         404.297         358.351         406.476 
       0.257832         390.375         344.794         390.977 
       0.263955         377.306         333.678         377.667 
       0.270079         365.022         323.477         366.198 
        0.27624         359.348         312.957         353.805 
       0.282372         345.553         301.516          343.56 
        0.28843         333.064         289.194         331.898 
       0.294538         318.053          276.14         321.123 
       0.300721         312.443         262.991         310.652 
        0.30691         296.952          250.62         299.944 
       0.313033         288.526         239.683         287.933 
       0.319153         276.249          230.26         279.153 
       0.325316         269.809          222.18         271.749 
        0.33145         260.871         215.209         262.027 
       0.337538         256.772         208.897         254.658 
       0.343633         248.511         202.758          249.96 
       0.349808         241.031         196.427         244.319 
       0.355968         236.435         189.854         239.061 
       0.362074         229.773         183.162          232.19 
       0.368217         223.176         176.408         224.137 
       0.374374         215.853         169.863         218.458 
       0.380519         211.294         163.749          212.04 
       0.386598         205.624         158.223         206.985 
       0.392688         202.318         153.246         201.866 
        0.39888         196.966         148.663         196.297 
       0.405048         192.435         144.461         192.826 
       0.411186         188.095         140.489         188.536 
       0.417313         183.877         136.597         183.135 
       0.423458         179.863         132.706         179.585 
       0.429607         175.377         128.798           175.8 
       0.435692         170.047         124.946         171.979 
       0.441815         168.534         121.155         169.581 
       0.447964         165.374         117.498         165.304 
       0.454126         158.199         114.028         160.655 
       0.460267         156.282           110.8         158.585 
       0.466387         153.846         107.803         154.875 
        0.47254         150.739         104.973         152.087 
       0.478662         149.003         102.296          149.07 
       0.484765          144.81         99.7264         145.318 
       0.490885         142.362         97.2098          143.45 
       0.497035         140.327          94.716         141.371 
       0.503198         136.512         92.2561          138.58 
       0.509342         134.029         89.8583         136.429 
       0.515458         132.076         87.5386         134.851 
       0.521598         130.164         85.2923          131.38 
       0.527764         128.081         83.1344         128.468 
       0.533884         125.891         81.0986         126.628 
           0.54         123.612         79.1619         124.631 
       0.546137         122.377         77.2993         123.111 
       0.552299         120.423         75.4967         120.369 
       0.558452         117.742         73.7532         118.281 
       0.564573         115.596         72.0663         117.062 
       0.570708         114.091         70.4151         115.212 
       0.576825         112.334         68.8049         113.151 
       0.582926         110.234         67.2378         111.391 
       0.589034         108.206         65.7143         110.236 
       0.595184         106.873         64.2325          108.33 
       0.601379         105.662          62.795         107.174 
       0.607522          103.03         61.4212         104.863 
       0.613639          102.77         60.1001         103.754 
       0.619772         100.406         58.8184         101.973 
       0.625918         99.3692         57.5735         101.059 
       0.632068         98.1806         56.3645         99.2744 
       0.638161         96.9312         55.1999         98.3626 
         0.6443         95.6256         54.0572         96.7097 
       0.650464         94.3012         52.9391         94.9297 
       0.656582         93.1002         51.8572         94.2717 
       0.662703         91.3377         50.8034         92.6526 
       0.668861         90.3403         49.7729         91.6908 
       0.675024         89.1904         48.7718         90.3136 
       0.681124          88.076         47.8113         89.1743 
       0.687237         86.4825          46.878         88.0217 
       0.693381         85.5864         45.9673         86.7984 
       0.699536         84.4405         45.0802         86.2692 
       0.705665         84.7479         44.2205         85.3776 
       0.711789         82.3545         43.3829         83.6255 
       0.717957         81.8324           42.56         83.0233 
        0.72409         80.6558         41.7619         82.4478 
       0.730186         79.2952         40.9884         81.3611 
       0.736317         79.0922         40.2301         80.1473 
       0.742472         78.0162         39.4884         79.3171 
       0.748622         77.2821         38.7668         78.3309 
        0.75476          76.379         38.0656         77.4448 
       0.760888         75.2579         37.3836         76.4776 
       0.767043         74.5074         36.7162          76.093 
       0.773185         73.6069          36.067         75.4145 
       0.779291         73.0773         35.4374         74.5445 
       0.785407          72.446          34.822          73.467 
       0.791564          71.374         34.2172         72.7308 
       0.797719         70.3427          33.627          72.248 
       0.803834         70.0587         33.0542         71.2359 
       0.809972         68.7945         32.4927         70.5775 
       0.816124         68.2247         31.9429         70.0602 
       0.822261         67.7288         31.4073         69.1274 
       0.828378         67.1352         30.8857         68.1977 
       0.834502         66.4205         30.3756         67.9864 
       0.840667         65.7755         29.8738         67.3683 
       0.846816         64.9183          29.385         66.6683 
       0.852925         64.3509         28.9103         66.0857 
       0.859047         63.4689         28.4453         65.2626 
       0.865192          63.124         27.9891         64.8017 
       0.871341          62.742         27.5428          64.156 
       0.877463          61.601         27.1082         63.6339 
       0.883569         61.1938         26.6843         63.2252 
       0.889708         60.8399         26.2673         62.5252 
       0.895864         60.2322         25.8582          61.985 
       0.902008         59.7077         25.4587         61.4019 
       0.908149         59.2292         25.0679         60.9777 
       0.914301         58.6847         24.6847          60.553 
       0.920448         58.1007         24.3099         59.9135 
       0.926574         57.5837         23.9442         59.2633 
       0.932687         57.1641         23.5869         58.9278 
       0.938823         56.2845         23.2356         58.2725 
       0.944975         56.1345         22.8907          57.773 
       0.951105         55.5396         22.5541         57.5259 
       0.957225         54.8541         22.2249         56.9966 
       0.963368         54.7536         21.9012         56.3656 
       0.969511         54.2985         21.5839         55.9407 
       0.975621         53.8398         21.2747         55.7895 
       0.981748         53.2296         20.9708         55.2285 
       0.987916         52.8585          20.671         54.8713 
        0.99406         52.5542         20.3782         54.4052 
        1.00019         51.8552         20.0916         53.9532 
        1.00632         51.6499         19.8109         53.5518 
        1.01246         51.1826         19.5352         53.1008 
        1.01859         50.5308         19.2652         52.7835 
        1.02471         50.5937         19.0007         52.4427 
        1.03085          50.026         18.7402         51.9752 
        1.03698         49.5038         18.4852         51.5605 
        1.04314         49.0381         18.2339         51.0846 
        1.04929         48.7949         17.9879         50.8814 
        1.05541          48.279         17.7474         50.6986 
        1.06154         48.1695         17.5107         50.1685 
        1.06769         47.6814         17.2781         49.8259 
        1.07382         47.4134         17.0504         49.5007 
        1.07993         47.1939         16.8274         49.0704 
        1.08607         46.6344         16.6075         48.7611 
        1.09222         46.4484         16.3913         48.4637 
        1.09836         46.0583         16.1792         48.1458 
        1.10449         45.7016         15.9711          47.738 
        1.11063         45.1546         15.7665         47.4094 
        1.11677         44.9268         15.5656         47.0864 
         1.1229         44.7653         15.3685         46.8194 
        1.12903         44.1027         15.1747         46.5125 
        1.13518         44.1174         14.9841         46.1517 
        1.14131          43.928         14.7968         45.9194 
        1.14745          43.323         14.6129          45.614 
        1.15359         43.2387         14.4321         45.3911 
        1.15973          42.737         14.2543         45.0826 
        1.16584         42.4327         14.0803         44.7209 
        1.17197         42.3104         13.9089         44.4615 
        1.17811         41.9479         13.7399         44.0765 
        1.18424         41.5351         13.5742         43.8323 
        1.19038         41.4777         13.4108         43.7327 
        1.19652         41.2349         13.2501         43.3188 
        1.20267         40.8976         13.0921         43.1566 
        1.20881         40.5655         12.9367         42.8477 
        1.21495         40.2601         12.7841         42.6978 
        1.22108         40.0223         12.6339         42.3344 
         1.2272         39.5729         12.4866         42.1615 
        1.23334         39.4719         12.3413         41.8731 
        1.23949         39.3415         12.1979         41.5378 
        1.24562          39.026         12.0572         41.3622 
        1.25174         38.8397          11.919         41.1499 
        1.25789         38.5687         11.7825         40.8629 
        1.26402         38.2986         11.6485         40.6056 
        1.27014         37.9311         11.5168          40.435 
        1.27628         37.7878         11.3868         40.1733 
        1.28244         37.4886         11.2585           40.03 
        1.28858         37.3628         11.1324         39.7515 
        1.29471         37.2067         11.0086         39.5551 
        1.30084         36.9367         10.8867         39.2652 
        1.30697         36.6168         10.7665         38.9985 
        1.31312         36.3315          10.648         38.8823 
        1.31925         36.2096         10.5316         38.6388 
        1.32537         36.0402          10.417         38.4483 
        1.33151         35.7522         10.3038         38.2662 
        1.33765         35.6877         10.1924         38.0604 
        1.34378         35.4673         10.0828         37.8419 
        1.34992         35.0058         9.97471         37.6685 
        1.35606          34.867         9.86801         37.5174 
         1.3622         34.6671         9.76306         37.3216 
        1.36833         34.4767          9.6599         37.1168 
        1.37445         34.4472         9.55827         36.8642 
        1.38059         34.2137         9.45781         36.7558 
        1.38675         33.8814         9.35854         36.5559 
        1.39288         33.7937          9.2611         36.3841 
        1.39901         33.4783          9.1651         36.2004 
        1.40515         33.3454         9.07024         35.9705 
         1.4113         33.2211         8.97677         35.7694 
        1.41742         32.8721         8.88497         35.6378 
        1.42355         32.8107         8.79429         35.4222 
         1.4297         32.5593         8.70461         35.2092 
        1.43585         32.5083         8.61622         35.1071 
        1.44198         32.1958         8.52939         34.9285 
        1.44809         32.0639         8.44393         34.7313 
        1.45423         31.9369         8.35932         34.5109 
        1.46036          31.789         8.27604         34.3645 
        1.46649         31.5454         8.19386         34.2414 
        1.47263         31.3822         8.11273         34.1013 
        1.47877         31.2624         8.03274         33.9602 
        1.48491         31.0723         7.95371         33.7427 
        1.49104         30.9315          7.8759         33.5871 
        1.49718         30.6383         7.79909         33.4259 
        1.50333         30.5777         7.72317         33.3045 
        1.50947         30.4218         7.64843         33.1785 
         1.5156         30.2114         7.57479         33.0066 
        1.52172         29.9865         7.50212         32.8163 
        1.52787         30.0244         7.43026         32.6624 
          1.534         29.7298         7.35943         32.5392 
        1.54013          29.534          7.2896         32.3696 
        1.54627         29.4809         7.22055         32.1946 
        1.55241         29.2769         7.15239         32.0641 
        1.55855         29.1137         7.08521          31.951 
        1.56467          28.923         7.01908          31.814 
         1.5708         28.8674         6.95361         31.6653 
        1.57695         28.5709         6.88887         31.4942 
        1.58308         28.6269         6.82511         31.3431 
        1.58922         28.4273         6.76212         31.2474 
        1.59535         28.2217         6.69995           31.12 
         1.6015         28.0795         6.63847          30.954 
        1.60764         28.0044          6.5778         30.7959 
        1.61376         27.7959         6.51805         30.6702 
        1.61989         27.5742           6.459          30.558 
        1.62604         27.5557         6.40055         30.4757 
        1.63218         27.3563         6.34286         30.3684 
        1.63831         27.2637         6.28601         30.2206 
        1.64444         27.1264         6.22984          30.085 
        1.65059         26.9127         6.17422         29.9405 
        1.65673         26.8238         6.11934          29.803 
        1.66285           26.69         6.06528         29.6938 
        1.66898         26.5654         6.01186         29.5948 
        1.67512         26.4804         5.95898         29.4493 
        1.68127         26.2517         5.90669         29.3308 
         1.6874          26.165         5.85515         29.1977 
        1.69353          26.064         5.80425         29.0004 
        1.69967         25.8794         5.75383         28.9158 
        1.70581         25.7771         5.70404         28.8606 
        1.71193         25.6538         5.65503           28.75 
        1.71806         25.5303         5.60649         28.5905 
        1.72421          25.373         5.55842         28.4677 
        1.73035         25.2679         5.51097          28.383 
        1.73649         25.1651         5.46409         28.2801 
        1.74262         25.0155         5.41779         28.1078 
        1.74876         24.9677           5.372         27.9864 
        1.75489         24.7863         5.32683         27.9164 
        1.76101         24.6831          5.2822           27.83 
        1.76715         24.5687         5.23802         27.6869 
        1.77329         24.4889         5.19429         27.5536 
        1.77943         24.3466         5.15104         27.4564 
        1.78557         24.2252         5.10834         27.3681 
        1.79171         24.1252         5.06612         27.2577 
        1.79785         23.9787         5.02438         27.1641 
        1.80399         23.8634         4.98311         27.1023 
        1.81012         23.8257         4.94236         26.9379 
        1.81625         23.6948         4.90208         26.7959 
        1.82239         23.6411          4.8622         26.7369 
        1.82853         23.4108         4.82278         26.6432 
        1.83466         23.3008         4.78383          26.544 
        1.84078         23.1449         4.74535         26.4538 
        1.84692         23.1298         4.70724         26.3503 
        1.85306         22.9837          4.6695         26.2502 
         1.8592         22.8724         4.63223         26.1534 
        1.86533         22.7589         4.59539         26.0478 
        1.87147         22.6619         4.55891          25.944 
