# k  (h/Mpc)    Pcb(k)  (Mpc/h)^3    Pcb_linear(k) (Mpc/h)^3    Pcb_NL(k) (Mpc/h)^3   ShotnoiseSubtracted = false
     0.00783031         19569.9         19871.7         19780.6 
       0.013688         25141.9         24870.6         24688.1 
       0.019231         25545.3         25517.8         25261.2 
      0.0249154           23257         23876.1         23585.4 
      0.0312784         20512.6         20851.4         20533.1 
      0.0375637         17704.8         17771.6           17485 
      0.0433917         15004.5         15378.5         15078.5 
      0.0492413         13427.7         13581.4         13303.7 
      0.0555754         11767.8         12245.1         12000.9 
      0.0619321         11300.2         11333.5           11096 
       0.067871           10254         10655.8         10431.3 
      0.0738098         9595.84          9980.5         9638.33 
      0.0800417          8696.3         9179.05         8865.12 
      0.0862327         7968.78         8285.23         8102.76 
      0.0921407         7299.06         7403.75         7265.02 
      0.0982031         6467.11          6557.1         6576.39 
       0.104506         5986.96         5815.58         5968.02 
       0.110769         5452.22         5255.46         5375.99 
       0.116806          5092.1         4875.39         4993.84 
       0.122832         4826.15         4615.78         4744.52 
       0.129052          4494.9         4419.18          4528.5 
       0.135211         4304.28         4240.83         4320.97 
       0.141259         4170.94         4041.66         4159.17 
       0.147318         3968.14         3801.18         3961.08 
       0.153489         3650.06         3520.46         3644.11 
       0.159709         3449.62         3224.97         3437.16 
       0.165845          3310.1         2949.87          3280.9 
       0.171974         3108.12         2714.23         3078.73 
       0.178125         2943.57         2528.13         2965.53 
       0.184229         2793.96         2392.06         2801.91 
        0.19034          2667.6         2293.44         2688.54 
       0.196428         2614.68         2216.57          2580.9 
       0.202534         2516.54         2144.33         2505.44 
       0.208729         2419.52         2062.96         2386.93 
       0.214876         2340.73         1968.07         2337.13 
       0.220989         2261.11         1861.01         2271.82 
       0.227147         2172.14         1747.26         2201.56 
        0.23329         2085.64         1636.98         2132.98 
       0.239377         2055.73         1538.81         2046.05 
       0.245482         1934.28         1456.07         1954.31 
       0.251667         1922.65          1389.1         1902.04 
       0.257832         1846.96         1336.55         1836.84 
       0.263955         1786.72         1293.46         1784.86 
       0.270079         1730.16         1253.91         1736.96 
        0.27624         1708.49         1213.13         1688.85 
       0.282372         1640.99         1168.79         1665.75 
        0.28843         1640.79         1121.02         1636.21 
       0.294538         1565.15         1070.42         1590.65 
       0.300721         1550.44         1019.45         1544.23 
        0.30691         1498.09         971.492         1523.89 
       0.313033          1465.9         929.098         1474.65 
       0.319153         1449.95          892.57         1430.48 
       0.325316         1401.44         861.247         1406.79 
        0.33145         1373.99         834.225         1357.57 
       0.337538         1345.26         809.758         1337.72 
       0.343633          1322.7         785.962         1322.45 
       0.349808          1282.4         761.419         1304.46 
       0.355968         1270.88          735.94         1283.13 
       0.362074         1261.51             710         1261.79 
       0.368217         1220.05         683.818          1234.1 
       0.374374         1181.67         658.449         1210.57 
       0.380519         1184.62         634.747         1188.06 
       0.386598          1149.1         613.328         1170.25 
       0.392688         1143.22         594.036         1147.09 
        0.39888         1112.09         576.271         1127.08 
       0.405048          1103.2         559.983          1107.3 
       0.411186         1086.44         544.585         1091.11 
       0.417313          1063.5         529.497         1079.25 
       0.423458         1045.56         514.413         1059.33 
       0.429607         1034.36         499.267         1044.26 
       0.435692         1015.32         484.336         1022.48 
       0.441815          1005.5         469.638         1020.12 
       0.447964         985.617         455.463         1008.58 
       0.454126         980.562         442.013          979.52 
       0.460267         956.075         429.498         977.362 
       0.466387         941.905         417.883         960.148 
        0.47254         944.244         406.911         946.487 
       0.478662         928.042         396.534         934.078 
       0.484765         905.414         386.574         925.256 
       0.490885         900.381         376.819         907.701 
       0.497035         880.556         367.152         900.684 
       0.503198         876.096         357.617         891.408 
       0.509342         864.981         348.322         875.443 
       0.515458         861.168          339.33         869.719 
       0.521598         841.302         330.622         862.029 
       0.527764         827.179         322.257         853.874 
       0.533884         823.888         314.366         844.327 
           0.54         819.297         306.859         834.931 
       0.546137         806.706         299.639         825.838 
       0.552299         799.327         292.651         814.622 
       0.558452         790.368         285.893         808.657 
       0.564573         781.457         279.354         801.115 
       0.570708         773.385         272.953         790.393 
       0.576825         754.956         266.711         781.311 
       0.582926         758.189         260.637         776.412 
       0.589034         748.512         254.731         764.984 
       0.595184         742.387         248.987         758.034 
       0.601379         732.741         243.415         751.648 
       0.607522         721.768          238.09         740.174 
       0.613639         721.201         232.968         737.741 
       0.619772         709.075             228         735.356 
       0.625918          702.64         223.175         726.117 
       0.632068         694.671         218.488         722.684 
       0.638161         690.762         213.974         710.554 
         0.6443         680.238         209.544         704.942 
       0.650464         678.592          205.21         697.101 
       0.656582         670.718         201.016         692.973 
       0.662703         668.703         196.931          687.52 
       0.668861         657.853         192.937         684.765 
       0.675024          651.42         189.056         680.237 
       0.681124         647.675         185.333         670.374 
       0.687237         643.117         181.715         664.364 
       0.693381         634.965         178.185         658.136 
       0.699536          623.22         174.746         653.781 
       0.705665         623.957         171.414         646.091 
       0.711789         619.564         168.167         640.798 
       0.717957         613.775         164.977         640.297 
        0.72409         610.378         161.883         633.613 
       0.730186         601.519         158.885         626.808 
       0.736317         599.297         155.946         622.932 
       0.742472         593.674         153.071         619.376 
       0.748622         587.959         150.273         612.809 
        0.75476         578.626         147.555         612.898 
       0.760888          575.09         144.912         606.333 
       0.767043         572.896         142.325          597.99 
       0.773185         568.168         139.808         594.594 
       0.779291         563.003         137.367         589.871 
       0.785407         557.098         134.982          586.35 
       0.791564         552.207         132.638         585.025 
       0.797719         550.674          130.35         579.377 
       0.803834         543.073         128.129          575.23 
       0.809972         540.747         125.953         571.704 
       0.816124         539.146         123.821         565.261 
       0.822261         530.721         121.745          562.32 
       0.828378         528.528         119.723         558.404 
       0.834502         522.625         117.746         556.623 
       0.840667          518.14         115.801         552.509 
       0.846816          515.03         113.906         547.961 
       0.852925         511.922         112.066         544.665 
       0.859047          510.14         110.264         539.016 
       0.865192         502.481         108.495         536.069 
       0.871341         498.786         106.765         532.574 
       0.877463         498.017         105.081         529.667 
       0.883569          492.55         103.437         526.944 
       0.889708          490.44         101.821         521.734 
       0.895864          488.59         100.235         518.921 
       0.902008         484.084         98.6865         515.419 
       0.908149         476.295         97.1716         510.194 
       0.914301         475.393         95.6862         506.213 
       0.920448         472.843         94.2334         505.579 
       0.926574         465.524          92.816         502.235 
       0.932687         463.805         91.4309         497.334 
       0.938823         459.468         90.0692         496.184 
       0.944975         458.549         88.7323          492.92 
       0.951105         454.353         87.4275         489.023 
       0.957225         450.568         86.1513          486.41 
       0.963368         445.658         84.8964         483.166 
       0.969511         444.542         83.6667         480.254 
       0.975621         441.505         82.4681         477.022 
       0.981748         437.433           81.29         474.333 
       0.987916         435.024         80.1277         472.042 
        0.99406         429.088         78.9927         468.821 
        1.00019         427.288          77.882         464.754 
        1.00632         425.078         76.7939         461.778 
        1.01246         421.413          75.725         459.288 
        1.01859         419.901         74.6784         456.125 
        1.02471          415.51          73.653         453.557 
        1.03085         413.116         72.6434         452.241 
        1.03698         410.489         71.6549         450.307 
        1.04314         407.226         70.6808         446.783 
        1.04929          403.39         69.7271         442.768 
        1.05541         403.805         68.7949         439.973 
        1.06154         397.825         67.8776         437.799 
        1.06769         395.839         66.9757         434.574 
        1.07382         392.318         66.0932         431.947 
        1.07993         390.119         65.2287         429.794 
        1.08607         389.152         64.3762         426.974 
        1.09222         384.016         63.5381          424.45 
        1.09836         381.051         62.7161          422.85 
        1.10449         379.461         61.9096         420.963 
        1.11063         373.666         61.1164         416.978 
        1.11677         374.879         60.3375         415.285 
         1.1229         371.745         59.5736         412.429 
        1.12903         369.166         58.8223         410.069 
        1.13518         365.006         58.0834         406.806 
        1.14131         363.398         57.3576         405.737 
        1.14745         360.073         56.6446         402.042 
        1.15359         358.555         55.9437         401.405 
        1.15973         356.203         55.2544         398.503 
        1.16584         353.292         54.5799         396.965 
        1.17197         351.747         53.9157         394.686 
        1.17811         348.673         53.2606         391.667 
        1.18424         345.497         52.6183         389.714 
        1.19038          343.83         51.9847         388.206 
        1.19652         341.738         51.3619         384.888 
        1.20267         339.994         50.7494          383.29 
        1.20881         337.089          50.147         381.264 
        1.21495         334.811         49.5554         378.783 
        1.22108         332.345         48.9734         376.243 
         1.2272         330.455         48.4023         375.265 
        1.23334         328.494         47.8389         372.454 
        1.23949         324.858         47.2832         370.271 
        1.24562         323.097          46.738         368.244 
        1.25174         321.807         46.2021         366.391 
        1.25789         318.117         45.6731         364.262 
        1.26402         316.647         45.1533         362.913 
        1.27014         314.016          44.643         360.147 
        1.27628         311.351          44.139         359.166 
        1.28244         311.619         43.6418         357.469 
        1.28858          308.15         43.1531         355.234 
        1.29471         307.144         42.6729         352.835 
        1.30084         304.083         42.2005         350.397 
        1.30697         303.193         41.7346         349.204 
        1.31312         299.667         41.2751         347.555 
        1.31925         297.836         40.8239         345.314 
        1.32537         296.805           40.38         342.988 
        1.33151         294.078         39.9411         341.762 
        1.33765         291.479          39.509         340.253 
        1.34378          290.68         39.0842         337.572 
        1.34992         288.588         38.6653         335.915 
        1.35606         286.369         38.2517         333.901 
         1.3622         284.341         37.8449         332.871 
        1.36833          283.15          37.445         331.671 
        1.37445         280.678         37.0511         328.836 
        1.38059         278.938         36.6616         327.798 
        1.38675         276.832         36.2769         326.426 
        1.39288         275.351         35.8992         324.335 
        1.39901         273.424          35.527         322.146 
        1.40515         272.124         35.1593         320.125 
         1.4113          269.72          34.797          318.33 
        1.41742         267.788         34.4412         316.906 
        1.42355         266.323         34.0896         315.489 
         1.4297         264.444          33.742         313.124 
        1.43585         263.005         33.3994         312.685 
        1.44198         261.733         33.0628         310.561 
        1.44809         258.521         32.7315          308.95 
        1.45423         257.187         32.4036          306.75 
        1.46036         255.851         32.0807         305.517 
        1.46649          254.54         31.7621         304.125 
        1.47263         252.856         31.4477         301.994 
        1.47877         250.744         31.1376         300.298 
        1.48491         248.365         30.8312         298.543 
        1.49104         247.335         30.5297         297.196 
        1.49718         245.537         30.2319         296.865 
        1.50333         244.491         29.9376         294.501 
        1.50947         242.627         29.6479         292.671 
         1.5156         240.475         29.3624         291.799 
        1.52172         239.818         29.0807         290.366 
        1.52787          237.65         28.8022         288.759 
          1.534         236.852         28.5276         287.106 
        1.54013         234.466         28.2569         285.816 
        1.54627         233.423         27.9893         284.684 
        1.55241         231.815         27.7251         283.395 
        1.55855         229.242         27.4647         281.945 
        1.56467         229.346         27.2083         279.965 
         1.5708         227.188         26.9545         278.385 
        1.57695         225.321         26.7036         277.077 
        1.58308         224.183         26.4564         275.508 
        1.58922         222.093         26.2123         274.243 
        1.59535         221.048         25.9712         273.159 
         1.6015         219.331         25.7329         272.279 
        1.60764         218.226         25.4978         270.711 
        1.61376         216.911         25.2662         268.666 
        1.61989         215.402         25.0372         267.558 
        1.62604         213.744         24.8107         266.209 
        1.63218         212.711          24.587         264.868 
        1.63831         211.218         24.3667         263.663 
        1.64444         209.721         24.1489         262.242 
        1.65059         208.825         23.9333         261.253 
        1.65673          207.04         23.7206         260.101 
        1.66285         205.597         23.5111         258.545 
        1.66898         204.456          23.304         256.949 
        1.67512         203.375          23.099         255.889 
        1.68127         201.307         22.8963         254.628 
         1.6874         200.512         22.6965         253.373 
        1.69353         199.131         22.4992         252.583 
        1.69967         197.731         22.3038         251.233 
        1.70581          196.58         22.1108         249.862 
        1.71193         195.102         21.9208         248.661 
        1.71806         194.218         21.7326         247.247 
        1.72421         192.625         21.5463         246.016 
        1.73035         191.952         21.3624          244.86 
        1.73649         190.645         21.1806         243.623 
        1.74262         188.886         21.0012         242.396 
        1.74876         187.667         20.8237         241.276 
        1.75489         186.898         20.6486         240.356 
        1.76101         185.363         20.4756         239.458 
        1.76715         184.296         20.3043         238.149 
        1.77329          183.26         20.1348         237.135 
        1.77943         181.941         19.9671          236.11 
        1.78557         180.503         19.8016         234.603 
        1.79171         179.876          19.638         233.455 
        1.79785         178.253         19.4762         232.475 
        1.80399          177.29         19.3162         231.231 
        1.81012         176.133         19.1582          230.46 
        1.81625         175.081         19.0021         229.529 
        1.82239         173.893         18.8475         228.194 
        1.82853         172.978         18.6947          227.15 
        1.83466         172.055         18.5437         226.061 
        1.84078         170.813         18.3946          224.93 
        1.84692          169.76         18.2468         224.089 
        1.85306         168.528         18.1005         222.983 
         1.8592          167.62         17.9561         221.778 
        1.86533         166.705         17.8133         220.901 
        1.87147         165.711         17.6719         219.875 
