# k  (h/Mpc)    P(k)  (Mpc/h)^3    P_linear(k)  (Mpc/h)^3     P_NL(k)  ShotnoiseSubtracted = false
     0.00783031         16577.6         16822.4           16749 
       0.013688         21264.1         21055.4         20911.8 
       0.019231         21632.3         21603.9         21404.1 
      0.0249154         19740.4         20214.3         19994.9 
      0.0312784         17406.2         17653.7         17420.8 
      0.0375637         15009.5         15046.4         14837.7 
      0.0433917         12743.6         13020.3         12803.4 
      0.0492413           11392         11498.8         11298.7 
      0.0555754         10010.2         10367.4         10190.9 
      0.0619321          9589.2         9595.61         9423.24 
       0.067871         8725.89         9021.88         8858.32 
      0.0738098          8164.3         8450.12          8199.7 
      0.0800417         7408.02         7771.58         7541.02 
      0.0862327         6780.32         7014.82         6881.92 
      0.0921407         6194.87          6268.5         6167.32 
      0.0982031         5481.77         5551.68         5569.12 
       0.104506         5059.85         4923.85         5040.58 
       0.110769         4602.12         4449.63         4539.22 
       0.116806         4287.22         4127.83         4215.77 
       0.122832          4067.6         3908.04         4004.57 
       0.129052         3793.71         3741.58         3822.35 
       0.135211         3636.31         3590.58         3650.89 
       0.141259            3519         3421.94         3508.72 
       0.147318         3344.15         3218.34         3340.09 
       0.153489         3075.06         2980.67         3071.85 
       0.159709         2901.11         2730.48         2889.14 
       0.165845         2771.05         2497.56         2748.87 
       0.171974         2595.29         2298.05         2571.86 
       0.178125         2454.29         2140.49         2471.67 
       0.184229         2333.79         2025.28         2335.97 
        0.19034          2214.6         1941.79         2240.34 
       0.196428         2175.74          1876.7         2147.54 
       0.202534         2099.96         1815.54         2084.29 
       0.208729         2015.13         1746.65         1986.09 
       0.214876         1941.47          1666.3         1944.62 
       0.220989         1875.96         1575.66         1885.16 
       0.227147         1796.15         1479.35         1820.01 
        0.23329         1722.11         1385.98         1761.99 
       0.239377         1692.72         1302.86         1687.81 
       0.245482         1587.36         1232.81         1608.96 
       0.251667         1577.11         1176.11         1565.59 
       0.257832         1514.46         1131.61         1509.94 
       0.263955            1466         1095.13         1464.89 
       0.270079         1417.86         1061.65         1425.11 
        0.27624         1402.48         1027.13         1384.63 
       0.282372         1345.04         989.576         1360.62 
        0.28843         1339.17         949.136          1332.6 
       0.294538         1274.18         906.291         1296.13 
       0.300721         1265.07         863.136         1257.69 
        0.30691         1216.86         822.534         1238.43 
       0.313033         1192.02         786.641         1196.93 
       0.319153         1173.63         755.713         1161.44 
       0.325316         1134.97         729.189         1140.18 
        0.33145         1110.94         706.314          1099.3 
       0.337538         1089.76         685.599          1081.2 
       0.343633         1067.32         665.449         1069.62 
       0.349808          1032.4         644.674         1053.26 
       0.355968         1024.68         623.099         1035.65 
       0.362074         1015.04         601.135         1016.78 
       0.368217         982.788         578.969         991.663 
       0.374374         947.145         557.488         972.588 
       0.380519         948.881         537.422          952.16 
       0.386598          921.59         519.287         939.527 
       0.392688         918.027         502.953         916.756 
        0.39888          891.41          487.91         902.069 
       0.405048         881.158         474.121         887.129 
       0.411186         868.624         461.085         870.724 
       0.417313         850.371         448.309         859.451 
       0.423458         835.403         435.537         845.459 
       0.429607          825.02         422.716         831.235 
       0.435692         808.265         410.072         814.279 
       0.441815         801.014         397.629         810.811 
       0.447964         784.122         385.627         799.574 
       0.454126          777.89          374.24         776.949 
       0.460267         758.428         363.642         775.006 
       0.466387         749.139          353.81         760.854 
        0.47254         745.239         344.519         750.239 
       0.478662         736.642         335.734         738.668 
       0.484765         715.556           327.3          730.05 
       0.490885         711.313         319.044         717.015 
       0.497035         695.912         310.856         710.544 
       0.503198         691.848         302.784         702.423 
       0.509342         684.302         294.914          690.79 
       0.515458         680.326         287.301         686.252 
       0.521598          663.22         279.928         678.769 
       0.527764         651.533         272.845         671.684 
       0.533884          649.39         266.165         663.459 
           0.54         643.211         259.808         654.921 
       0.546137          636.86         253.696         647.075 
       0.552299         628.369         247.779         638.206 
       0.558452         623.121         242.057         633.304 
       0.564573         615.147          236.52         627.966 
       0.570708         608.462         231.102         620.714 
       0.576825         592.138         225.816         611.698 
       0.582926          594.62         220.674         607.069 
       0.589034         587.997         215.674         597.719 
       0.595184         582.967         210.809         592.197 
       0.601379         574.193         206.092         586.661 
       0.607522         566.299         201.584         578.267 
       0.613639         566.105         197.248         576.613 
       0.619772         554.423         193.041         575.016 
       0.625918         550.842         188.956         566.262 
       0.632068         543.428         184.987           562.9 
       0.638161         541.149         181.165         554.388 
         0.6443         531.788         177.415         550.353 
       0.650464         529.693         173.745         542.073 
       0.656582         524.811         170.195         539.034 
       0.662703         522.897         166.736         535.607 
       0.668861         514.052         163.354         532.754 
       0.675024         509.644         160.068          528.62 
       0.681124         505.983         156.916         520.156 
       0.687237         501.801         153.853         515.538 
       0.693381         494.948         150.864         511.142 
       0.699536         486.912         147.953         507.736 
       0.705665          486.64         145.131          501.42 
       0.711789          483.73         142.382         498.006 
       0.717957         479.056         139.681         497.073 
        0.72409         476.549         137.062         491.492 
       0.730186          469.13         134.523         486.558 
       0.736317         466.502         132.035         482.915 
       0.742472         463.409           129.6         479.066 
       0.748622         458.468         127.232         474.578 
        0.75476         451.486         124.931          475.44 
       0.760888         447.367         122.692         469.101 
       0.767043         447.621         120.502         463.941 
       0.773185         443.081         118.371         461.017 
       0.779291          438.11         116.305         457.072 
       0.785407         434.898         114.285         454.661 
       0.791564         429.971           112.3         452.239 
       0.797719         427.918         110.363         447.544 
       0.803834         422.763         108.483         445.432 
       0.809972         421.819          106.64         442.428 
       0.816124         420.352         104.836         436.548 
       0.822261         414.138         103.078         434.827 
       0.828378         412.237         101.366         431.602 
       0.834502         407.163         99.6921         430.076 
       0.840667         404.194         98.0454         426.088 
       0.846816         402.182          96.441         423.051 
       0.852925         399.308         94.8832         420.591 
       0.859047         397.378         93.3571          416.86 
       0.865192         392.127         91.8599          413.72 
       0.871341         388.851         90.3949         411.612 
       0.877463         388.553         88.9688         408.958 
       0.883569         384.519         87.5774         407.186 
       0.889708         381.861         86.2088           403.1 
       0.895864         380.259         84.8661         400.889 
       0.902008         376.639          83.555         398.016 
       0.908149         371.986         82.2724         394.456 
       0.914301         369.979         81.0148         391.379 
       0.920448         367.897         79.7847         389.946 
       0.926574         362.362         78.5846         387.018 
       0.932687         362.059         77.4119         384.074 
       0.938823         358.094          76.259         383.541 
       0.944975         358.281         75.1271         380.099 
       0.951105         353.834         74.0223         377.254 
       0.957225         351.548         72.9418          375.32 
       0.963368         347.436         71.8793         373.116 
       0.969511         346.296         70.8382         370.741 
       0.975621         344.145         69.8233         368.091 
       0.981748         341.827         68.8259         366.042 
       0.987916          339.93         67.8418         364.331 
        0.99406         334.588         66.8808          361.88 
        1.00019          333.06         65.9405         358.497 
        1.00632          331.64         65.0191         356.336 
        1.01246         328.669         64.1142         353.809 
        1.01859         328.667          63.228         351.549 
        1.02471         323.817         62.3598          350.03 
        1.03085         322.182          61.505         348.731 
        1.03698         320.828         60.6681          347.25 
        1.04314         317.914         59.8433         344.538 
        1.04929         314.921         59.0359         341.513 
        1.05541         315.464         58.2466         339.461 
        1.06154         310.023           57.47         337.871 
        1.06769         309.046         56.7063         335.528 
        1.07382         306.591         55.9592         333.595 
        1.07993         304.787         55.2272         332.049 
        1.08607         303.822         54.5054         329.424 
        1.09222         300.383         53.7959         327.641 
        1.09836         298.336         53.0999          326.51 
        1.10449         296.032          52.417         324.537 
        1.11063         292.608         51.7455         322.047 
        1.11677         292.805          51.086         320.227 
         1.1229          290.43         50.4392         318.518 
        1.12903         288.482         49.8031         316.957 
        1.13518         285.668         49.1775         314.608 
        1.14131         284.196          48.563          313.11 
        1.14745         282.483         47.9594         310.834 
        1.15359         280.647         47.3659         309.777 
        1.15973          278.53         46.7823         307.869 
        1.16584         276.436         46.2112         306.429 
        1.17197         276.205         45.6488         304.937 
        1.17811         272.748         45.0942         302.915 
        1.18424         270.857         44.5503         301.303 
        1.19038         269.826          44.014         300.252 
        1.19652         267.471         43.4867         297.917 
        1.20267         266.576          42.968         296.245 
        1.20881         264.492          42.458         294.857 
        1.21495         262.465         41.9571         292.851 
        1.22108         260.855         41.4644         290.922 
         1.2272         259.284         40.9808         289.442 
        1.23334         257.705         40.5038         287.861 
        1.23949         255.346         40.0333         286.614 
        1.24562         254.417         39.5717         284.827 
        1.25174         252.755          39.118         283.437 
        1.25789         250.517         38.6701         281.718 
        1.26402         248.473           38.23          280.88 
        1.27014         246.937         37.7979         278.765 
        1.27628         245.335         37.3712         278.089 
        1.28244         244.985         36.9503         276.818 
        1.28858         242.534         36.5364         274.951 
        1.29471         241.135         36.1299         272.594 
        1.30084         239.202         35.7299         271.443 
        1.30697         237.915         35.3355         270.425 
        1.31312         235.393         34.9464         268.641 
        1.31925          234.27         34.5644         267.276 
        1.32537         233.517         34.1886         265.601 
        1.33151         231.289          33.817         264.442 
        1.33765         229.465         33.4511         263.275 
        1.34378         228.749         33.0915         261.795 
        1.34992         227.282         32.7368         260.139 
        1.35606         226.439         32.3866         258.514 
         1.3622         224.062         32.0422         257.707 
        1.36833         222.491         31.7036         256.703 
        1.37445         221.311         31.3701         254.235 
        1.38059         219.405         31.0403         253.688 
        1.38675         218.464         30.7146         252.742 
        1.39288         217.138         30.3948         250.532 
        1.39901         216.059         30.0797         249.379 
        1.40515         214.405         29.7684         248.031 
         1.4113         213.044         29.4616         246.553 
        1.41742         211.351         29.1603         245.543 
        1.42355         210.588         28.8627          244.12 
         1.4297         208.568         28.5684          242.75 
        1.43585         207.418         28.2783          242.19 
        1.44198         206.426         27.9933         240.659 
        1.44809         204.824         27.7128         239.575 
        1.45423          203.78         27.4351         237.652 
        1.46036         202.392         27.1618         236.753 
        1.46649         200.894         26.8921         235.936 
        1.47263         199.899         26.6258         234.419 
        1.47877         198.306         26.3633         232.944 
        1.48491         196.468         26.1039         231.576 
        1.49104         195.851         25.8486         230.788 
        1.49718         194.197         25.5965         230.006 
        1.50333         193.421         25.3473          228.66 
        1.50947         192.013          25.102         227.579 
         1.5156         190.345         24.8603         226.407 
        1.52172         189.673         24.6218         224.803 
        1.52787         187.903          24.386         224.011 
          1.534         187.462         24.1535         222.904 
        1.54013         185.766         23.9243         221.771 
        1.54627         184.722         23.6977         220.954 
        1.55241         183.477          23.474         219.903 
        1.55855         182.072         23.2535         218.569 
        1.56467         181.163         23.0365          217.35 
         1.5708         180.194         22.8216          216.29 
        1.57695          179.07         22.6091         215.244 
        1.58308         177.849         22.3999         214.137 
        1.58922         176.333         22.1932         213.044 
        1.59535         175.094         21.9891         212.203 
         1.6015         174.218         21.7873         211.288 
        1.60764         173.188         21.5882         210.106 
        1.61376         172.257         21.3921         208.958 
        1.61989         171.167         21.1983         207.967 
        1.62604         169.972         21.0065         206.837 
        1.63218         168.909         20.8171         205.859 
        1.63831         167.553         20.6306          205.03 
        1.64444         166.815         20.4462         204.007 
        1.65059         165.838         20.2637          203.15 
        1.65673         164.601         20.0836         202.093 
        1.66285         163.362         19.9061         200.948 
        1.66898         162.523         19.7308         199.995 
        1.67512         161.902         19.5573          199.13 
        1.68127         160.125         19.3856          198.24 
         1.6874         159.582         19.2165         197.322 
        1.69353         158.311         19.0494         196.393 
        1.69967         157.061          18.884          195.39 
        1.70581         156.507         18.7205         194.562 
        1.71193         155.237         18.5597         193.679 
        1.71806         154.559         18.4004         192.356 
        1.72421         153.416         18.2426         191.543 
        1.73035         152.641         18.0869         190.799 
        1.73649         151.748          17.933          189.79 
        1.74262         150.722         17.7811          188.92 
        1.74876         149.443         17.6308         188.068 
        1.75489          148.85         17.4826         187.229 
        1.76101         147.466         17.3361         186.454 
        1.76715         147.055         17.1911         185.661 
        1.77329         145.936         17.0475         184.714 
        1.77943         145.267         16.9056         183.722 
        1.78557         144.306         16.7655         182.843 
        1.79171         143.511         16.6269         182.037 
        1.79785         142.386         16.4899         181.199 
        1.80399         141.592         16.3545         180.327 
        1.81012         140.671         16.2207         179.694 
        1.81625         140.101         16.0885         178.886 
        1.82239         138.863         15.9576         177.832 
        1.82853         138.332         15.8283         176.974 
        1.83466          137.25         15.7004         176.079 
        1.84078         136.583         15.5742         175.241 
        1.84692         135.376         15.4491         174.738 
        1.85306         134.957         15.3252         173.771 
         1.8592          133.99         15.2029         172.732 
        1.86533         133.277          15.082         172.356 
        1.87147         132.236         14.9623         171.817 
        1.87761         131.344         14.8438         170.888 
