# k  (h/Mpc)    Pcb(k)  (Mpc/h)^3    Pcb_linear(k) (Mpc/h)^3    Pcb_NL(k) (Mpc/h)^3   ShotnoiseSubtracted = false
     0.00783031          2418.8         2443.81         2434.83 
       0.013688          3063.9         3060.61         3047.27 
       0.019231         3143.59         3141.16         3124.71 
      0.0249154          2915.7         2939.56         2927.52 
      0.0312784          2561.5         2567.46         2561.16 
      0.0375637         2194.29          2188.4         2184.11 
      0.0433917          1887.3         1893.79         1891.01 
      0.0492413         1673.91         1672.54         1670.58 
      0.0555754          1497.3         1508.01          1505.8 
      0.0619321         1404.32         1395.77         1393.31 
       0.067871         1304.91         1312.34         1309.17 
      0.0738098         1220.63         1229.18         1223.66 
      0.0800417         1117.68         1130.49          1125.4 
      0.0862327         1014.06         1020.41          1017.9 
      0.0921407         911.286         911.855         910.543 
      0.0982031         804.437         807.585         809.602 
       0.104506           723.6          716.26         720.951 
       0.110769         654.213         647.278         650.918 
       0.116806         603.334         600.469         603.864 
       0.122832         574.415         568.497         572.111 
       0.129052         544.553         544.284         547.138 
       0.135211         522.007         522.319         524.789 
       0.141259         500.585         497.789          500.68 
       0.147318         473.135         468.172         472.624 
       0.153489         436.426         433.598         436.774 
       0.159709          402.69         397.204         402.363 
       0.165845         373.766         363.322         371.618 
       0.171974         342.209         334.299         342.636 
       0.178125         320.852         311.378         321.532 
       0.184229         305.104         294.619         304.539 
        0.19034          287.85         282.474         291.705 
       0.196428         281.549         273.006         280.478 
       0.202534          274.76         264.108         271.522 
       0.208729         262.467         254.087          261.02 
       0.214876         248.718         242.399         251.169 
       0.220989         238.987         229.214         238.757 
       0.227147         222.813         215.203         225.124 
        0.23329         210.308         201.621         213.174 
       0.239377          200.37         189.529         201.797 
       0.245482         187.644         179.339         190.732 
       0.251667         182.332          171.09         183.232 
       0.257832         175.779         164.618         176.251 
       0.263955         169.836         159.311         170.273 
       0.270079         164.584          154.44         164.985 
        0.27624         161.109         149.418         159.395 
       0.282372         155.151         143.955         154.386 
        0.28843         148.579         138.073         148.719 
       0.294538         142.166          131.84         143.031 
       0.300721         138.013         125.562         137.519 
        0.30691         131.053         119.656         131.935 
       0.313033         126.356         114.434         126.432 
       0.319153         120.207         109.935         122.226 
       0.325316          118.07         106.077         118.551 
        0.33145         113.843         102.749         114.516 
       0.337538         111.392         99.7354         111.114 
       0.343633         107.804         96.8046         108.322 
       0.349808         104.751         93.7816         105.534 
       0.355968         101.937         90.6436         103.025 
       0.362074         98.5909         87.4485         99.6289 
       0.368217         95.4668         84.2238         95.8946 
       0.374374         92.3479         81.0993         93.1939 
       0.380519         89.7966         78.1799         90.0992 
       0.386598         87.1831         75.5418         87.5529 
       0.392688         85.3073         73.1657         85.2393 
        0.39888         82.8464         70.9776         82.7211 
       0.405048         80.9216         68.9714         80.6077 
       0.411186         79.0616         67.0749         79.0909 
       0.417313         76.6349         65.2166         76.7032 
       0.423458         74.7399         63.3588         74.9975 
       0.429607         72.7051         61.4933          73.013 
       0.435692         70.3998         59.6543          71.316 
       0.441815         69.3003          57.844          69.915 
       0.447964         68.0002         56.0981         67.8739 
       0.454126         65.1175         54.4415         65.9852 
       0.460267         64.0308            52.9         64.7232 
       0.466387         62.3254         51.4695         63.0034 
        0.47254         61.3286          50.118         61.7503 
       0.478662         60.2631           48.84         60.3399 
       0.484765         58.5555         47.6133         58.8589 
       0.490885         57.2886         46.4117         57.9779 
       0.497035         56.4494         45.2211         56.8954 
       0.503198         54.9505         44.0467         55.3936 
       0.509342         53.5357         42.9018         54.3863 
       0.515458         52.4731         41.7943         53.5841 
       0.521598          51.602         40.7219         52.0045 
       0.527764         50.5629         39.6916         50.6897 
       0.533884         49.6543         38.7196         49.7543 
           0.54         48.5915          37.795         48.8155 
       0.546137         47.8587         36.9057         48.0714 
       0.552299         47.0834          36.045         46.8783 
       0.558452         45.6757         35.2127         45.9494 
       0.564573         44.9486         34.4073         45.3695 
       0.570708         44.2923         33.6189         44.5175 
       0.576825         43.2413         32.8501         43.6771 
       0.582926         42.4067          32.102         42.9144 
       0.589034         41.3142         31.3746         42.2881 
       0.595184         40.7854         30.6671         41.3291 
       0.601379         40.0972         29.9808         40.7934 
       0.607522         39.2424         29.3249         39.8661 
       0.613639         38.9363         28.6941          39.224 
       0.619772         37.9334         28.0822         38.5948 
       0.625918         37.6947         27.4879         38.0663 
       0.632068         37.0886         26.9106         37.2921 
       0.638161         36.3427         26.3546          36.707 
         0.6443         35.6523          25.809         36.0315 
       0.650464         35.0285         25.2752         35.5483 
       0.656582         34.7774         24.7587         35.0201 
       0.662703         34.0831         24.2555         34.3613 
       0.668861         33.4881         23.7635         33.9574 
       0.675024         32.9156         23.2856         33.2813 
       0.681124         32.3419          22.827         32.7773 
       0.687237         31.7738         22.3814         32.2339 
       0.693381         31.5087         21.9466         31.7337 
       0.699536         30.7481         21.5231         31.3899 
       0.705665         30.6876         21.1126          30.992 
       0.711789          29.947         20.7127         30.3621 
       0.717957         29.5721         20.3198         30.0079 
        0.72409         29.1407         19.9388         29.6401 
       0.730186         28.7096         19.5695         29.1564 
       0.736317         28.4172         19.2074         28.7273 
       0.742472          27.907         18.8533         28.4345 
       0.748622         27.6347         18.5088         27.9448 
        0.75476         27.1497          18.174         27.5826 
       0.760888          26.757         17.8484         27.2532 
       0.767043          26.433         17.5298         26.9389 
       0.773185         25.9649         17.2198         26.5566 
       0.779291         25.8319         16.9192          26.258 
       0.785407         25.5314         16.6254         25.8653 
       0.791564         25.0431         16.3366         25.5433 
       0.797719          24.521         16.0548         25.2221 
       0.803834          24.475         15.7814         24.8468 
       0.809972         24.2103         15.5133         24.6127 
       0.816124         23.6416         15.2508         24.2559 
       0.822261         23.4744         14.9951         23.9215 
       0.828378         23.2394          14.746         23.6196 
       0.834502           22.98         14.5025         23.4431 
       0.840667         22.6783         14.2629         23.0847 
       0.846816         22.2758         14.0295         22.8375 
       0.852925          22.072         13.8029         22.7047 
       0.859047          21.815         13.5809         22.3204 
       0.865192         21.5859         13.3631         22.0518 
       0.871341         21.4239           13.15         21.8633 
       0.877463         21.0169         12.9425         21.5863 
       0.883569          20.765         12.7401         21.3697 
       0.889708         20.4809          12.541         21.0917 
       0.895864         20.3206         12.3457         20.8316 
       0.902008         20.1577          12.155         20.6456 
       0.908149         19.9281         11.9684         20.4426 
       0.914301         19.8034         11.7854         20.2922 
       0.920448         19.3949         11.6065          19.976 
       0.926574         19.2507         11.4319         19.7527 
       0.932687         19.0273         11.2613         19.5015 
       0.938823         18.7799         11.0936         19.3262 
       0.944975         18.5806         10.9289         19.1323 
       0.951105         18.4179         10.7682         18.8722 
       0.957225         18.2216          10.611         18.7658 
       0.963368         18.0562         10.4565          18.531 
       0.969511         17.8972          10.305         18.3573 
       0.975621         17.7377         10.1574         18.1652 
       0.981748         17.4861         10.0123         18.0195 
       0.987916         17.3606         9.86913         17.7971 
        0.99406         17.1426         9.72933         17.6377 
        1.00019         16.9027         9.59254         17.4802 
        1.00632         16.8489         9.45851         17.3232 
        1.01246         16.6859         9.32687         17.2154 
        1.01859         16.4225         9.19795         17.0089 
        1.02471         16.3582         9.07165         16.8037 
        1.03085         16.1955          8.9473         16.6682 
        1.03698         15.9241         8.82556         16.5229 
        1.04314         15.8372         8.70558         16.3386 
        1.04929         15.6394         8.58811         16.2245 
        1.05541         15.4702          8.4733         16.1109 
        1.06154         15.3688         8.36031         15.9112 
        1.06769         15.2739         8.24923         15.7584 
        1.07382         15.0848         8.14054         15.6488 
        1.07993         14.9844         8.03406         15.5047 
        1.08607         14.8049         7.92906          15.362 
        1.09222         14.6961         7.82584         15.2446 
        1.09836          14.513         7.72458         15.0805 
        1.10449         14.4248         7.62525         14.9454 
        1.11063         14.2511         7.52756         14.8457 
        1.11677         14.1913         7.43162         14.6881 
         1.1229         14.0992         7.33753         14.5894 
        1.12903         13.9112           7.245         14.4972 
        1.13518         13.7522         7.15398         14.3452 
        1.14131         13.6835         7.06459         14.2229 
        1.14745         13.5665         6.97678         14.0946 
        1.15359         13.4715         6.89045          13.983 
        1.15973         13.3423         6.80555         13.8685 
        1.16584         13.1489         6.72247         13.7926 
        1.17197         13.1091         6.64066         13.6978 
        1.17811         12.9923         6.55997         13.5272 
        1.18424         12.8708         6.48086         13.4507 
        1.19038         12.8139         6.40283         13.3411 
        1.19652         12.6839         6.32613         13.2208 
        1.20267         12.5553         6.25068         13.1203 
        1.20881         12.5107         6.17649          13.058 
        1.21495         12.4102         6.10362         12.9405 
        1.22108         12.2638         6.03194         12.8452 
         1.2272         12.1625         5.96159         12.7228 
        1.23334         12.0602          5.8922         12.6568 
        1.23949          11.953         5.82376         12.5501 
        1.24562         11.9011          5.7566         12.4396 
        1.25174         11.8216          5.6906         12.3657 
        1.25789         11.7229         5.62545         12.2638 
        1.26402         11.6701         5.56143         12.1602 
        1.27014          11.553         5.49857         12.0848 
        1.27628         11.4087         5.43649         11.9884 
        1.28244         11.3399         5.37526         11.9351 
        1.28858         11.3184         5.31506         11.8263 
        1.29471         11.1904         5.25592         11.7442 
        1.30084         11.0829         5.19774         11.7015 
        1.30697           11.04         5.14035         11.5873 
        1.31312         10.8993         5.08375         11.5027 
        1.31925         10.8222         5.02818         11.4549 
        1.32537         10.7767         4.97351         11.3795 
        1.33151         10.6982         4.91945         11.2817 
        1.33765         10.6161         4.86623          11.192 
        1.34378         10.5344         4.81391         11.1268 
        1.34992         10.4399         4.76232         11.0589 
        1.35606         10.3966         4.71138         10.9686 
         1.3622         10.3298         4.66127         10.8909 
        1.36833          10.225         4.61201          10.859 
        1.37445         10.1764          4.5635         10.7629 
        1.38059         10.1202         4.51553         10.6724 
        1.38675         10.0136         4.46814         10.6337 
        1.39288          9.9719         4.42161         10.5536 
        1.39901         9.87276         4.37578         10.4888 
        1.40515         9.83013         4.33049         10.4233 
         1.4113         9.75692         4.28586         10.3571 
        1.41742         9.68544         4.24204         10.2937 
        1.42355         9.61437         4.19874         10.2173 
         1.4297         9.55667         4.15592         10.1619 
        1.43585         9.51654         4.11372         10.1117 
        1.44198         9.45105         4.07227         10.0342 
        1.44809         9.37954         4.03146         9.98171 
        1.45423          9.3029         3.99107         9.91858 
        1.46036         9.25009          3.9513         9.85129 
        1.46649         9.20343         3.91207          9.7958 
        1.47263         9.11433         3.87334         9.74826 
        1.47877         9.06399         3.83515         9.68659 
        1.48491         9.01314         3.79741         9.61106 
        1.49104         8.95635         3.76027         9.56773 
        1.49718          8.9024         3.72359         9.51329 
        1.50333         8.84668         3.68735         9.45517 
        1.50947         8.78085         3.65166         9.40684 
         1.5156         8.73167          3.6165         9.35424 
        1.52172         8.68501         3.58181         9.28935 
        1.52787         8.61787          3.5475         9.22578 
          1.534         8.56339         3.51368         9.17856 
        1.54013         8.51356         3.48034         9.11779 
        1.54627         8.44473         3.44738         9.06608 
        1.55241         8.40573         3.41483         9.02883 
        1.55855         8.36674         3.38276         8.97269 
        1.56467         8.29902         3.35118           8.923 
         1.5708         8.27938         3.31992         8.88809 
        1.57695         8.19899         3.28902         8.83569 
        1.58308         8.14654         3.25858         8.78321 
        1.58922          8.1185          3.2285         8.74973 
        1.59535         8.07923         3.19882         8.69632 
         1.6015          8.0094         3.16947         8.63893 
        1.60764         7.95146          3.1405         8.59224 
        1.61376         7.93325         3.11197         8.55221 
        1.61989         7.87065         3.08378         8.51409 
        1.62604         7.83216         3.05587         8.46647 
        1.63218         7.79704         3.02833         8.41997 
        1.63831         7.75439         3.00119         8.37956 
        1.64444          7.6992         2.97437         8.33139 
        1.65059         7.63343         2.94782         8.28078 
        1.65673         7.62261         2.92161         8.24509 
        1.66285         7.54152         2.89581         8.20931 
        1.66898         7.51368          2.8703         8.16018 
        1.67512         7.48452         2.84505          8.1197 
        1.68127         7.43123         2.82009         8.07275 
         1.6874         7.39994         2.79548         8.03067 
        1.69353         7.34642         2.77118         8.00598 
        1.69967         7.30682         2.74711         7.95732 
        1.70581         7.27285         2.72333         7.91512 
        1.71193         7.22096         2.69993         7.88547 
        1.71806         7.20125         2.67676         7.84347 
        1.72421         7.14518         2.65381         7.80757 
        1.73035         7.12679         2.63116         7.76681 
        1.73649         7.08432         2.60877         7.72155 
        1.74262         7.03433         2.58667         7.69333 
        1.74876          7.0077          2.5648         7.65481 
        1.75489         6.97511         2.54324         7.60593 
        1.76101         6.91515         2.52193          7.5649 
        1.76715         6.89969         2.50084         7.54326 
        1.77329         6.85018         2.47996         7.50852 
        1.77943         6.80864         2.45931         7.46495 
        1.78557         6.79167         2.43892         7.43125 
        1.79171         6.75423         2.41877         7.39274 
        1.79785           6.707         2.39884         7.35355 
        1.80399         6.66731         2.37913         7.32487 
        1.81012         6.64412         2.35968         7.29958 
        1.81625         6.59973         2.34045         7.26976 
        1.82239         6.57556         2.32141         7.23485 
        1.82853         6.53079         2.30258         7.19993 
        1.83466         6.50148         2.28399         7.17176 
        1.84078         6.46642         2.26562         7.14189 
        1.84692         6.45302         2.24742         7.09679 
        1.85306         6.40071          2.2294         7.06393 
         1.8592         6.36688         2.21161         7.04147 
        1.86533         6.33869         2.19402         7.00685 
        1.87147         6.31101         2.17661          6.9691 
