# k  (h/Mpc)    Pcb(k)  (Mpc/h)^3    Pcb_linear(k) (Mpc/h)^3    Pcb_NL(k) (Mpc/h)^3   ShotnoiseSubtracted = false
     0.00783031         13097.4           13279         13224.3 
       0.013688         16762.4         16621.8         16519.3 
       0.019231         17081.7         17055.5         16915.4 
      0.0249154         15637.9         15958.8         15812.9 
      0.0312784         13782.5         13937.5         13791.2 
      0.0375637         11869.5         11879.2         11749.5 
      0.0433917         10103.2         10279.6         10146.7 
      0.0492413         9018.18         9078.44         8956.83 
      0.0555754         7953.14         8185.23         8077.33 
      0.0619321         7591.77          7575.9         7469.95 
       0.067871         6935.64         7122.96          7021.6 
      0.0738098         6488.15         6671.55         6515.02 
      0.0800417         5897.45         6135.83         5991.31 
      0.0862327         5389.01         5538.36         5456.43 
      0.0921407         4906.67         4949.13         4887.16 
      0.0982031         4335.83         4383.19         4398.34 
       0.104506         3984.57         3887.51         3966.59 
       0.110769         3618.38          3513.1         3572.03 
       0.116806         3359.89         3259.03         3316.87 
       0.122832         3192.47          3085.5         3149.54 
       0.129052         2984.82         2954.08         3006.82 
       0.135211          2863.2         2834.86         2875.64 
       0.141259         2766.07         2701.72         2758.52 
       0.147318         2624.74         2540.97         2623.45 
       0.153489         2413.49         2353.32         2412.83 
       0.159709            2270         2155.79         2259.98 
       0.165845         2154.91          1971.9         2139.53 
       0.171974         2009.75         1814.38         1994.09 
       0.178125         1897.32         1689.98         1909.21 
       0.184229         1807.53         1599.02         1805.61 
        0.19034         1703.64          1533.1         1730.56 
       0.196428         1677.83         1481.71         1656.59 
       0.202534         1625.49         1433.42         1607.17 
       0.208729         1556.39         1379.03         1533.32 
       0.214876         1491.03          1315.6         1499.72 
       0.220989         1441.44         1244.03         1448.29 
       0.227147         1372.56         1167.99         1390.73 
        0.23329         1313.34         1094.27         1343.64 
       0.239377         1285.08         1028.65         1284.92 
       0.245482         1200.33         973.341         1221.57 
       0.251667          1190.5         928.572         1187.64 
       0.257832         1144.07         893.442         1143.87 
       0.263955         1108.16         864.638          1107.7 
       0.270079         1070.58         838.205         1076.95 
        0.27624         1060.18         810.945         1044.87 
       0.282372         1015.99           781.3            1022 
        0.28843         1003.58         749.371         996.586 
       0.294538         953.181         715.543         969.736 
       0.300721         947.758         681.472         941.145 
        0.30691         906.793         649.415         922.814 
       0.313033         888.742         621.075         890.222 
       0.319153         869.054         596.658         864.064 
       0.325316         841.382         575.719         846.191 
        0.33145         821.135         557.656         815.175 
       0.337538         807.863           541.3         799.371 
       0.343633         786.739         525.394         791.134 
       0.349808         760.106         508.987         777.342 
       0.355968          755.08         491.955         763.784 
       0.362074          745.06         474.615         747.796 
       0.368217         722.909         457.113         726.677 
       0.374374         693.187         440.155         711.945 
       0.380519         692.151          424.31         695.348 
       0.386598          673.66         409.993         686.458 
       0.392688          671.19         397.096         667.197 
        0.39888         651.058         385.221         656.677 
       0.405048         640.521         374.333          647.02 
       0.411186         630.728         364.039         631.737 
       0.417313         618.066         353.954          621.05 
       0.423458          607.03          343.87         612.008 
       0.429607         597.429         333.746         600.256 
       0.435692         584.086         323.765         588.068 
       0.441815         579.234          313.94         583.998 
       0.447964         566.535         304.464         574.207 
       0.454126         557.161         295.473         558.594 
       0.460267         545.822         287.107         556.201 
       0.466387         539.844         279.343          545.54 
        0.47254         531.528         272.008          538.03 
       0.478662         529.007         265.072         528.164 
       0.484765         511.996         258.414         519.617 
       0.490885         508.032         251.893         511.737 
       0.497035         497.658         245.431         506.345 
       0.503198         492.753         239.057         499.571 
       0.509342         488.362         232.843          492.78 
       0.515458         483.992         226.833         488.835 
       0.521598         472.158         221.012          481.24 
       0.527764         463.511          215.42         475.743 
       0.533884          461.65         210.145         469.595 
           0.54         455.701         205.127         462.565 
       0.546137         453.193           200.3         456.961 
       0.552299         444.769         195.629          450.65 
       0.558452         442.161         191.111         446.467 
       0.564573         435.654          186.74         442.884 
       0.570708           429.5         182.462         438.469 
       0.576825         419.135         178.289         430.511 
       0.582926         418.548         174.229          426.48 
       0.589034          414.55         170.281         420.583 
       0.595184         410.728         166.441         415.384 
       0.601379         404.876         162.716         411.622 
       0.607522         399.152         159.156         406.484 
       0.613639         397.866         155.733         404.303 
       0.619772         388.557         152.412         402.577 
       0.625918         387.289         149.186         395.999 
       0.632068         381.127         146.053         391.868 
       0.638161         379.665         143.035         388.237 
         0.6443         372.889         140.075         384.835 
       0.650464          370.01         137.177         378.083 
       0.656582         367.808         134.374         375.354 
       0.662703         366.086         131.643         373.772 
       0.668861         359.474         128.973         370.476 
       0.675024         355.934         126.379         367.033 
       0.681124         353.463          123.89         361.205 
       0.687237          350.05         121.472         358.134 
       0.693381         345.057         119.112         354.969 
       0.699536         341.049         116.813         352.557 
       0.705665         338.994         114.585         348.579 
       0.711789         336.711         112.415         346.355 
       0.717957         333.916         110.283           344.4 
        0.72409         330.989         108.215         341.095 
       0.730186         326.866          106.21         337.828 
       0.736317          323.82         104.245         334.511 
       0.742472         322.053         102.324          331.25 
       0.748622         318.868         100.454         328.364 
        0.75476         315.335         98.6366         328.372 
       0.760888         311.739         96.8694         323.724 
       0.767043         312.227         95.1401         321.404 
       0.773185         307.964         93.4577         318.908 
       0.779291         303.385         91.8263         315.604 
       0.785407         302.462         90.2316         313.733 
       0.791564         298.652         88.6646         311.319 
       0.797719         296.168         87.1351          308.84 
       0.803834         293.621          85.651         307.337 
       0.809972           292.5         84.1958         304.819 
       0.816124         292.045         82.7712         301.295 
       0.822261         287.728         81.3835         299.753 
       0.828378         285.729         80.0318         297.282 
       0.834502         283.698           78.71         295.568 
       0.840667         280.469         77.4098         292.817 
       0.846816         278.925         76.1431         291.252 
       0.852925         277.161         74.9132         289.135 
       0.859047         275.121         73.7083          287.16 
       0.865192         271.843         72.5262         284.707 
       0.871341          269.84         71.3695         282.883 
       0.877463         268.309         70.2436         281.271 
       0.883569         266.923          69.145         279.915 
       0.889708         264.143         68.0645          277.04 
       0.895864         261.336         67.0044         275.382 
       0.902008         260.132         65.9692          273.45 
       0.908149         258.635         64.9566         271.032 
       0.914301         255.356         63.9636         269.251 
       0.920448         253.807         62.9925         267.222 
       0.926574         251.497         62.0449         265.413 
       0.932687         251.562          61.119         263.713 
       0.938823         248.326         60.2088         262.854 
       0.944975         247.273         59.3151         261.149 
       0.951105         245.474         58.4429         259.117 
       0.957225         243.552         57.5898         257.237 
       0.963368         240.366         56.7509         255.476 
       0.969511         239.212         55.9289         253.596 
       0.975621         237.173         55.1276         252.623 
       0.981748         236.963         54.3402         251.141 
       0.987916         234.764         53.5632         249.587 
        0.99406         231.712         52.8044         247.989 
        1.00019         231.582          52.062          245.98 
        1.00632         229.701         51.3346         244.192 
        1.01246         227.789         50.6201          242.29 
        1.01859         227.827         49.9205         241.256 
        1.02471         224.397          49.235         240.245 
        1.03085         222.636         48.5601         238.969 
        1.03698         221.826         47.8993          238.01 
        1.04314         219.579         47.2481         236.004 
        1.04929         218.219         46.6106         234.219 
        1.05541          218.22         45.9875         232.904 
        1.06154         215.139         45.3743         231.604 
        1.06769         214.703         44.7714         230.465 
        1.07382         213.001         44.1815          228.91 
        1.07993          211.19         43.6036         227.651 
        1.08607         210.632         43.0337         226.275 
        1.09222         209.035         42.4735         225.071 
        1.09836         207.291          41.924         224.151 
        1.10449         205.106         41.3848         222.908 
        1.11063         203.358         40.8546          221.44 
        1.11677         203.003          40.334         219.775 
         1.1229         201.429         39.8233         218.685 
        1.12903         200.276         39.3211          217.72 
        1.13518         198.964         38.8271           216.3 
        1.14131         197.135          38.342         214.946 
        1.14745         196.924         37.8654         213.914 
        1.15359         195.166         37.3968         212.657 
        1.15973         193.878         36.9361         211.403 
        1.16584         192.153         36.4852         209.723 
        1.17197         191.945         36.0412         209.255 
        1.17811          189.87         35.6032         208.179 
        1.18424         188.917         35.1739         206.601 
        1.19038         188.321         34.7504         206.083 
        1.19652         186.728          34.334         204.971 
        1.20267         186.069         33.9246         203.376 
        1.20881         184.241         33.5219          202.62 
        1.21495         183.349         33.1264         201.326 
        1.22108         182.175         32.7374          200.33 
         1.2272         180.652         32.3556         198.591 
        1.23334         179.966          31.979         198.093 
        1.23949         178.589         31.6075         197.381 
        1.24562          177.56          31.243         195.735 
        1.25174          176.02         30.8849         195.011 
        1.25789          174.85         30.5312         193.812 
        1.26402         173.574         30.1838         192.859 
        1.27014         172.362         29.8426         192.127 
        1.27628         171.624         29.5057         191.652 
        1.28244         171.353         29.1734         190.298 
        1.28858         169.487         28.8466         189.069 
        1.29471         168.023         28.5257         187.875 
        1.30084         167.464         28.2099         187.007 
        1.30697         166.106         27.8984         186.196 
        1.31312         164.962         27.5912         184.777 
        1.31925         164.257         27.2897         183.972 
        1.32537          163.36         26.9929         183.402 
        1.33151         161.691         26.6995         182.296 
        1.33765         160.956         26.4107         181.316 
        1.34378         160.161         26.1267         180.559 
        1.34992         159.371         25.8467         179.293 
        1.35606         159.004         25.5702         178.262 
         1.3622         157.234         25.2983         177.654 
        1.36833         155.964          25.031         176.628 
        1.37445          155.18         24.7676         175.546 
        1.38059         154.139         24.5073         174.701 
        1.38675          153.46         24.2501          173.96 
        1.39288         152.498         23.9976         172.447 
        1.39901          152.29         23.7488         172.104 
        1.40515         150.511          23.503         171.542 
         1.4113         149.603         23.2608         170.585 
        1.41742         148.705          23.023         169.844 
        1.42355          147.84          22.788          169.07 
         1.4297         146.886         22.5556         168.148 
        1.43585         145.883         22.3266          167.07 
        1.44198          145.16         22.1016         166.475 
        1.44809         144.487         21.8801         165.637 
        1.45423         143.499         21.6609         164.597 
        1.46036         142.537         21.4451         163.821 
        1.46649         141.447         21.2321         163.302 
        1.47263         140.646         21.0219         162.674 
        1.47877         139.994         20.8146         161.549 
        1.48491         138.478         20.6098         160.757 
        1.49104         138.377         20.4082         160.402 
        1.49718         136.913         20.2092         159.123 
        1.50333         136.414         20.0125         158.251 
        1.50947         135.799         19.8188         157.729 
         1.5156         134.687          19.628          156.97 
        1.52172         133.892         19.4397         156.043 
        1.52787         132.895         19.2535         155.396 
          1.534          132.39         19.0699         154.724 
        1.54013         131.491          18.889          154.05 
        1.54627         130.796         18.7101         153.405 
        1.55241         129.739         18.5335         152.629 
        1.55855         128.977         18.3594         151.753 
        1.56467         128.394          18.188         150.984 
         1.5708         127.442         18.0184         150.439 
        1.57695         126.807         17.8506         149.771 
        1.58308         126.172         17.6854         148.946 
        1.58922         125.555         17.5222         148.267 
        1.59535         124.478         17.3611         147.642 
         1.6015         123.993         17.2018         146.834 
        1.60764         123.182         17.0446         146.059 
        1.61376         122.461         16.8897         145.632 
        1.61989         121.596         16.7367          145.11 
        1.62604         120.905         16.5853         144.099 
        1.63218         120.389         16.4358         143.387 
        1.63831         119.371         16.2885          142.95 
        1.64444         118.929         16.1429          142.02 
        1.65059          118.27         15.9988         141.568 
        1.65673         117.064         15.8566         140.896 
        1.66285           116.9         15.7165         140.162 
        1.66898         116.129         15.5781         139.699 
        1.67512          115.65         15.4411         139.039 
        1.68127         114.568         15.3056         138.425 
         1.6874         113.702          15.172         137.876 
        1.69353         113.401         15.0401         137.196 
        1.69967         112.754         14.9095         136.445 
        1.70581         111.972         14.7804         135.844 
        1.71193         111.398         14.6534         135.286 
        1.71806         110.768         14.5277         134.514 
        1.72421         110.003         14.4031         133.946 
        1.73035         109.772         14.2802         133.388 
        1.73649         108.905         14.1587         132.727 
        1.74262         108.066         14.0387         132.194 
        1.74876         107.715         13.9201         131.603 
        1.75489         106.804          13.803         130.951 
        1.76101         106.191         13.6874          130.36 
        1.76715          105.52         13.5729         129.875 
        1.77329         105.274         13.4596         129.189 
        1.77943          104.28         13.3475          128.48 
        1.78557         103.789         13.2369         128.024 
        1.79171         103.063         13.1275         127.574 
        1.79785         102.554         13.0193         127.023 
        1.80399          101.84         12.9124         126.389 
        1.81012         101.374         12.8068         125.704 
        1.81625         100.756         12.7024         125.181 
        1.82239         100.414          12.599         124.742 
        1.82853         99.7477         12.4969         124.105 
        1.83466         98.9393          12.396         123.473 
        1.84078         98.6998         12.2963             123 
        1.84692         97.8273         12.1975         122.627 
        1.85306         97.4438         12.0997         122.001 
         1.8592         96.7825         12.0032          121.35 
        1.86533         96.0081         11.9077         120.961 
        1.87147          95.548         11.8132         120.374 
