# k  (h/Mpc)    Pcb(k)  (Mpc/h)^3    Pcb_linear(k) (Mpc/h)^3    Pcb_NL(k) (Mpc/h)^3   ShotnoiseSubtracted = false
     0.00783031         9488.63          9610.8         9573.36 
       0.013688         12112.1         12031.5         11965.1 
       0.019231         12366.2         12346.1         12257.4 
      0.0249154         11361.5         11552.6         11466.9 
      0.0312784         10007.1         10089.5         10011.2 
      0.0375637         8605.93         8599.56         8531.61 
      0.0433917         7346.18         7441.69         7374.09 
      0.0492413         6546.19         6572.16         6511.23 
      0.0555754         5796.37         5925.57         5870.96 
      0.0619321         5509.33         5484.47         5430.44 
       0.067871         5056.04         5156.58         5104.04 
      0.0738098         4729.32          4829.8         4747.45 
      0.0800417         4307.46         4441.98         4365.87 
      0.0862327         3928.82         4009.45         3967.43 
      0.0921407         3563.37         3582.89         3551.89 
      0.0982031         3145.58         3173.18         3184.88 
       0.104506          2875.2         2814.34         2861.11 
       0.110769         2607.02         2543.29         2577.64 
       0.116806         2413.22         2359.36            2393 
       0.122832         2296.36         2233.73         2271.13 
       0.129052         2154.08         2138.59         2169.05 
       0.135211         2066.76         2052.29         2076.95 
       0.141259         1992.95          1955.9         1988.65 
       0.147318         1888.61         1839.53         1888.45 
       0.153489         1737.37         1703.68         1737.97 
       0.159709         1626.89         1560.68         1620.17 
       0.165845          1534.3         1427.55         1524.21 
       0.171974            1423         1313.51          1415.1 
       0.178125         1341.43         1223.45         1348.13 
       0.184229         1278.96         1157.61         1276.13 
        0.19034         1200.14         1109.88         1222.34 
       0.196428         1183.25         1072.68          1169.5 
       0.202534         1150.52         1037.72         1134.09 
       0.208729         1099.76         998.346         1084.34 
       0.214876         1047.67         952.423         1057.72 
       0.220989         1012.85         900.614         1016.91 
       0.227147         958.092         845.564         970.695 
        0.23329         914.248         792.198         934.305 
       0.239377         889.265         744.688         891.772 
       0.245482         827.983         704.649         845.416 
       0.251667         818.394         672.239         820.382 
       0.257832         788.267         646.806         789.461 
       0.263955         763.355         625.954         763.384 
       0.270079         737.372         606.818         741.427 
        0.27624         729.569         587.082         717.905 
       0.282372         699.734         565.621         699.472 
        0.28843         683.901         542.506         678.977 
       0.294538         650.105         518.017         660.194 
       0.300721         645.201         493.351         640.773 
        0.30691         614.844         470.143         624.503 
       0.313033         601.727         449.627         601.206 
       0.319153         583.418          431.95         583.555 
       0.325316         566.172         416.792         570.174 
        0.33145         550.353         403.714         549.134 
       0.337538         542.602         391.874         536.348 
       0.343633         525.959         380.358         530.088 
       0.349808         508.791         368.481         519.761 
       0.355968         503.999         356.151         509.852 
       0.362074         494.332         343.597         497.613 
       0.368217         480.465         330.926         482.186 
       0.374374          460.89          318.65         471.413 
       0.380519         457.029         307.179         459.479 
       0.386598          445.57         296.814         452.228 
       0.392688         442.387         287.478         439.537 
        0.39888         429.709          278.88         431.022 
       0.405048         420.803         270.998         425.206 
       0.411186         412.804         263.546         413.965 
       0.417313         405.312         256.245         404.831 
       0.423458         397.629         248.945          398.49 
       0.429607         389.634         241.615         390.789 
       0.435692         380.286         234.389         382.659 
       0.441815         377.129         227.277         379.102 
       0.447964         369.074         220.417          371.69 
       0.454126         358.007         213.908         361.521 
       0.460267         352.852         207.851         358.893 
       0.466387         348.908         202.231         351.631 
        0.47254         341.445          196.92         346.223 
       0.478662         340.286         191.899         339.519 
       0.484765         329.483         187.079         332.271 
       0.490885         325.746         182.358          328.07 
       0.497035         319.976          177.68         324.113 
       0.503198         314.036         173.065          319.22 
       0.509342         311.323         168.567         315.234 
       0.515458         307.513         164.215         312.137 
       0.521598          301.34         160.001         305.875 
       0.527764         296.266         155.953         301.612 
       0.533884         293.438         152.134         297.653 
           0.54         289.331         148.501         293.002 
       0.546137         287.748         145.007         289.665 
       0.552299         281.859         141.626         284.816 
       0.558452         279.323         138.355         281.419 
       0.564573         274.925         135.191         278.992 
       0.570708         269.898         132.093         275.829 
       0.576825          265.78         129.072         270.402 
       0.582926         263.004         126.133         267.438 
       0.589034         260.158         123.275         264.539 
       0.595184         257.368         120.495         259.887 
       0.601379         254.588         117.798         258.327 
       0.607522         249.905         115.221         254.777 
       0.613639         248.453         112.743         252.449 
       0.619772         242.883         110.338          249.91 
       0.625918          241.48         108.003         246.709 
       0.632068         237.944         105.735          242.95 
       0.638161          236.79          103.55         241.765 
         0.6443         232.897         101.407         238.975 
       0.650464         230.477         99.3095         234.626 
       0.656582         228.826         97.2799         232.803 
       0.662703         226.811          95.303         230.955 
       0.668861         222.841         93.3698         228.412 
       0.675024         220.129         91.4919         225.761 
       0.681124         219.239         89.6902         223.271 
       0.687237         216.144         87.9393         220.864 
       0.693381         212.923         86.2308         218.487 
       0.699536         211.316         84.5668         216.609 
       0.705665         210.171          82.954         215.247 
       0.711789         207.025         81.3828         212.611 
       0.717957         206.053         79.8392         210.699 
        0.72409         203.521          78.342          209.43 
       0.730186          200.79          76.891         207.444 
       0.736317         198.926         75.4685         204.876 
       0.742472         197.788         74.0771         203.014 
       0.748622         196.147         72.7233         200.791 
        0.75476         194.451          71.408         199.603 
       0.760888         191.737         70.1286          196.93 
       0.767043         191.284         68.8767         195.787 
       0.773185         189.031         67.6587         194.544 
       0.779291         185.681         66.4776         192.378 
       0.785407         185.153         65.3232         190.423 
       0.791564         183.283         64.1887         189.207 
       0.797719         180.906         63.0814          188.13 
       0.803834         179.922          62.007          186.16 
       0.809972         178.281         60.9536         184.652 
       0.816124         178.132         59.9222          183.27 
       0.822261         175.632         58.9175         181.674 
       0.828378         174.018          57.939         179.657 
       0.834502         173.854         56.9821         178.585 
       0.840667         170.943         56.0408          177.47 
       0.846816         169.638         55.1238         175.945 
       0.852925         168.829         54.2334         174.573 
       0.859047         166.892         53.3611         173.291 
       0.865192         165.529         52.5053         171.948 
       0.871341         163.991          51.668         170.366 
       0.877463         162.763         50.8529          169.49 
       0.883569          161.83         50.0575          168.45 
       0.889708         160.411         49.2753         167.009 
       0.895864         158.493         48.5078         166.168 
       0.902008         157.801         47.7584          164.47 
       0.908149         157.047         47.0253         163.028 
       0.914301         155.209         46.3065         162.164 
       0.920448         154.029         45.6034         161.038 
       0.926574         153.189         44.9174         159.439 
       0.932687         152.623         44.2471         158.396 
       0.938823         150.535         43.5881         157.662 
       0.944975         149.185         42.9412         156.678 
       0.951105          148.53         42.3097          155.32 
       0.957225         146.868         41.6921         154.273 
       0.963368         145.399         41.0848         152.754 
       0.969511         145.022         40.4897          151.89 
       0.975621         144.149         39.9097         151.986 
       0.981748         143.499         39.3395         150.529 
       0.987916          141.71         38.7771         149.604 
        0.99406         140.788         38.2278         148.466 
        1.00019         140.385         37.6903         147.281 
        1.00632         139.005         37.1637           146.2 
        1.01246          138.13         36.6464         144.979 
        1.01859         136.961         36.1399         144.633 
        1.02471         136.041         35.6437         144.155 
        1.03085          134.77         35.1551         142.995 
        1.03698         134.049         34.6767          141.89 
        1.04314         132.892         34.2053         141.117 
        1.04929         131.979         33.7438          140.43 
        1.05541         131.282         33.2927         139.636 
        1.06154         130.392         32.8487          138.88 
        1.06769         130.203         32.4122         138.091 
        1.07382         129.111         31.9852         137.227 
        1.07993         127.968         31.5668          136.31 
        1.08607         127.115         31.1543          135.62 
        1.09222         126.582         30.7487         134.906 
        1.09836         125.457         30.3508         133.924 
        1.10449         124.436         29.9605         133.146 
        1.11063         123.598         29.5767         132.032 
        1.11677         123.173         29.1998         131.417 
         1.1229         121.874         28.8301         130.856 
        1.12903         121.133         28.4665         129.969 
        1.13518         121.068         28.1089         129.288 
        1.14131         119.738         27.7577         128.351 
        1.14745         119.142         27.4126         127.785 
        1.15359         118.273         27.0734         126.959 
        1.15973          117.87         26.7399         126.664 
        1.16584         116.705         26.4134         125.472 
        1.17197         116.129          26.092         125.012 
        1.17811         115.348         25.7749         124.463 
        1.18424         114.762         25.4641         123.713 
        1.19038         114.292         25.1575         123.087 
        1.19652         113.438         24.8561         122.371 
        1.20267         112.614         24.5597         121.674 
        1.20881         111.756         24.2682         121.092 
        1.21495         111.186         23.9819         120.184 
        1.22108         110.572         23.7002         119.936 
         1.2272         109.629         23.4238         119.018 
        1.23334         109.128         23.1512           118.7 
        1.23949         108.085         22.8823         117.719 
        1.24562         107.693         22.6184         117.083 
        1.25174         106.737         22.3591         116.572 
        1.25789          106.33         22.1031         115.995 
        1.26402         105.815         21.8515         115.424 
        1.27014         105.043         21.6045         115.266 
        1.27628         104.506         21.3606         114.767 
        1.28244         103.829         21.1201         113.568 
        1.28858         103.453         20.8835         112.962 
        1.29471         102.422         20.6511         112.588 
        1.30084         101.971         20.4225         111.834 
        1.30697          101.32         20.1971         111.459 
        1.31312         100.955         19.9747         110.852 
        1.31925         100.038         19.7564         110.252 
        1.32537         99.6473         19.5415         109.813 
        1.33151         98.7091         19.3291         109.168 
        1.33765         98.2988           19.12         108.728 
        1.34378         97.6611         18.9144         108.165 
        1.34992         97.4913         18.7117         107.596 
        1.35606         96.7564         18.5116         106.994 
         1.3622         95.8685         18.3147         106.541 
        1.36833         95.6159         18.1212         105.874 
        1.37445         94.9169         17.9305         105.352 
        1.38059         94.4352         17.7421         104.961 
        1.38675          93.722         17.5559         104.224 
        1.39288         93.3064         17.3731         103.871 
        1.39901         92.9653          17.193          103.48 
        1.40515         92.3101          17.015         103.095 
         1.4113         91.5335         16.8397         102.662 
        1.41742          91.452         16.6675         102.054 
        1.42355         90.6412         16.4974         101.424 
         1.4297         90.1728         16.3291         101.029 
        1.43585         89.4526         16.1633         100.463 
        1.44198         89.1867         16.0004         100.118 
        1.44809         88.5751         15.8401         99.5533 
        1.45423         87.9778         15.6814         99.0499 
        1.46036         87.7768         15.5252         98.6704 
        1.46649         87.1381          15.371         98.3553 
        1.47263         86.6102         15.2188         97.8903 
        1.47877         86.3638         15.0688         97.1172 
        1.48491         85.5814         14.9205         96.9355 
        1.49104         85.2719         14.7745         96.5277 
        1.49718         84.6641         14.6304         95.8837 
        1.50333         84.1933          14.488          95.432 
        1.50947         83.7411         14.3478         95.0207 
         1.5156          83.349         14.2097         94.6192 
        1.52172         82.7459         14.0734         94.2553 
        1.52787         82.5395         13.9386         93.7628 
          1.534         81.9437         13.8057         93.3985 
        1.54013         81.3518         13.6747         92.9313 
        1.54627         81.0536         13.5452         92.5121 
        1.55241         80.5102         13.4173         92.1756 
        1.55855         80.2526         13.2913         91.6197 
        1.56467         79.6801         13.1672         91.2367 
         1.5708         79.2599         13.0444         90.9224 
        1.57695         79.0392          12.923         90.5286 
        1.58308         78.1793         12.8033         90.1288 
        1.58922         78.0757         12.6852         89.6808 
        1.59535         77.7239         12.5685         89.2661 
         1.6015         77.0958         12.4532         88.8219 
        1.60764         76.7544         12.3394         88.5403 
        1.61376         76.3709         12.2273         88.3757 
        1.61989         75.9079         12.1165         87.8903 
        1.62604         75.6266         12.0069          87.289 
        1.63218         75.2175         11.8987         86.8991 
        1.63831          74.589          11.792         86.7175 
        1.64444         74.3208         11.6867         86.2984 
        1.65059         73.7836         11.5823         85.7081 
        1.65673         73.3385         11.4794         85.4358 
        1.66285         73.0752          11.378         85.2068 
        1.66898         72.6523         11.2778         84.7264 
        1.67512         72.1896         11.1786         84.4424 
        1.68127         71.8378         11.0805         84.0097 
         1.6874         71.4855         10.9838         83.5518 
        1.69353         71.0971         10.8883         83.3772 
        1.69967         70.6123         10.7937         83.0463 
        1.70581         70.4334         10.7003         82.5972 
        1.71193         70.1618         10.6084         82.2387 
        1.71806         69.4735         10.5173         82.0551 
        1.72421         69.2405         10.4271         81.6645 
        1.73035           68.89         10.3381         81.2095 
        1.73649         68.4951         10.2502         80.8752 
        1.74262         68.1935         10.1633         80.6165 
        1.74876         67.8438         10.0774         80.2648 
        1.75489         67.3095          9.9927           79.88 
        1.76101         67.1338         9.90897         79.5258 
        1.76715         66.6606         9.82608         79.1336 
        1.77329         66.3636         9.74405         78.8615 
        1.77943         65.8838         9.66291         78.5697 
        1.78557         65.7148         9.58282         78.1171 
        1.79171         65.2908         9.50363         77.7934 
        1.79785         65.0108         9.42531         77.5613 
        1.80399          64.696          9.3479         77.2446 
        1.81012         64.4194         9.27146         76.9096 
        1.81625         63.8701          9.1959         76.5658 
        1.82239         63.6259         9.12108         76.2704 
        1.82853         63.2967         9.04713         76.0768 
        1.83466         62.9698         8.97406         75.7178 
        1.84078         62.6259         8.90189         75.3093 
        1.84692         62.1845         8.83039         75.1945 
        1.85306         61.9284         8.75959         74.8814 
         1.8592         61.4694         8.68968         74.4309 
        1.86533         61.2752         8.62058         74.1791 
        1.87147          60.853         8.55214         73.7903 
