# k  (h/Mpc)    P(k)  (Mpc/h)^3    P_linear(k)  (Mpc/h)^3     P_NL(k)  ShotnoiseSubtracted = false
     0.00783031         1639.49         1655.77         1649.65 
       0.013688         2073.84         2073.88         2065.09 
       0.019231         2129.48         2128.55         2117.86 
      0.0249154         1978.23         1991.98         1984.51 
      0.0312784         1736.89         1739.86         1736.54 
      0.0375637         1486.89         1482.99         1481.02 
      0.0433917         1280.44         1283.36          1282.5 
      0.0492413         1134.76         1133.43         1133.04 
      0.0555754         1016.61         1021.94         1021.23 
      0.0619321         951.116         945.876         944.952 
       0.067871         885.608         889.334         887.844 
      0.0738098         828.463         832.983         830.277 
      0.0800417         759.213         766.101         763.603 
      0.0862327          688.19         691.507         690.273 
      0.0921407         617.651         617.941         617.401 
      0.0982031         545.451          547.28         548.385 
       0.104506           489.3         485.392         487.806 
       0.110769         442.241         438.645         440.567 
       0.116806         407.967         406.923         408.661 
       0.122832         388.163         385.257         387.056 
       0.129052         368.657         368.848         370.225 
       0.135211         353.337         353.964         355.123 
       0.141259         338.459          337.34         338.678 
       0.147318         319.708         317.269          319.37 
       0.153489         295.086         293.839         295.364 
       0.159709         271.669         269.176         271.669 
       0.165845         251.505         246.215         250.224 
       0.171974         230.074         226.547         230.565 
       0.178125         215.429         211.014         215.886 
       0.184229         204.684         199.657         204.423 
        0.19034         193.628         191.426         195.841 
       0.196428         188.911          185.01         188.547 
       0.202534         184.238          178.98         182.476 
       0.208729         176.094         172.189         175.481 
       0.214876          166.95         164.268         168.446 
       0.220989          160.08         155.333         159.884 
       0.227147         149.135         145.838         150.556 
        0.23329         140.471         136.634         142.145 
       0.239377         133.337          128.44         134.317 
       0.245482         125.188         121.534         126.973 
       0.251667         121.187         115.944         121.741 
       0.257832         116.686         111.558         117.107 
       0.263955         112.788         107.961         113.167 
       0.270079         109.347         104.661         109.647 
        0.27624         106.798         101.258         105.961 
       0.282372         102.871         97.5555         102.509 
        0.28843          98.386         93.5688         98.6414 
       0.294538          94.136         89.3451         94.6639 
       0.300721          90.976         85.0907         90.7806 
        0.30691         86.3712          81.088         86.9227 
       0.313033         83.0628         77.5496         83.2514 
       0.319153         78.9668         74.5007         80.3625 
       0.325316         77.5888         71.8859         77.8325 
        0.33145          74.813         69.6307         75.2362 
       0.337538          72.991         67.5886         72.9943 
       0.343633         70.6343         65.6022         71.0228 
       0.349808         68.6588         63.5541         69.1024 
       0.355968           66.66         61.4272         67.3488 
       0.362074          64.396         59.2619         65.0433 
       0.368217         62.2715         57.0767         62.5749 
       0.374374         60.0976         54.9591         60.7064 
       0.380519         58.3679         52.9808         58.6198 
       0.386598         56.6241         51.1931         56.8931 
       0.392688         55.3026         49.5828         55.3022 
        0.39888          53.633         48.0999         53.6776 
       0.405048         52.3593         46.7405         52.1833 
       0.411186         51.1108         45.4554         51.1631 
       0.417313         49.4617         44.1958         49.6457 
       0.423458          48.203         42.9368         48.4669 
       0.429607         46.8306         41.6728         47.1087 
       0.435692          45.389         40.4264         45.9586 
       0.441815         44.4773         39.1996           44.94 
       0.447964          43.604         38.0164         43.5967 
       0.454126         41.8417         36.8939         42.3781 
       0.460267         41.0248         35.8491         41.4636 
       0.466387         39.8012         34.8798          40.325 
        0.47254         39.1509         33.9639         39.4613 
       0.478662          38.407         33.0978         38.5157 
       0.484765         37.3001         32.2664         37.5887 
       0.490885         36.4393         31.4525         36.9696 
       0.497035         35.8938         30.6453         36.2118 
       0.503198         34.9386         29.8495         35.1942 
       0.509342          34.028         29.0736         34.4996 
       0.515458         33.2476         28.3231         33.9174 
       0.521598         32.6299         27.5963         32.9063 
       0.527764         31.9016         26.8981         32.0844 
       0.533884         31.3169         26.2395         31.4324 
           0.54         30.6206         25.6128           30.78 
       0.546137         30.0871         25.0102         30.2601 
       0.552299         29.5527          24.427         29.4835 
       0.558452         28.6394         23.8629         28.8923 
       0.564573         28.2234          23.317         28.4977 
       0.570708         27.7273         22.7829         27.9177 
       0.576825         27.0023         22.2618         27.3529 
       0.582926         26.5027         21.7548         26.8608 
       0.589034         25.7611         21.2619         26.4245 
       0.595184         25.4052         20.7824         25.7446 
       0.601379         24.9021         20.3173         25.4173 
       0.607522         24.4495         19.8728         24.8489 
       0.613639         24.1709         19.4454         24.3879 
       0.619772           23.53         19.0307         24.0065 
       0.625918         23.3639         18.6279         23.5845 
       0.632068         22.9681         18.2367         23.1023 
       0.638161         22.4346         17.8599         22.7006 
         0.6443         21.9776         17.4902         22.2682 
       0.650464         21.5553         17.1285         21.9799 
       0.656582         21.3998         16.7784          21.594 
       0.662703          20.982         16.4374         21.1846 
       0.668861         20.5693          16.104           20.91 
       0.675024         20.1783         15.7801          20.466 
       0.681124         19.8275         15.4694         20.1359 
       0.687237         19.4838         15.1674         19.7569 
       0.693381         19.2723         14.8727         19.4341 
       0.699536         18.7627         14.5857         19.1642 
       0.705665         18.6288         14.3075         18.9414 
       0.711789         18.2404         14.0366         18.5647 
       0.717957         17.9664         13.7703         18.2708 
        0.72409         17.6754         13.5121         18.0309 
       0.730186         17.4337         13.2618         17.7127 
       0.736317         17.2202         13.0165         17.4359 
       0.742472         16.9231         12.7765         17.2679 
       0.748622          16.701          12.543          16.954 
        0.75476         16.3572         12.3161         16.6873 
       0.760888          16.145         12.0955         16.4731 
       0.767043         15.9354         11.8795         16.2636 
       0.773185         15.6156         11.6695         16.0242 
       0.779291         15.5112         11.4658         15.8184 
       0.785407         15.2947         11.2667         15.5673 
       0.791564          15.011          11.071         15.3618 
       0.797719         14.7067           10.88         15.1193 
       0.803834         14.6469         10.6947         14.8943 
       0.809972         14.4954          10.513         14.7631 
       0.816124         14.1434         10.3351         14.5116 
       0.822261         13.9879         10.1618         14.3068 
       0.828378          13.827         9.99307          14.123 
       0.834502          13.683         9.82802         13.9663 
       0.840667         13.4639         9.66568         13.7525 
       0.846816         13.2139         9.50752         13.5955 
       0.852925          13.087         9.35394         13.4794 
       0.859047         12.9246         9.20349          13.266 
       0.865192         12.7953         9.05589         13.0896 
       0.871341         12.6629         8.91147         12.9582 
       0.877463         12.4359         8.77088           12.77 
       0.883569         12.2505         8.63371         12.6254 
       0.889708         12.0486         8.49879         12.4656 
       0.895864         11.9568         8.36642         12.2949 
       0.902008         11.8461         8.23716         12.1733 
       0.908149         11.7039         8.11072         12.0206 
       0.914301         11.5728         7.98674         11.9226 
       0.920448         11.3592         7.86547         11.7213 
       0.926574         11.2432         7.74717         11.6002 
       0.932687         11.1207         7.63155         11.4051 
       0.938823         10.9643          7.5179         11.3204 
       0.944975           10.82         7.40631         11.1899 
       0.951105           10.72          7.2974         11.0221 
       0.957225          10.636         7.19088         10.9619 
       0.963368         10.4961         7.08614         10.8071 
       0.969511          10.391         6.98349         10.7023 
       0.975621         10.2712         6.88345          10.556 
       0.981748         10.1418         6.78512         10.4531 
       0.987916         10.0503          6.6881         10.3383 
        0.99406         9.89976         6.59336         10.2338 
        1.00019         9.74099         6.50066         10.1428 
        1.00632         9.71664         6.40983         10.0242 
        1.01246          9.6024         6.32062         9.95378 
        1.01859         9.45076         6.23326          9.8142 
        1.02471         9.38622         6.14767         9.67541 
        1.03085         9.28606          6.0634         9.59572 
        1.03698          9.1381         5.98089         9.51319 
        1.04314         9.07835         5.89958         9.39935 
        1.04929         8.95321         5.81998         9.31531 
        1.05541         8.84663         5.74217         9.23403 
        1.06154         8.77605         5.66561          9.1291 
        1.06769         8.72703         5.59033         9.04304 
        1.07382         8.59211         5.51667         8.95676 
        1.07993         8.51093         5.44451         8.86422 
        1.08607         8.43655         5.37335         8.76945 
        1.09222         8.35054          5.3034         8.68543 
        1.09836         8.25076         5.23479         8.58242 
        1.10449           8.176         5.16747         8.50655 
        1.11063         8.08754         5.10127         8.43439 
        1.11677         8.03456         5.03625         8.35111 
         1.1229         7.96417         4.97249         8.28245 
        1.12903         7.86688         4.90978         8.22732 
        1.13518         7.77146          4.8481         8.14027 
        1.14131         7.69694         4.78752         8.04665 
        1.14745         7.61781         4.72802         7.95767 
        1.15359         7.56711         4.66951         7.90008 
        1.15973         7.49209         4.61198         7.82547 
        1.16584         7.38044         4.55568          7.7788 
        1.17197         7.32871         4.50024         7.70007 
        1.17811         7.28542         4.44555         7.61489 
        1.18424         7.21332         4.39194         7.55491 
        1.19038         7.17114         4.33906         7.48529 
        1.19652         7.08635         4.28708         7.42642 
        1.20267         7.00222         4.23595         7.34648 
        1.20881          6.9757         4.18567         7.30594 
        1.21495         6.91117         4.13629         7.23714 
        1.22108         6.82253         4.08772         7.17793 
         1.2272         6.77678         4.04004         7.09729 
        1.23334         6.69133         3.99302         7.05127 
        1.23949         6.63503         3.94664         7.00084 
        1.24562         6.59637         3.90113          6.9313 
        1.25174         6.53408          3.8564         6.87281 
        1.25789         6.48203         3.81224         6.81296 
        1.26402         6.44146         3.76886         6.74743 
        1.27014         6.37867         3.72626         6.70389 
        1.27628         6.30335         3.68419         6.65242 
        1.28244         6.23481          3.6427         6.60129 
        1.28858          6.2251          3.6019          6.5428 
        1.29471         6.14958         3.56182         6.49413 
        1.30084         6.08681         3.52239         6.45532 
        1.30697         6.08019         3.48351         6.38803 
        1.31312         5.96731         3.44515         6.34275 
        1.31925         5.93283         3.40749         6.30671 
        1.32537         5.88406         3.37044         6.25697 
        1.33151         5.86262         3.33381         6.20362 
        1.33765         5.78969         3.29774         6.14594 
        1.34378         5.74233         3.26228         6.10884 
        1.34992         5.70799         3.22732         6.06121 
        1.35606         5.64956          3.1928         6.00187 
         1.3622         5.61697         3.15884         5.95814 
        1.36833         5.56342         3.12546         5.93801 
        1.37445         5.52464         3.09258         5.88391 
        1.38059         5.50266         3.06008         5.83057 
        1.38675         5.44737         3.02796         5.79288 
        1.39288         5.40952         2.99643         5.75668 
        1.39901         5.34623         2.96537          5.7155 
        1.40515         5.31847         2.93468         5.67089 
         1.4113         5.27589         2.90444         5.62874 
        1.41742         5.23588         2.87474         5.58946 
        1.42355         5.18537          2.8454         5.54446 
         1.4297         5.14741         2.81638         5.51117 
        1.43585         5.12595         2.78778         5.47995 
        1.44198         5.09806         2.75969          5.4274 
        1.44809         5.04219         2.73204         5.40046 
        1.45423         4.99977         2.70466          5.3589 
        1.46036         4.96092         2.67772         5.32216 
        1.46649         4.92501         2.65113         5.29019 
        1.47263         4.88196         2.62488         5.25363 
        1.47877         4.84645           2.599         5.21214 
        1.48491         4.81696         2.57343         5.18087 
        1.49104         4.78326         2.54825         5.14312 
        1.49718         4.74847          2.5234         5.10965 
        1.50333         4.71907         2.49884         5.07892 
        1.50947         4.67655         2.47465         5.04523 
         1.5156         4.64925         2.45083         5.01347 
        1.52172         4.61961         2.42731         4.98199 
        1.52787         4.58926         2.40406         4.93514 
          1.534         4.54868         2.38115         4.90601 
        1.54013          4.5262         2.35855         4.87872 
        1.54627         4.47979         2.33621         4.84818 
        1.55241         4.44977         2.31416         4.81723 
        1.55855         4.43157         2.29242         4.77552 
        1.56467         4.39418         2.27103         4.75633 
         1.5708         4.36832         2.24984         4.73244 
        1.57695         4.32846          2.2289         4.69287 
        1.58308         4.29386         2.20827          4.6668 
        1.58922         4.28094         2.18789         4.64492 
        1.59535         4.25472         2.16777         4.61476 
         1.6015         4.21687         2.14788          4.5801 
        1.60764          4.1859         2.12825          4.5533 
        1.61376         4.16311         2.10892         4.53269 
        1.61989         4.13646         2.08981         4.50393 
        1.62604         4.10364          2.0709         4.47178 
        1.63218         4.09183         2.05223         4.44772 
        1.63831         4.06028         2.03384         4.42512 
        1.64444         4.03327         2.01567         4.39118 
        1.65059         3.98803         1.99767         4.36678 
        1.65673         3.98323         1.97992         4.34135 
        1.66285         3.94023         1.96243         4.31517 
        1.66898          3.9209         1.94514         4.29199 
        1.67512         3.89632         1.92803         4.26681 
        1.68127          3.8708         1.91111         4.24468 
         1.6874         3.85499         1.89444         4.22342 
        1.69353         3.81822         1.87797           4.196 
        1.69967         3.79994         1.86166         4.16545 
        1.70581         3.77751         1.84555         4.14466 
        1.71193         3.75327         1.82969         4.12892 
        1.71806         3.73299         1.81398         4.10191 
        1.72421         3.70608         1.79843         4.07549 
        1.73035         3.69041         1.78308         4.05165 
        1.73649         3.66312         1.76791         4.02897 
        1.74262         3.63472         1.75293         4.00881 
        1.74876         3.62137         1.73811            3.99 
        1.75489         3.60196          1.7235          3.9657 
        1.76101         3.56715         1.70906         3.93641 
        1.76715         3.55537         1.69476         3.91544 
        1.77329         3.53674         1.68061         3.89861 
        1.77943         3.49964         1.66662         3.87893 
        1.78557         3.49061         1.65281         3.85537 
        1.79171           3.468         1.63915         3.83203 
        1.79785         3.44659         1.62564         3.81122 
        1.80399         3.42303         1.61229         3.79314 
        1.81012         3.40639          1.5991         3.77619 
        1.81625         3.38513         1.58607         3.75638 
        1.82239         3.36653         1.57317         3.73625 
        1.82853         3.34329         1.56041         3.72136 
        1.83466         3.33196         1.54781         3.70485 
        1.84078         3.31409         1.53536         3.68241 
        1.84692         3.29792         1.52303         3.65611 
        1.85306         3.26749         1.51082         3.63416 
         1.8592         3.24698         1.49876         3.61932 
        1.86533         3.23063         1.48684         3.60562 
        1.87147         3.21739         1.47504         3.58757 
        1.87761          3.1955         1.46336         3.56817 
