# k  (h/Mpc)    Pcb(k)  (Mpc/h)^3    Pcb_linear(k) (Mpc/h)^3    Pcb_NL(k) (Mpc/h)^3   ShotnoiseSubtracted = false
     0.00783031         1893.16         1912.22         1905.17 
       0.013688         2395.85         2395.01         2384.77 
       0.019231         2459.47         2458.11         2445.59 
      0.0249154         2283.58         2300.38          2291.5 
      0.0312784          2005.4         2009.21         2005.03 
      0.0375637         1717.13         1712.57         1709.96 
      0.0433917         1478.12         1482.03         1480.67 
      0.0492413         1310.29         1308.89          1308.1 
      0.0555754         1173.27         1180.14         1179.04 
      0.0619321          1098.6          1092.3         1090.97 
       0.067871         1022.23         1027.01         1025.05 
      0.0738098         956.247          961.93         958.437 
      0.0800417         876.078         884.695         881.474 
      0.0862327         794.367         798.554         796.966 
      0.0921407          713.24         713.599         712.858 
      0.0982031         629.774             632          633.38 
       0.104506         565.454         560.532         563.607 
       0.110769         511.121         506.548         508.974 
       0.116806         471.446         469.916         472.135 
       0.122832         448.668         444.895         447.218 
       0.129052         425.865         425.946         427.748 
       0.135211         408.186         408.757         410.294 
       0.141259         391.146          389.56         391.342 
       0.147318         369.554         366.383         369.155 
       0.153489         341.022         339.326         341.325 
       0.159709         314.183         310.845           314.1 
       0.165845         291.114         284.329         289.559 
       0.171974         266.365         261.616         266.862 
       0.178125         249.523         243.679         250.049 
       0.184229         237.145         230.564         236.795 
        0.19034         224.129         221.059          226.84 
       0.196428         218.856         213.649           218.3 
       0.202534         213.497         206.687         211.289 
       0.208729         204.017         198.844          203.17 
       0.214876         193.384         189.697         195.179 
       0.220989         185.564         179.378         185.346 
       0.227147         172.905         168.414         174.605 
        0.23329         162.972         157.785         165.009 
       0.239377         154.883         148.322         156.014 
       0.245482         145.292         140.348         147.474 
       0.251667         140.826         133.892         141.488 
       0.257832         135.654         128.827         136.101 
       0.263955           131.1         124.674         131.509 
       0.270079         127.085         120.862         127.418 
        0.27624         124.215         116.932         123.122 
       0.282372         119.642         112.657          119.16 
        0.28843         114.467         108.053         114.705 
       0.294538         109.529         103.176         110.156 
       0.300721         106.008         98.2628         105.728 
        0.30691         100.648         93.6404         101.298 
       0.313033         96.8705         89.5541         97.0368 
       0.319153         92.1031         86.0333         93.7174 
       0.325316         90.5012         83.0142         90.8108 
        0.33145         87.2565         80.4095          87.761 
       0.337538          85.213         78.0512         85.1469 
       0.343633          82.464         75.7576         82.8954 
       0.349808         80.1511         73.3919         80.6902 
       0.355968         77.8724         70.9361         78.6906 
       0.362074         75.2555         68.4357         76.0267 
       0.368217         72.8052         65.9121         73.1496 
       0.374374         70.3239         63.4669         71.0099 
       0.380519         68.3234         61.1822         68.5945 
       0.386598         66.2992         59.1177         66.6009 
       0.392688         64.7926         57.2582         64.7736 
        0.39888         62.8646         55.5458         62.8662 
       0.405048         61.3857         53.9759         61.1575 
       0.411186         59.9422         52.4917         59.9852 
       0.417313         58.0308         51.0374         58.1931 
       0.423458         56.5649         49.5835         56.8421 
       0.429607         54.9804         48.1236         55.2751 
       0.435692         53.2687         46.6844         53.9495 
       0.441815         52.2804         45.2677         52.7995 
       0.447964         51.2728         43.9014         51.2311 
       0.454126         49.1642          42.605         49.8025 
       0.460267          48.253         41.3987         48.7683 
       0.466387         46.8561         40.2792         47.4411 
        0.47254         46.1047         39.2215         46.4511 
       0.478662         45.2537         38.2213         45.3541 
       0.484765         43.9554         37.2613         44.2564 
       0.490885         42.9597          36.321         43.5521 
       0.497035         42.3226         35.3892         42.6861 
       0.503198         41.2003         34.4702         41.5063 
       0.509342         40.1244         33.5742         40.7104 
       0.515458         39.2458         32.7075         40.0546 
       0.521598          38.544         31.8682         38.8614 
       0.527764         37.7129         31.0619         37.8852 
       0.533884          37.026         30.3013         37.1381 
           0.54         36.2136         29.5777         36.3904 
       0.546137         35.6103         28.8818         35.7969 
       0.552299         34.9991         28.2082         34.8873 
       0.558452         33.9242         27.5568         34.1902 
       0.564573         33.4197         26.9265         33.7367 
       0.570708         32.8659         26.3096         33.0679 
       0.576825         32.0278          25.708         32.4147 
       0.582926         31.4265         25.1224         31.8384 
       0.589034         30.5687         24.5532          31.338 
       0.595184         30.1598         23.9995         30.5606 
       0.601379         29.5906         23.4624         30.1718 
       0.607522         29.0238         22.9492         29.4935 
       0.613639          28.726         22.4555         28.9682 
       0.619772         27.9716         21.9766         28.5142 
       0.625918         27.7888         21.5115         28.0496 
       0.632068         27.3232         21.0598         27.4762 
       0.638161         26.7157         20.6246         27.0121 
         0.6443         26.1803         20.1977         26.5043 
       0.650464         25.6939         19.7799         26.1617 
       0.656582         25.5143         19.3757         25.7229 
       0.662703         25.0137          18.982         25.2371 
       0.668861         24.5334         18.5969         24.9215 
       0.675024         24.0832         18.2229         24.3999 
       0.681124         23.6642          17.864         24.0161 
       0.687237         23.2508         17.5153         23.5812 
       0.693381         23.0229          17.175         23.2043 
       0.699536         22.4286         16.8436         22.9035 
       0.705665          22.308         16.5223         22.6296 
       0.711789         21.8183         16.2094         22.1766 
       0.717957         21.5092          15.902         21.8554 
        0.72409         21.1738         15.6037          21.575 
       0.730186         20.8773         15.3147         21.2037 
       0.736317         20.6317         15.0314         20.8801 
       0.742472         20.2701         14.7543         20.6774 
       0.748622         20.0313         14.4847         20.3048 
        0.75476          19.638         14.2227         20.0051 
       0.760888          19.374         13.9678         19.7557 
       0.767043         19.1272         13.7185         19.5107 
       0.773185         18.7569         13.4759         19.2253 
       0.779291         18.6436         13.2407         18.9906 
       0.785407         18.3995         13.0107         18.6963 
       0.791564         18.0522         12.7848         18.4552 
       0.797719         17.6772         12.5642         18.1819 
       0.803834         17.6237         12.3502         17.9099 
       0.809972         17.4446         12.1404         17.7507 
       0.816124          17.019          11.935         17.4616 
       0.822261         16.8581         11.7349         17.2181 
       0.828378         16.6707           11.54         16.9998 
       0.834502         16.4944         11.3494         16.8318 
       0.840667         16.2477         11.1619         16.5722 
       0.846816         15.9476         10.9793         16.3872 
       0.852925         15.7956         10.8019         16.2662 
       0.859047         15.6074         10.6282         15.9993 
       0.865192         15.4476         10.4577         15.7936 
       0.871341         15.3022          10.291         15.6442 
       0.877463         15.0226         10.1286         15.4265 
       0.883569         14.8132          9.9702         15.2567 
       0.889708         14.5791          9.8144         15.0632 
       0.895864         14.4704         9.66154         14.8638 
       0.902008         14.3463         9.51227         14.7221 
       0.908149          14.176         9.36626         14.5496 
       0.914301         14.0434         9.22308         14.4381 
       0.920448         13.7702         9.08305         14.1985 
       0.926574         13.6442         8.94642         14.0474 
       0.932687         13.4913         8.81291         13.8288 
       0.938823         13.3068         8.68166         13.7195 
       0.944975           13.14          8.5528         13.5715 
       0.951105         13.0224         8.42703         13.3692 
       0.957225         12.9072         8.30402         13.3006 
       0.963368         12.7542         8.18307         13.1176 
       0.969511         12.6352         8.06453         12.9934 
       0.975621         12.5013           7.949         12.8291 
       0.981748          12.337         7.83545         12.7124 
       0.987916         12.2344         7.72342         12.5649 
        0.99406          12.061         7.61401         12.4434 
        1.00019         11.8727         7.50696         12.3338 
        1.00632         11.8451         7.40207         12.2003 
        1.01246         11.7118         7.29905         12.1215 
        1.01859         11.5247         7.19816         11.9577 
        1.02471         11.4593         7.09932         11.7951 
        1.03085         11.3408         7.00201         11.7007 
        1.03698         11.1554         6.90673         11.6003 
        1.04314         11.0895         6.81284         11.4642 
        1.04929         10.9383         6.72091          11.369 
        1.05541         10.8121         6.63106         11.2757 
        1.06154         10.7307         6.54264         11.1445 
        1.06769         10.6701         6.45571         11.0383 
        1.07382         10.5161         6.37065         10.9428 
        1.07993          10.427         6.28732         10.8355 
        1.08607         10.3246         6.20515         10.7232 
        1.09222          10.229         6.12437         10.6281 
        1.09836         10.1042         6.04513         10.5044 
        1.10449          10.023         5.96739         10.4117 
        1.11063         9.91189         5.89094         10.3314 
        1.11677         9.85562         5.81586         10.2254 
         1.1229         9.77765         5.74223          10.147 
        1.12903         9.65504         5.66981          10.084 
        1.13518         9.53728         5.59859         9.97746 
        1.14131         9.46255         5.52863         9.87213 
        1.14745         9.37203         5.45991         9.76734 
        1.15359         9.30675         5.39235         9.69422 
        1.15973         9.21903         5.32591         9.60678 
        1.16584         9.07773         5.26089         9.55317 
        1.17197         9.02435         5.19687         9.46687 
        1.17811         8.96903         5.13372         9.35846 
        1.18424         8.88073         5.07181         9.29204 
        1.19038         8.83391         5.01075         9.20762 
        1.19652         8.73134         4.95072         9.13176 
        1.20267         8.63188         4.89168          9.0444 
        1.20881         8.60532         4.83361          8.9987 
        1.21495         8.52849         4.77659         8.91271 
        1.22108         8.41843         4.72049         8.84354 
         1.2272         8.35958         4.66544         8.74831 
        1.23334         8.26449         4.61114          8.6953 
        1.23949         8.19538         4.55758         8.62977 
        1.24562         8.15066         4.50502         8.54575 
        1.25174         8.08409         4.45337         8.48332 
        1.25789         8.01752         4.40238         8.41025 
        1.26402         7.97439         4.35228         8.33342 
        1.27014         7.89734         4.30308          8.2795 
        1.27628         7.79726         4.25451         8.21464 
        1.28244         7.72431         4.20659         8.16124 
        1.28858         7.71533         4.15948          8.0885 
        1.29471         7.62346         4.11319         8.03134 
        1.30084         7.54608         4.06766         7.98885 
        1.30697          7.5336         4.02275         7.90608 
        1.31312         7.40688         3.97846         7.85179 
        1.31925         7.36021         3.93497          7.8111 
        1.32537         7.30897         3.89218         7.75205 
        1.33151          7.2761         3.84988         7.68583 
        1.33765         7.19663         3.80823         7.61689 
        1.34378         7.13625         3.76728         7.57201 
        1.34992         7.08864         3.72691         7.51802 
        1.35606         7.03165         3.68704         7.44892 
         1.3622          6.9885         3.64783         7.39407 
        1.36833         6.92045         3.60928          7.3712 
        1.37445         6.87734         3.57131         7.30464 
        1.38059         6.84825         3.53378         7.23968 
        1.38675         6.77803         3.49669         7.20212 
        1.39288          6.7388         3.46028          7.1528 
        1.39901         6.66169         3.42441         7.10411 
        1.40515         6.63117         3.38897         7.05233 
         1.4113         6.57946         3.35404         7.00124 
        1.41742         6.52965         3.31975         6.95423 
        1.42355         6.46979         3.28586         6.90289 
         1.4297         6.42579         3.25235         6.86062 
        1.43585         6.39926         3.21933         6.82292 
        1.44198         6.36534         3.18689         6.76159 
        1.44809         6.30087         3.15495         6.72807 
        1.45423         6.24783         3.12334         6.68115 
        1.46036         6.20404         3.09222         6.63586 
        1.46649         6.16341         3.06152         6.59643 
        1.47263         6.10737         3.03121         6.55495 
        1.47877         6.06731         3.00132         6.50608 
        1.48491         6.03137         2.97179         6.46492 
        1.49104         5.98904         2.94272         6.42449 
        1.49718          5.9507         2.91402         6.38311 
        1.50333         5.91247         2.88566         6.34458 
        1.50947         5.86178         2.85773         6.30628 
         1.5156         5.83043         2.83021         6.26804 
        1.52172         5.79507         2.80306          6.2269 
        1.52787         5.75448         2.77621         6.17318 
          1.534         5.70889         2.74975         6.13893 
        1.54013         5.68031         2.72366         6.10423 
        1.54627         5.62524         2.69786         6.06807 
        1.55241         5.59171         2.67239         6.03335 
        1.55855         5.56871         2.64729         5.98506 
        1.56467         5.52075         2.62258         5.95888 
         1.5708         5.49587         2.59812          5.9322 
        1.57695         5.44423         2.57393         5.88646 
        1.58308         5.40326         2.55011         5.85239 
        1.58922         5.38724         2.52657         5.82745 
        1.59535         5.35832         2.50334         5.79041 
         1.6015         5.30929         2.48037         5.74817 
        1.60764         5.26929          2.4577         5.71559 
        1.61376         5.24663         2.43538         5.69058 
        1.61989         5.21354         2.41331          5.6584 
        1.62604         5.17384         2.39147         5.61965 
        1.63218         5.15933         2.36992         5.58953 
        1.63831         5.12348         2.34868         5.56295 
        1.64444         5.09101         2.32769          5.5226 
        1.65059         5.03253         2.30691         5.49166 
        1.65673         5.02936         2.28641         5.46231 
        1.66285         4.97494         2.26621         5.43255 
        1.66898         4.95138         2.24625         5.40393 
        1.67512         4.92705         2.22649         5.37383 
        1.68127         4.89249         2.20695         5.34403 
         1.6874         4.87257         2.18769         5.31685 
        1.69353         4.83183         2.16868         5.28938 
        1.69967         4.80716         2.14984         5.25227 
        1.70581         4.77947         2.13123         5.22479 
        1.71193         4.74855         2.11292         5.20582 
        1.71806         4.72723         2.09478         5.17549 
        1.72421           4.692         2.07683          5.1448 
        1.73035         4.67612          2.0591         5.11487 
        1.73649         4.64402         2.04158         5.08603 
        1.74262         4.60749         2.02428         5.06298 
        1.74876         4.59026         2.00717         5.03898 
        1.75489          4.5694          1.9903         5.00838 
        1.76101         4.52647         1.97362         4.97511 
        1.76715         4.51181         1.95711         4.95207 
        1.77329         4.48637         1.94077          4.9305 
        1.77943         4.44531         1.92461         4.90481 
        1.78557         4.43493         1.90866         4.87702 
        1.79171         4.40566         1.89289         4.84892 
        1.79785         4.38006         1.87729         4.82331 
        1.80399         4.34925         1.86187         4.80203 
        1.81012         4.33079         1.84664         4.78277 
        1.81625          4.3037          1.8316         4.75982 
        1.82239         4.28448         1.81669         4.73495 
        1.82853         4.25549         1.80196         4.71467 
        1.83466         4.23839         1.78741         4.69462 
        1.84078         4.21757         1.77304         4.66918 
        1.84692         4.20097         1.75879         4.63705 
        1.85306         4.16306         1.74469         4.61087 
         1.8592         4.13775         1.73077         4.59384 
        1.86533         4.11791           1.717         4.57598 
        1.87147         4.10071         1.70337         4.55162 
