# k  (h/Mpc)    Pcb(k)  (Mpc/h)^3    Pcb_linear(k) (Mpc/h)^3    Pcb_NL(k) (Mpc/h)^3   ShotnoiseSubtracted = false
     0.00783031          1219.3         1231.09          1226.5 
       0.013688         1540.89         1542.08         1535.64 
       0.019231         1583.06         1582.77         1575.01 
      0.0249154         1472.15         1481.24         1475.97 
      0.0312784         1292.02         1293.77          1291.7 
      0.0375637         1105.55         1102.78          1101.7 
      0.0433917         952.825         954.329         954.112 
      0.0492413         843.964         842.839         842.934 
      0.0555754         756.854         759.933         759.731 
      0.0619321         706.904         703.374         702.983 
       0.067871         659.111          661.33         660.482 
      0.0738098         616.615         619.426         617.833 
      0.0800417         565.375         569.692         568.215 
      0.0862327          512.17         514.222         513.483 
      0.0921407         459.312         459.517          459.24 
      0.0982031         405.756         406.972         407.657 
       0.104506         363.339          360.95         362.393 
       0.110769          328.34         326.188         327.363 
       0.116806         303.001         302.599         303.628 
       0.122832         288.134         286.487         287.522 
       0.129052         273.982         274.285         275.046 
       0.135211         262.578         263.217          263.83 
       0.141259          251.33         250.855         251.556 
       0.147318         237.297          235.93         237.065 
       0.153489         219.117         218.507         219.343 
       0.159709         201.463         200.167         201.561 
       0.165845         186.189         183.092         185.347 
       0.171974          170.29         168.466         170.726 
       0.178125         159.305         156.916         159.646 
       0.184229          151.27          148.47         151.139 
        0.19034         143.372          142.35          144.81 
       0.196428          139.64         137.578         139.531 
       0.202534         136.095         133.095         135.016 
       0.208729         130.145         128.045         129.859 
       0.214876         123.452         122.155         124.467 
       0.220989         118.182          115.51         118.035 
       0.227147         110.097         108.449         111.067 
        0.23329         103.566         101.605         104.672 
       0.239377         98.0793         95.5114         98.7917 
       0.245482         92.2403         90.3761         93.4056 
       0.251667         89.0682         86.2193         89.4476 
       0.257832         85.6862         82.9575         86.0443 
       0.263955         82.8581          80.283         83.1681 
       0.270079         80.3432         77.8287         80.5828 
        0.27624         78.3535         75.2975         77.8902 
       0.282372         75.4766          72.545         75.2897 
        0.28843         72.1487         69.5803         72.3988 
       0.294538         69.0172         66.4394         69.3903 
       0.300721          66.514         63.2758         66.4351 
        0.30691         63.1433         60.2993         63.5378 
       0.313033          60.637         57.6679         60.8332 
       0.319153         57.6569         55.4007         58.6616 
       0.325316         56.6119         53.4566         56.7631 
        0.33145         54.6062         51.7793         54.8934 
       0.337538         53.1796         50.2607         53.2587 
       0.343633         51.4617         48.7838          51.771 
       0.349808         50.0234         47.2604         50.3249 
       0.355968         48.5092          45.679         48.9798 
       0.362074         46.8293         44.0689          47.274 
       0.368217         45.2456         42.4438         45.4763 
       0.374374          43.588         40.8692         44.0587 
       0.380519         42.3073          39.398         42.5174 
       0.386598         41.0224         38.0686         41.2311 
       0.392688         40.0133         36.8712         40.0365 
        0.39888         38.7754         35.7685          38.865 
       0.405048         37.8309         34.7575         37.7456 
       0.411186         36.9009         33.8018         36.9655 
       0.417313          35.699         32.8653         35.8877 
       0.423458         34.7825          31.929         34.9966 
       0.429607         33.7572          30.989         33.9905 
       0.435692         32.7417         30.0622         33.1285 
       0.441815          31.986         29.1499         32.3379 
       0.447964         31.3273         28.2701         31.3632 
       0.454126         30.1088         27.4353         30.4797 
       0.460267          29.459         26.6585         29.7747 
       0.466387         28.5486         25.9376         28.9465 
        0.47254         28.0491         25.2565         28.2935 
       0.478662          27.485         24.6124         27.5986 
       0.484765         26.6901         23.9943         26.9387 
       0.490885         26.0568         23.3888         26.4592 
       0.497035         25.6544         22.7887         25.8863 
       0.503198         24.9618         22.1969         25.1439 
       0.509342         24.3224           21.62         24.6171 
       0.515458         23.7168         21.0619         24.1607 
       0.521598         23.2422         20.5214         23.4459 
       0.527764          22.687         20.0022         22.8676 
       0.533884          22.267         19.5124         22.3772 
           0.54         21.7573         19.0464         21.8878 
       0.546137         21.3479         18.5983         21.4907 
       0.552299         20.9394         18.1646         20.9317 
       0.558452         20.2946         17.7451         20.5078 
       0.564573         20.0018         17.3392         20.2074 
       0.570708         19.6133         16.9419         19.7757 
       0.576825         19.0867         16.5545         19.3574 
       0.582926          18.742         16.1775         18.9977 
       0.589034         18.1959         15.8109         18.6698 
       0.595184         17.9234         15.4544         18.1652 
       0.601379         17.5416         15.1085         17.9258 
       0.607522         17.2479          14.778         17.5286 
       0.613639         17.0174         14.4601         17.1825 
       0.619772         16.5584         14.1518         16.9085 
       0.625918         16.4101         13.8522         16.5735 
       0.632068         16.1306         13.5613         16.2344 
       0.638161         15.7304         13.2811         15.9391 
         0.6443         15.4049         13.0062         15.6265 
       0.650464         15.0877         12.7372         15.4152 
       0.656582         14.9626         12.4769         15.1262 
       0.662703         14.6706         12.2233         14.8354 
       0.668861         14.3813         11.9754         14.6274 
       0.675024         14.0883         11.7345         14.3143 
       0.681124         13.8404         11.5035         14.0692 
       0.687237         13.6065         11.2789         13.7879 
       0.693381         13.4251         11.0598         13.5496 
       0.699536         13.0596         10.8463          13.342 
       0.705665         12.9229         10.6395          13.191 
       0.711789         12.6796          10.438         12.9314 
       0.717957          12.467           10.24         12.6982 
        0.72409         12.2507          10.048         12.5211 
       0.730186         12.0856         9.86186         12.2905 
       0.736317         11.9336         9.67941         12.0881 
       0.742472         11.7319         9.50096         11.9675 
       0.748622         11.5442         9.32732         11.7512 
        0.75476          11.289         9.15862         11.5445 
       0.760888         11.1483         8.99453         11.3863 
       0.767043         11.0011         8.83396         11.2345 
       0.773185         10.7681         8.67775         11.0681 
       0.779291         10.6788         8.52627         10.9105 
       0.785407         10.5113          8.3782         10.7287 
       0.791564         10.3259          8.2327         10.5791 
       0.797719         10.1332         8.09068         10.3957 
       0.803834          10.063         7.95288         10.2435 
       0.809972         9.94684         7.81777         10.1493 
       0.816124         9.71455         7.68549         9.96474 
       0.822261          9.5765         7.55663         9.81936 
       0.828378         9.46274         7.43112          9.6874 
       0.834502          9.3642         7.30839         9.55769 
       0.840667         9.19251         7.18767         9.41564 
       0.846816         9.02576         7.07005          9.3044 
       0.852925         8.93919         6.95585         9.19943 
       0.859047         8.81602         6.84397         9.06752 
       0.865192         8.72698         6.73421         8.93751 
       0.871341         8.62287         6.62682         8.83582 
       0.877463          8.4758         6.52227         8.69864 
       0.883569         8.33409         6.42027         8.59668 
       0.889708         8.19229         6.31994          8.4852 
       0.895864         8.12033         6.22151         8.36195 
       0.902008         8.02827         6.12538         8.27146 
       0.908149         7.93138         6.03136         8.15833 
       0.914301         7.81378         5.93916         8.07816 
       0.920448         7.68628         5.84899          7.9414 
       0.926574         7.59122         5.76101         7.86201 
       0.932687         7.51252         5.67504         7.71607 
       0.938823         7.40488         5.59052          7.6629 
       0.944975          7.3017         5.50754         7.55892 
       0.951105         7.22725         5.42655          7.4499 
       0.957225         7.18128         5.34734         7.39772 
       0.963368         7.07187         5.26945         7.29083 
       0.969511         6.98671         5.19312         7.21433 
       0.975621         6.89446         5.11872         7.10294 
       0.981748         6.81424          5.0456         7.02538 
       0.987916         6.74054         4.97346         6.95705 
        0.99406         6.63011         4.90301         6.87995 
        1.00019         6.52843         4.83407         6.81506 
        1.00632         6.49733         4.76653         6.72522 
        1.01246         6.41912         4.70019         6.66523 
        1.01859          6.3238         4.63522         6.56985 
        1.02471          6.2635         4.57158         6.47443 
        1.03085         6.19085         4.50891         6.41319 
        1.03698          6.0986         4.44756         6.35503 
        1.04314         6.04814         4.38709         6.27755 
        1.04929         5.96585          4.3279         6.21405 
        1.05541         5.89233         4.27004         6.15484 
        1.06154         5.83919          4.2131         6.08579 
        1.06769         5.80292         4.15712         6.02838 
        1.07382         5.70576         4.10235         5.96107 
        1.07993         5.63964         4.04869         5.89258 
        1.08607         5.60001         3.99578         5.82868 
        1.09222          5.5332         3.94376         5.76332 
        1.09836         5.47234         3.89273         5.69583 
        1.10449         5.41287         3.84267         5.64414 
        1.11063         5.35232         3.79344         5.58456 
        1.11677          5.3073          3.7451         5.53263 
         1.1229         5.25151         3.69768         5.48316 
        1.12903         5.18848         3.65105         5.43642 
        1.13518         5.13127         3.60518         5.37883 
        1.14131         5.06433         3.56014          5.3105 
        1.14745          5.0029         3.51588         5.24891 
        1.15359         4.97346         3.47238         5.21306 
        1.15973          4.9138          3.4296          5.1583 
        1.16584         4.85498         3.38773         5.11998 
        1.17197         4.81083          3.3465         5.06218 
        1.17811         4.77497         3.30584         5.00828 
        1.18424         4.72948         3.26597         4.96005 
        1.19038          4.6922         3.22665         4.91373 
        1.19652         4.63883         3.18799         4.87723 
        1.20267          4.5837         3.14997         4.81434 
        1.20881         4.55065         3.11258         4.78103 
        1.21495         4.50916         3.07586         4.74009 
        1.22108         4.45529         3.03974         4.69591 
         1.2272         4.42484         3.00429         4.63942 
        1.23334           4.362         2.96932         4.60654 
        1.23949         4.32151         2.93483         4.57538 
        1.24562          4.2952         2.90099         4.52938 
        1.25174         4.24238         2.86773          4.4793 
        1.25789         4.21049         2.83489         4.43859 
        1.26402         4.17238         2.80263         4.39224 
        1.27014         4.13063         2.77095         4.36463 
        1.27628         4.09372         2.73967         4.33108 
        1.28244         4.04031         2.70881         4.28805 
        1.28858         4.02534         2.67848         4.24878 
        1.29471         3.97561         2.64867         4.21213 
        1.30084         3.93477         2.61935         4.18451 
        1.30697         3.92738         2.59043         4.14148 
        1.31312         3.84882         2.56191         4.10696 
        1.31925         3.82985         2.53391         4.08076 
        1.32537         3.79255         2.50635         4.04584 
        1.33151         3.77751         2.47911         4.01015 
        1.33765          3.7237         2.45229         3.97226 
        1.34378         3.69464         2.42593         3.94588 
        1.34992         3.67499         2.39993         3.91047 
        1.35606         3.62351         2.37426         3.86799 
         1.3622         3.60568           2.349         3.83969 
        1.36833         3.57078         2.32418         3.82354 
        1.37445         3.54036         2.29973         3.78803 
        1.38059         3.52413         2.27556         3.75327 
        1.38675         3.49227         2.25168         3.71856 
        1.39288         3.45735         2.22823         3.69837 
        1.39901         3.41851         2.20513         3.66918 
        1.40515         3.39523         2.18231         3.63673 
         1.4113         3.36796         2.15982         3.61013 
        1.41742         3.34214         2.13774         3.58446 
        1.42355         3.31116         2.11592         3.54599 
         1.4297         3.28009         2.09434         3.52972 
        1.43585         3.26547         2.07307         3.50796 
        1.44198         3.24263         2.05218         3.46881 
        1.44809         3.20407         2.03162         3.45095 
        1.45423          3.1773         2.01126         3.41815 
        1.46036         3.14908         1.99122          3.3934 
        1.46649         3.12375         1.97145         3.37319 
        1.47263         3.09643         1.95193         3.34711 
        1.47877         3.06869         1.93269         3.31764 
        1.48491         3.04872         1.91367         3.29713 
        1.49104         3.02864         1.89495         3.26824 
        1.49718         3.00227         1.87647         3.24658 
        1.50333         2.98197         1.85821         3.22582 
        1.50947         2.95505         1.84022         3.20072 
         1.5156         2.93363          1.8225         3.17909 
        1.52172         2.91288         1.80502          3.1602 
        1.52787         2.89201         1.78773         3.12731 
          1.534          2.8652         1.77069         3.10625 
        1.54013         2.84731         1.75389         3.08663 
        1.54627         2.81716         1.73727         3.06385 
        1.55241         2.79577         1.72087         3.04234 
        1.55855         2.78285         1.70471         3.01583 
        1.56467         2.76038          1.6888         3.00168 
         1.5708         2.73528         1.67305         2.98108 
        1.57695         2.71438         1.65747         2.95642 
        1.58308           2.691         1.64213          2.9414 
        1.58922         2.67942         1.62697         2.92247 
        1.59535         2.65876         1.61202         2.90248 
         1.6015         2.63794         1.59722          2.8802 
        1.60764         2.61955         1.58263         2.86208 
        1.61376         2.60164         1.56825         2.84759 
        1.61989         2.58004         1.55404         2.82579 
        1.62604         2.55977         1.53998         2.80557 
        1.63218         2.55059          1.5261         2.78924 
        1.63831         2.52564         1.51242         2.77146 
        1.64444         2.50645         1.49891         2.74982 
        1.65059         2.48678         1.48552         2.73286 
        1.65673         2.47487         1.47232         2.71547 
        1.66285          2.4497         1.45931         2.69672 
        1.66898         2.43697         1.44646         2.67865 
        1.67512         2.41493         1.43374         2.66244 
        1.68127          2.4007         1.42116         2.64969 
         1.6874         2.39101         1.40876         2.63539 
        1.69353         2.36142         1.39651         2.61401 
        1.69967         2.34977         1.38438         2.59372 
        1.70581         2.33916          1.3724         2.58109 
        1.71193         2.32022         1.36061         2.56981 
        1.71806         2.30662         1.34893         2.54866 
        1.72421         2.29034         1.33736         2.53085 
        1.73035         2.27513         1.32595         2.51654 
        1.73649         2.25722         1.31467         2.50168 
        1.74262         2.24104         1.30353         2.48604 
        1.74876         2.23157         1.29251         2.47378 
        1.75489          2.2132         1.28164         2.45844 
        1.76101          2.1943          1.2709         2.43778 
        1.76715         2.18411         1.26027         2.42261 
        1.77329         2.17205         1.24975         2.41065 
        1.77943         2.14918         1.23935         2.39718 
        1.78557         2.14032         1.22907         2.38169 
        1.79171         2.12906         1.21892         2.36708 
        1.79785         2.10987         1.20887         2.35345 
        1.80399         2.09778         1.19894         2.33966 
        1.81012         2.08677         1.18914         2.32644 
        1.81625         2.07117         1.17945         2.31244 
        1.82239         2.05628         1.16985         2.29956 
        1.82853          2.0399         1.16037         2.29086 
        1.83466         2.03389           1.151         2.27963 
        1.84078          2.0203         1.14174         2.26381 
        1.84692         2.00823         1.13257         2.24732 
        1.85306         1.99012         1.12349         2.23252 
         1.8592         1.97767         1.11452         2.22103 
        1.86533          1.9655         1.10566         2.21145 
        1.87147         1.95718         1.09688         2.19994 
