# k  (h/Mpc)    Pcb(k)  (Mpc/h)^3    Pcb_linear(k) (Mpc/h)^3    Pcb_NL(k) (Mpc/h)^3   ShotnoiseSubtracted = false
     0.00783031         7537.93         7630.53         7601.57 
       0.013688         9606.14         9553.21         9503.65 
       0.019231         9818.82         9803.28         9738.17 
      0.0249154         9040.61         9173.36         9113.88 
      0.0312784         7959.22         8011.75         7961.42 
      0.0375637         6838.84         6828.67         6785.95 
      0.0433917         5847.89         5909.27         5868.05 
      0.0492413         5205.64         5218.81          5182.2 
      0.0555754         4620.47         4705.38         4672.23 
      0.0619321         4379.44         4355.12         4322.11 
       0.067871         4030.39         4094.76         4062.07 
      0.0738098         3769.86         3835.27         3783.39 
      0.0800417         3437.82         3527.32         3479.38 
      0.0862327         3131.98         3183.85         3157.94 
      0.0921407         2834.23         2845.13         2826.57 
      0.0982031            2501         2519.78         2529.07 
       0.104506         2278.11         2234.83         2266.88 
       0.110769         2063.97          2019.6         2043.13 
       0.116806         1907.59         1873.54         1896.53 
       0.122832         1816.41         1773.78         1799.32 
       0.129052         1707.66         1698.23         1718.96 
       0.135211          1638.3          1629.7         1646.95 
       0.141259         1578.03         1553.16         1575.32 
       0.147318         1494.46         1460.75         1494.23 
       0.153489         1375.36         1352.87         1376.14 
       0.159709         1283.85         1239.32         1279.16 
       0.165845         1206.22          1133.6         1198.46 
       0.171974         1114.82         1043.05         1110.39 
       0.178125         1049.97         971.534         1054.29 
       0.184229         1000.96         919.244         998.457 
        0.19034         938.474         881.348         956.144 
       0.196428         924.879         851.806         915.145 
       0.202534         900.876         824.045         887.171 
       0.208729         860.531         792.778         849.486 
       0.214876         817.723         756.311         826.622 
       0.220989          790.08         715.169         792.558 
       0.227147         744.373         671.455         753.986 
        0.23329         708.909         629.077         723.535 
       0.239377          686.71          591.35         689.649 
       0.245482          638.92         559.555          652.89 
       0.251667         629.737         533.819         632.465 
       0.257832         607.436         513.623          608.45 
       0.263955         587.798         497.064         588.008 
       0.270079         568.049         481.869         570.684 
        0.27624         561.133         466.197         551.957 
       0.282372         538.731         449.155         536.928 
        0.28843         523.225         430.799         520.021 
       0.294538         498.241         411.353         504.891 
       0.300721          492.88         391.766         489.692 
        0.30691         469.016         373.337         475.393 
       0.313033         457.977         357.045         457.101 
       0.319153         441.656         343.008         443.583 
       0.325316         429.498         330.971         432.809 
        0.33145         416.566         320.586         416.944 
       0.337538         410.736         311.184         406.302 
       0.343633         397.636         302.039         400.671 
       0.349808          385.11         292.607         392.387 
       0.355968         380.102         282.816         384.464 
       0.362074         371.348         272.848         374.529 
       0.368217         361.024         262.786           362.4 
       0.374374         347.422         253.037         353.812 
       0.380519         342.666         243.928         344.347 
       0.386598         334.006         235.697         337.805 
       0.392688         330.416         228.284         328.846 
        0.39888           321.4         221.457         321.275 
       0.405048         314.234         215.197         316.742 
       0.411186         307.575          209.28         308.583 
       0.417313         301.941         203.482         300.846 
       0.423458         295.882         197.685         295.662 
       0.429607         289.273         191.865         289.986 
       0.435692         281.626         186.127          283.85 
       0.441815         279.307         180.479          280.76 
       0.447964         273.663         175.031         274.679 
       0.454126         263.433         169.862         267.036 
       0.460267         260.159         165.053         264.549 
       0.466387         257.106          160.59         258.922 
        0.47254           251.4         156.373         254.554 
       0.478662         249.931         152.385         249.661 
       0.484765         242.367         148.558         243.784 
       0.490885         239.072         144.809         240.794 
       0.497035         235.299         141.094         237.696 
       0.503198         229.753          137.43         233.823 
       0.509342         227.176         133.858         230.663 
       0.515458         224.134         130.402         228.232 
       0.521598         220.337         127.056         223.155 
       0.527764         216.877         123.841         219.374 
       0.533884         213.889         120.809         216.449 
           0.54         210.678         117.924         213.071 
       0.546137         209.193         115.149         210.665 
       0.552299         205.223         112.464         206.581 
       0.558452         202.365         109.867         203.691 
       0.564573         198.997         107.354         201.852 
       0.570708         195.543         104.894         199.155 
       0.576825          192.98         102.495         195.315 
       0.582926         190.139         100.161         192.871 
       0.589034         187.652         97.8914         190.995 
       0.595184         185.492         95.6841         187.501 
       0.601379         183.613         93.5426         186.318 
       0.607522          179.63         91.4962         183.175 
       0.613639         178.759         89.5282         181.338 
       0.619772         174.866         87.6189         178.807 
       0.625918         173.219         85.7645         176.898 
       0.632068         171.118         83.9634         174.049 
       0.638161         169.835         82.2286         173.098 
         0.6443         167.365         80.5265          170.74 
       0.650464         165.493         78.8609         167.502 
       0.656582         163.703         77.2492         166.362 
       0.662703         161.538         75.6793          164.29 
       0.668861         159.154         74.1442         162.555 
       0.675024         157.232          72.653         160.388 
       0.681124         156.338         71.2222         158.829 
       0.687237         153.602         69.8319         156.887 
       0.693381         151.519         68.4752         155.003 
       0.699536         150.375         67.1538         153.707 
       0.705665         150.297         65.8731         152.832 
       0.711789         146.814         64.6255         150.294 
       0.717957         146.297         63.3997         148.886 
        0.72409         144.233         62.2107         148.164 
       0.730186         141.934         61.0585         146.603 
       0.736317         141.202         59.9289         144.589 
       0.742472         140.117          58.824           143.3 
       0.748622         138.867          57.749         141.616 
        0.75476          137.55         56.7045         140.217 
       0.760888         135.568         55.6885         138.442 
       0.767043         134.754         54.6944          137.76 
       0.773185         133.284         53.7272         136.922 
       0.779291         131.439         52.7893         135.378 
       0.785407         130.741         51.8726         133.664 
       0.791564         129.327         50.9718         132.775 
       0.797719         127.499         50.0925         131.955 
       0.803834         126.881         49.2393         130.175 
       0.809972         125.186         48.4027         129.144 
       0.816124         124.922         47.5838         128.362 
       0.822261         123.484         46.7859         127.009 
       0.828378         122.279         46.0089          125.39 
       0.834502         121.838          45.249         124.792 
       0.840667         120.068         44.5016         124.185 
       0.846816         118.914         43.7734         122.834 
       0.852925         118.051         43.0663         121.711 
       0.859047         116.568         42.3736         120.645 
       0.865192         115.945          41.694         119.904 
       0.871341         114.852         41.0291         118.629 
       0.877463          113.69         40.3818         117.951 
       0.883569         112.898         39.7503         117.138 
       0.889708         112.078         39.1291         116.169 
       0.895864         110.995         38.5197         115.487 
       0.902008         110.204         37.9246         114.223 
       0.908149         109.533         37.3424         113.318 
       0.914301         108.307         36.7716          112.67 
       0.920448         107.597         36.2133         111.911 
       0.926574         106.817         35.6686         110.617 
       0.932687         106.362         35.1363         109.861 
       0.938823         104.726          34.613         109.159 
       0.944975         103.935         34.0992         108.351 
       0.951105         103.278         33.5978         107.539 
       0.957225         102.046         33.1074         106.912 
       0.963368         101.511         32.6251         105.685 
       0.969511         101.126         32.1526         105.112 
       0.975621          100.57         31.6919          105.28 
       0.981748         99.7124         31.2392         104.079 
       0.987916         98.6224         30.7926         103.534 
        0.99406         98.0527         30.3564         102.567 
        1.00019         97.2764         29.9295         101.702 
        1.00632         96.6785         29.5114         101.131 
        1.01246         95.8645         29.1006         100.268 
        1.01859         94.6479         28.6984         99.8662 
        1.02471         94.7124         28.3043         99.4797 
        1.03085         93.7338         27.9164         98.5933 
        1.03698         93.0822         27.5365         97.7794 
        1.04314         92.2071         27.1621         97.2564 
        1.04929         91.6697         26.7957         96.8458 
        1.05541         90.9456         26.4374         96.3493 
        1.06154          90.518         26.0849         95.7517 
        1.06769         90.0319         25.7383         95.1533 
        1.07382         89.5967         25.3992         94.5074 
        1.07993         88.9076          25.067         93.9184 
        1.08607         88.1504         24.7393         93.3274 
        1.09222         87.7121         24.4173         92.5456 
        1.09836           87.01         24.1014         91.9622 
        1.10449         86.4651         23.7914          91.511 
        1.11063         85.8463         23.4866         90.6942 
        1.11677         85.3666         23.1873         90.1834 
         1.1229         84.5361         22.8937         90.0181 
        1.12903         83.7015          22.605         89.2854 
        1.13518         83.9246          22.321         88.7566 
        1.14131         83.2049         22.0421         88.2267 
        1.14745         82.3196         21.7682         87.7859 
        1.15359         81.9629         21.4988         87.2335 
        1.15973         81.5157         21.2339         86.9445 
        1.16584         80.9062         20.9747         86.1617 
        1.17197         80.3844         20.7194         85.8462 
        1.17811         79.8728         20.4677         85.2602 
        1.18424         79.2855         20.2208         84.8832 
        1.19038         78.8536         19.9774         84.3961 
        1.19652          78.481         19.7381         83.7967 
        1.20267         77.7756         19.5027         83.4279 
        1.20881         77.3432         19.2712         82.9312 
        1.21495         76.7649         19.0438         82.3934 
        1.22108         76.3328         18.8202         82.1581 
         1.2272          75.697         18.6007         81.6278 
        1.23334         75.3901         18.3842          81.231 
        1.23949          74.946         18.1706         80.6043 
        1.24562          74.548         17.9611         80.2647 
        1.25174         74.0943         17.7552         79.9419 
        1.25789         73.7185         17.5519         79.4187 
        1.26402         73.3084         17.3521         79.0329 
        1.27014         72.5568          17.156         78.8348 
        1.27628         72.3603         16.9623         78.3683 
        1.28244         71.6887         16.7713         77.6678 
        1.28858          71.384         16.5834         77.3312 
        1.29471         71.0987         16.3989         77.1272 
        1.30084         70.5756         16.2174         76.4259 
        1.30697         70.1138         16.0383         76.1196 
        1.31312         69.7369         15.8617         75.9367 
        1.31925          69.438         15.6884         75.4367 
        1.32537         69.0784         15.5178         75.0457 
        1.33151         68.3848         15.3491         74.6535 
        1.33765         68.0829         15.1831          74.305 
        1.34378          67.672         15.0198          73.912 
        1.34992         67.3682         14.8588         73.6047 
        1.35606         66.9794         14.6999         73.2336 
         1.3622         66.3655         14.5436          72.849 
        1.36833          66.236         14.3899         72.3988 
        1.37445         65.8063         14.2385         72.0919 
        1.38059         65.2962         14.0888          71.976 
        1.38675         64.9608          13.941         71.3481 
        1.39288         64.5626         13.7958         71.1849 
        1.39901         64.3744         13.6528         70.8143 
        1.40515         63.9956         13.5115         70.5575 
         1.4113         63.5961         13.3723         70.2824 
        1.41742         63.3992         13.2355         69.7491 
        1.42355         62.8294         13.1004          69.355 
         1.4297         62.5277         12.9668         69.0692 
        1.43585         62.1111         12.8352         68.8398 
        1.44198         61.8521         12.7058         68.6127 
        1.44809         61.5282         12.5785          68.017 
        1.45423         61.2044         12.4525         67.7938 
        1.46036          60.902         12.3284         67.5777 
        1.46649         60.5292          12.206         67.3306 
        1.47263         60.1276         12.0851         67.0316 
        1.47877         59.9471          11.966         66.5467 
        1.48491         59.6549         11.8482         66.3232 
        1.49104         59.2183         11.7323         65.9312 
        1.49718         58.7652         11.6179         65.6846 
        1.50333         58.5448         11.5048         65.3588 
        1.50947         58.2244         11.3935         65.0532 
         1.5156         57.9408         11.2838         64.8324 
        1.52172         57.6524         11.1755          64.585 
        1.52787         57.4906         11.0685         64.2944 
          1.534         57.0931          10.963         64.0074 
        1.54013         56.7474          10.859         63.6944 
        1.54627         56.5232         10.7561         63.4062 
        1.55241         56.0959         10.6546         63.1216 
        1.55855         55.7767         10.5545          62.765 
        1.56467         55.3449          10.456         62.5106 
         1.5708         55.3126         10.3584         62.3588 
        1.57695         55.0338          10.262         62.1587 
        1.58308         54.6411          10.167         61.8525 
        1.58922         54.5607         10.0732         61.5104 
        1.59535         54.2965         9.98058         61.2389 
         1.6015         53.7664         9.88901         60.9383 
        1.60764         53.6202         9.79862         60.7325 
        1.61376         53.2749         9.70962         60.5977 
        1.61989         52.9265         9.62165         60.2293 
        1.62604          52.807         9.53458         59.8785 
        1.63218         52.6249         9.44864         59.6397 
        1.63831         52.2773         9.36396         59.4524 
        1.64444         51.9758         9.28028         59.1936 
        1.65059         51.5752         9.19743         58.8855 
        1.65673          51.399         9.11568         58.6594 
        1.66285         51.1334         9.03516         58.4714 
        1.66898         50.8866         8.95558         58.2571 
        1.67512         50.5726         8.87681         58.0643 
        1.68127         50.2655         8.79891         57.7146 
         1.6874         50.1362         8.72212         57.3641 
        1.69353         49.7897          8.6463         57.2489 
        1.69967         49.5819          8.5712          57.076 
        1.70581         49.4671         8.49703         56.8797 
        1.71193         49.1687         8.42402         56.6446 
        1.71806          48.713         8.35171         56.2858 
        1.72421         48.6113          8.2801         56.0267 
        1.73035         48.3168         8.20943         55.9342 
        1.73649         47.9444         8.13959         55.8092 
        1.74262         47.8939         8.07062         55.3715 
        1.74876         47.6853          8.0024         55.1024 
        1.75489         47.3386         7.93512         54.9652 
        1.76101         47.1861         7.86863         54.7527 
        1.76715         46.8624         7.80282         54.5165 
        1.77329         46.6115         7.73767          54.319 
        1.77943         46.4458         7.67324         54.1128 
        1.78557          46.257         7.60965         53.8546 
        1.79171         45.9449         7.54676         53.6197 
        1.79785         45.7584         7.48457         53.4504 
        1.80399         45.5533         7.42309         53.3025 
        1.81012         45.3609         7.36239         53.0137 
        1.81625         44.9519         7.30239         52.7385 
        1.82239         44.8329         7.24298         52.5952 
        1.82853         44.4639         7.18425         52.4623 
        1.83466         44.3961         7.12623         52.2006 
        1.84078         44.0235         7.06892         51.9235 
        1.84692         43.8402         7.01214          51.853 
        1.85306         43.6585         6.95592          51.659 
         1.8592         43.3936         6.90041         51.3828 
        1.86533         43.2279         6.84553         51.2628 
        1.87147         43.0307         6.79119         51.0804 
