# k  (h/Mpc)    P(k)  (Mpc/h)^3    P_linear(k)  (Mpc/h)^3     P_NL(k)  ShotnoiseSubtracted = false
     0.00783031         7951.51         8050.38         8019.64 
       0.013688         10137.5         10078.7         10025.5 
       0.019231           10359         10342.4         10272.3 
      0.0249154          9532.7         9677.78         9612.82 
      0.0312784         8393.49         8452.27         8396.09 
      0.0375637         7213.58         7204.12         7156.14 
      0.0433917          6165.6         6234.16         6187.43 
      0.0492413         5489.93         5505.74         5464.06 
      0.0555754         4869.84         4964.07         4926.45 
      0.0619321         4619.14         4594.56         4557.17 
       0.067871         4247.94         4319.88         4283.05 
      0.0738098         3973.36         4046.12         3987.89 
      0.0800417         3622.26         3721.23         3667.42 
      0.0862327            3301         3358.89         3329.63 
      0.0921407         2988.88         3001.54          2980.4 
      0.0982031         2637.67         2658.31         2668.14 
       0.104506         2404.75          2357.7         2392.88 
       0.110769         2179.14         2130.63         2156.45 
       0.116806         2014.76         1976.54         2001.78 
       0.122832         1918.17          1871.3         1899.35 
       0.129052         1802.29         1791.59         1814.38 
       0.135211         1729.14         1719.29         1738.13 
       0.141259         1666.01         1638.54         1662.95 
       0.147318         1578.02         1541.05         1577.84 
       0.153489         1452.09         1427.25         1452.85 
       0.159709          1356.6         1307.45         1351.46 
       0.165845         1275.78         1195.92         1267.54 
       0.171974         1180.15         1100.39         1174.98 
       0.178125         1111.77         1024.95         1116.59 
       0.184229         1059.94         969.779         1057.35 
        0.19034         993.863           929.8         1012.58 
       0.196428         979.646         898.634         969.025 
       0.202534         953.835         869.347         939.484 
       0.208729         911.255          836.36          899.24 
       0.214876         866.412         797.887         875.624 
       0.220989         837.287         754.485         840.129 
       0.227147         789.649         708.369         799.909 
        0.23329         752.424          663.66          768.23 
       0.239377         729.659          623.86         732.526 
       0.245482         678.927         590.317         693.705 
       0.251667         669.688         563.164         672.324 
       0.257832         645.755         541.859         646.834 
       0.263955         625.015          524.39         625.184 
       0.270079         603.927          508.36         606.876 
        0.27624         596.863         491.829         587.121 
       0.282372         572.876         473.847         571.339 
        0.28843          557.25         454.483         553.643 
       0.294538         530.376         433.967          537.78 
       0.300721         525.184         413.303         521.722 
        0.30691         499.906         393.861         506.993 
       0.313033         488.475         376.674         487.637 
       0.319153         471.709         361.865         473.253 
       0.325316          458.45         349.164         461.925 
        0.33145         444.894          338.21         444.952 
       0.337538         438.698         328.291         433.839 
       0.343633         424.799         318.643         428.107 
       0.349808         411.298         308.695         419.392 
       0.355968         406.357         298.364         411.036 
       0.362074         397.398         287.847         400.609 
       0.368217         386.351         277.233         387.781 
       0.374374         371.446         266.947          378.72 
       0.380519         366.874         257.338         368.739 
       0.386598         357.661         248.655         362.054 
       0.392688         354.159         240.833         352.297 
        0.39888         344.381          233.63         344.521 
       0.405048         336.807         227.028         339.759 
       0.411186          329.83         220.786         330.892 
       0.417313         323.864         214.668         322.838 
       0.423458         317.468         208.552         317.409 
       0.429607         310.541         202.413          311.33 
       0.435692         302.555         196.359          304.77 
       0.441815         300.058           190.4         301.587 
       0.447964         293.901         184.653         295.227 
       0.454126         283.414         179.201         287.048 
       0.460267         279.786         174.126         284.528 
       0.466387         276.568         169.418         278.564 
        0.47254         270.436         164.969         273.961 
       0.478662         269.073         160.763         268.688 
       0.484765         260.821         156.724         262.489 
       0.490885         257.425         152.771         259.267 
       0.497035         253.241          148.85         255.985 
       0.503198         247.561         144.985         251.907 
       0.509342         245.003         141.216         248.587 
       0.515458         241.775         137.571         246.008 
       0.521598           237.5         134.041         240.674 
       0.527764         233.717         130.649         236.803 
       0.533884         230.732          127.45         233.663 
           0.54         227.347         124.406         230.014 
       0.546137         225.854         121.479         227.421 
       0.552299         221.452         118.646         223.164 
       0.558452         218.674         115.907         220.167 
       0.564573           215.1         113.255         218.205 
       0.570708         211.252         110.661         215.406 
       0.576825         208.438          108.13         211.213 
       0.582926         205.575         105.667         208.667 
       0.589034         203.025         103.273         206.601 
       0.595184         200.731         100.944         202.812 
       0.601379         198.687         98.6852         201.607 
       0.607522         194.539         96.5262         198.386 
       0.613639         193.517         94.4499         196.421 
       0.619772         189.291         92.4357         193.859 
       0.625918         187.662         90.4794         191.697 
       0.632068          185.28         88.5793         188.635 
       0.638161         184.046          86.749          187.67 
         0.6443         181.269         84.9534         185.225 
       0.650464         179.291         83.1962         181.749 
       0.656582         177.531         81.4959         180.458 
       0.662703         175.391         79.8398         178.415 
       0.668861         172.653         78.2203         176.503 
       0.675024         170.555          76.647          174.22 
       0.681124         169.715         75.1377         172.526 
       0.687237         166.856         73.6709         170.463 
       0.693381         164.527         72.2396         168.472 
       0.699536         163.332         70.8456         167.019 
       0.705665         163.036         69.4944         166.105 
       0.711789         159.573         68.1783         163.521 
       0.717957         159.003          66.885         161.971 
        0.72409         156.821         65.6307         161.165 
       0.730186         154.404         64.4152         159.524 
       0.736317         153.438         63.2235         157.387 
       0.742472         152.369         62.0579         155.993 
       0.748622         151.039         60.9237         154.173 
        0.75476         149.656         59.8218         152.784 
       0.760888         147.511           58.75         150.833 
       0.767043         146.753         57.7012         150.044 
       0.773185         145.148         56.6809         149.149 
       0.779291         142.951         55.6914          147.48 
       0.785407         142.292         54.7243         145.688 
       0.791564         140.815         53.7739         144.758 
       0.797719         138.841         52.8463         143.888 
       0.803834         138.154         51.9462          142.03 
       0.809972         136.471         51.0637         140.906 
       0.816124         136.247         50.1997         140.017 
       0.822261         134.566          49.358          138.61 
       0.828378          133.26         48.5382          136.89 
       0.834502         132.939         47.7365          136.19 
       0.840667          130.88          46.948         135.516 
       0.846816         129.695         46.1798         134.095 
       0.852925         128.845         45.4339          132.92 
       0.859047         127.249         44.7031         131.815 
       0.865192         126.492         43.9862         130.957 
       0.871341         125.278         43.2847         129.602 
       0.877463         124.146         42.6018         128.886 
       0.883569         123.289         41.9355         128.011 
       0.889708         122.357         41.2802         126.971 
       0.895864         121.109         40.6373         126.267 
       0.902008         120.317         40.0094         124.884 
       0.908149         119.629         39.3953         123.863 
       0.914301         118.295         38.7931         123.173 
       0.920448         117.482         38.2041         122.377 
       0.926574         116.701         37.6294         120.986 
       0.932687         116.206         37.0679         120.148 
       0.938823         114.461         36.5158         119.464 
       0.944975         113.516         35.9738         118.602 
       0.951105          112.89         35.4448         117.658 
       0.957225          111.56         34.9274         116.968 
       0.963368         110.842         34.4187         115.663 
       0.969511         110.492         33.9201         115.047 
       0.975621           109.9         33.4342         115.243 
       0.981748         109.051         32.9566         113.959 
       0.987916         107.785         32.4854         113.331 
        0.99406         107.166         32.0252         112.311 
        1.00019         106.469         31.5749         111.368 
        1.00632         105.699         31.1338         110.718 
        1.01246         104.883         30.7004         109.778 
        1.01859         103.616         30.2761          109.39 
        1.02471         103.521         29.8604         108.996 
        1.03085         102.497          29.451         108.042 
        1.03698         101.821         29.0503         107.139 
        1.04314         100.892         28.6554           106.6 
        1.04929         100.282         28.2687         106.143 
        1.05541         99.5382         27.8908         105.572 
        1.06154         99.0049         27.5189         104.957 
        1.06769         98.6101         27.1533         104.306 
        1.07382         98.0474         26.7955         103.624 
        1.07993         97.2505          26.445          102.97 
        1.08607         96.4653         26.0994         102.345 
        1.09222         96.0155         25.7596         101.559 
        1.09836         95.2191         25.4263         100.876 
        1.10449         94.6096         25.0994         100.378 
        1.11063          93.964         24.7778         99.4927 
        1.11677         93.4836          24.462           98.97 
         1.1229         92.5053         24.1523         98.7406 
        1.12903         91.7017         23.8477          97.948 
        1.13518         91.8961         23.5481         97.3919 
        1.14131         91.0392         23.2539         96.7808 
        1.14745         90.2029         22.9649         96.3171 
        1.15359         89.7305         22.6807          95.681 
        1.15973         89.3299         22.4012         95.4517 
        1.16584         88.6179         22.1278         94.5629 
        1.17197         88.0646         21.8585         94.2206 
        1.17811         87.4647         21.5929         93.6291 
        1.18424         86.8983         21.3325          93.214 
        1.19038         86.4351         21.0756         92.6495 
        1.19652         85.9683         20.8231         92.0257 
        1.20267         85.2146         20.5748         91.5872 
        1.20881         84.7198         20.3306         91.0777 
        1.21495         84.1381         20.0907         90.4425 
        1.22108         83.6569         19.8548         90.2276 
         1.2272         82.9709         19.6232         89.6148 
        1.23334         82.6347         19.3948         89.2397 
        1.23949         82.0292         19.1696         88.5232 
        1.24562         81.6753         18.9485         88.1457 
        1.25174         81.1195         18.7313         87.7713 
        1.25789         80.7242         18.5168         87.2403 
        1.26402         80.3385         18.3061         86.8334 
        1.27014         79.5514         18.0991         86.6436 
        1.27628         79.3071         17.8948         86.1475 
        1.28244         78.5912         17.6933         85.3192 
        1.28858         78.2799         17.4951         84.9313 
        1.29471         77.8602         17.3004          84.713 
        1.30084         77.3197         17.1089         83.9961 
        1.30697         76.8467           16.92         83.6857 
        1.31312         76.4622         16.7337         83.4254 
        1.31925         76.0492         16.5508         82.8916 
        1.32537         75.6939         16.3709         82.4839 
        1.33151         74.9364         16.1929          82.042 
        1.33765         74.5709         16.0177          81.673 
        1.34378           74.12         15.8455         81.2453 
        1.34992         73.8801         15.6757         80.8917 
        1.35606         73.4305          15.508         80.4557 
         1.3622         72.7183         15.3431         80.0632 
        1.36833         72.6077          15.181         79.5601 
        1.37445         72.0839         15.0212         79.2042 
        1.38059         71.5564         14.8634         79.0442 
        1.38675         71.1614         14.7074         78.3767 
        1.39288         70.7292         14.5542         78.2031 
        1.39901         70.5612         14.4034         77.8151 
        1.40515         70.1292         14.2543         77.5468 
         1.4113         69.6236         14.1074         77.2474 
        1.41742         69.4941         13.9631          76.651 
        1.42355         68.8289         13.8206         76.2005 
         1.4297         68.5131         13.6797         75.9091 
        1.43585         68.0062         13.5408         75.6253 
        1.44198         67.7532         13.4043         75.3813 
        1.44809         67.3808           13.27         74.7601 
        1.45423         66.9864          13.137         74.5049 
        1.46036         66.7213         13.0062         74.2627 
        1.46649         66.2888          12.877         73.9962 
        1.47263         65.8541         12.7495         73.6598 
        1.47877         65.6581         12.6238         73.1027 
        1.48491         65.2822         12.4996         72.9029 
        1.49104         64.8504         12.3773         72.4824 
        1.49718         64.3931         12.2566          72.184 
        1.50333          64.099         12.1373         71.8095 
        1.50947         63.7382         12.0198         71.4669 
         1.5156         63.4682         11.9041          71.223 
        1.52172         63.1063         11.7899          70.955 
        1.52787         62.9301          11.677         70.6382 
          1.534         62.4969         11.5657          70.332 
        1.54013         62.0839         11.4559         69.9704 
        1.54627         61.8426         11.3474         69.6581 
        1.55241         61.3935         11.2403         69.3676 
        1.55855         61.0748         11.1347         68.9532 
        1.56467         60.6127         11.0308         68.6789 
         1.5708         60.5282         10.9279          68.506 
        1.57695         60.2534         10.8262         68.2687 
        1.58308         59.7493          10.726         67.9494 
        1.58922         59.6511          10.627         67.5818 
        1.59535         59.4091         10.5293          67.267 
         1.6015         58.8187         10.4326         66.9347 
        1.60764         58.6652         10.3373         66.7323 
        1.61376         58.2604         10.2434         66.5993 
        1.61989         57.9306         10.1506         66.1878 
        1.62604         57.7679         10.0587         65.7788 
        1.63218         57.5496         9.96807         65.5042 
        1.63831         57.1571         9.87874         65.3144 
        1.64444         56.8359         9.79046         65.0301 
        1.65059         56.4138         9.70306         64.6509 
        1.65673         56.2252         9.61681         64.4222 
        1.66285         55.9132         9.53186         64.2351 
        1.66898         55.6642         9.44791         63.9563 
        1.67512          55.295          9.3648          63.753 
        1.68127         54.9719         9.28262         63.3855 
         1.6874         54.7981         9.20162         63.0049 
        1.69353         54.4552         9.12163         62.8834 
        1.69967         54.1951          9.0424         62.6836 
        1.70581         54.0532         8.96415         62.4295 
        1.71193          53.783         8.88712         62.1623 
        1.71806         53.2474         8.81084         61.8474 
        1.72421         53.1586          8.7353         61.5558 
        1.73035         52.8361         8.66073         61.3944 
        1.73649         52.4392         8.58706         61.2416 
        1.74262         52.3553          8.5143         60.8232 
        1.74876         52.0838         8.44233          60.529 
        1.75489          51.734         8.37135         60.3503 
        1.76101         51.5663         8.30121         60.1135 
        1.76715         51.1886         8.23177          59.826 
        1.77329         50.9466         8.16305         59.6108 
        1.77943         50.6939         8.09508         59.3941 
        1.78557         50.5293         8.02798         59.0862 
        1.79171         50.2112         7.96164         58.8282 
        1.79785         50.0064         7.89603         58.6455 
        1.80399         49.7517         7.83117         58.4618 
        1.81012         49.5589         7.76713         58.1832 
        1.81625          49.098         7.70384         57.9007 
        1.82239         48.9643         7.64116         57.7152 
        1.82853         48.5745          7.5792         57.5765 
        1.83466         48.4736           7.518         57.2879 
        1.84078         48.0888         7.45753         56.9687 
        1.84692         47.8687         7.39763         56.9009 
        1.85306          47.684         7.33832         56.6807 
         1.8592         47.3592         7.27975         56.3608 
        1.86533         47.2082         7.22186         56.2303 
        1.87147         46.9518         7.16453         56.0126 
        1.87761         46.7604          7.1078         55.7086 
