# k  (h/Mpc)    Pcb(k)  (Mpc/h)^3    Pcb_linear(k) (Mpc/h)^3    Pcb_NL(k) (Mpc/h)^3   ShotnoiseSubtracted = false
     0.00783031         137.236         138.422         137.878 
       0.013688         172.796         173.478         172.772 
       0.019231         177.898         178.089         177.266 
      0.0249154          166.12         166.681         166.152 
      0.0312784         145.532         145.594         145.446 
      0.0375637         124.307         124.104          124.08 
      0.0433917         107.475           107.4         107.477 
      0.0492413         95.0038         94.8547         94.9522 
      0.0555754         85.5177          85.525         85.5766 
      0.0619321         79.3349         79.1603         79.1778 
       0.067871         74.3614         74.4288         74.3896 
      0.0738098         69.5969         69.7131         69.6308 
      0.0800417         63.9431          64.116          64.037 
      0.0862327         57.7928         57.8734         57.8273 
      0.0921407         51.7032         51.7167         51.7079 
      0.0982031         45.7613         45.8032         45.8376 
       0.104506          40.713         40.6237         40.6871 
       0.110769         36.7848         36.7114         36.7711 
       0.116806           34.04         34.0566         34.0983 
       0.122832         32.2739         32.2432         32.2746 
       0.129052         30.8254         30.8699         30.8804 
       0.135211         29.5515         29.6242         29.6203 
       0.141259         28.1998         28.2329         28.2275 
       0.147318         26.5629         26.5532         26.5608 
       0.153489         24.5771         24.5923         24.6014 
       0.159709         22.5249         22.5282         22.5586 
       0.165845         20.6771         20.6065         20.6629 
       0.171974         18.9631         18.9605         19.0196 
       0.178125         17.6818         17.6605         17.7296 
       0.184229         16.7498           16.71          16.775 
        0.19034         15.9981         16.0211         16.0767 
       0.196428         15.4885         15.4841         15.5227 
       0.202534         15.0284         14.9795         15.0144 
       0.208729         14.4198         14.4111         14.4428 
       0.214876         13.7255         13.7482         13.7929 
       0.220989         13.0384         13.0003         13.0529 
       0.227147         12.1935         12.2057         12.2627 
        0.23329         11.4301         11.4354         11.5051 
       0.239377         10.7554         10.7496         10.8257 
       0.245482         10.1669         10.1716         10.2414 
       0.251667         9.73076         9.70379         9.77747 
       0.257832         9.34735         9.33668         9.40559 
       0.263955         9.05082         9.03567           9.098 
       0.270079         8.77527         8.75944         8.81717 
        0.27624         8.51049         8.47456         8.52793 
       0.282372         8.19792         8.16476         8.22285 
        0.28843         7.84367          7.8311         7.89206 
       0.294538          7.4939          7.4776         7.54219 
       0.300721         7.15933         7.12155         7.19171 
        0.30691         6.80647         6.78655         6.85893 
       0.313033         6.51419          6.4904         6.56131 
       0.319153         6.22818         6.23523          6.3086 
       0.325316          6.0548         6.01642         6.09044 
        0.33145         5.85771         5.82765         5.89649 
       0.337538         5.68249         5.65673         5.72219 
       0.343633         5.50646          5.4905         5.55431 
       0.349808         5.34274         5.31905         5.38518 
       0.355968         5.16824         5.14107         5.21505 
       0.362074          4.9815         4.95985         5.03051 
       0.368217         4.80103         4.77695         4.84257 
       0.374374          4.6113         4.59974         4.67049 
       0.380519         4.45966         4.43416         4.50272 
       0.386598         4.31466         4.28454         4.35493 
       0.392688           4.187         4.14977         4.21936 
        0.39888          4.0558         4.02567         4.09446 
       0.405048         3.94368         3.91188         3.97577 
       0.411186          3.8376         3.80432          3.8739 
       0.417313         3.72411         3.69892         3.76571 
       0.423458         3.62569         3.59355         3.66113 
       0.429607         3.51148         3.48774         3.55301 
       0.435692           3.408         3.38344         3.45117 
       0.441815         3.30654         3.28076         3.35205 
       0.447964         3.21824         3.18174         3.25051 
       0.454126         3.11296         3.08778          3.1556 
       0.460267         3.02504         3.00036         3.06985 
       0.466387         2.93994         2.91922         2.98524 
        0.47254         2.86651         2.84257         2.90893 
       0.478662         2.79704         2.77008         2.83468 
       0.484765         2.72238          2.7005         2.76503 
       0.490885           2.656         2.63236         2.70127 
       0.497035         2.59914         2.56483         2.63448 
       0.503198         2.52637         2.49821         2.56224 
       0.509342         2.46543         2.43328         2.49876 
       0.515458         2.39707         2.37047         2.43892 
       0.521598         2.33742         2.30964          2.3729 
       0.527764         2.27408         2.25121          2.3141 
       0.533884         2.22749         2.19608         2.25875 
           0.54         2.17238         2.14364         2.20508 
       0.546137         2.12413          2.0932         2.15612 
       0.552299         2.07389         2.04438         2.10263 
       0.558452         2.02157         1.99717         2.05638 
       0.564573         1.97961         1.95149         2.01519 
       0.570708         1.93474         1.90678         1.96886 
       0.576825         1.88834         1.86318         1.92381 
       0.582926         1.85051         1.82074         1.88234 
       0.589034         1.79955         1.77949         1.84309 
       0.595184          1.7619         1.73936         1.79642 
       0.601379         1.72341         1.70043         1.76228 
       0.607522         1.69024         1.66323         1.72372 
       0.613639         1.65847         1.62746         1.68677 
       0.619772         1.61654         1.59275         1.65388 
       0.625918         1.58498         1.55904         1.61756 
       0.632068          1.5553          1.5263          1.5836 
       0.638161         1.52034         1.49476         1.55205 
         0.6443         1.48924         1.46382         1.51974 
       0.650464          1.4553         1.43355         1.49194 
       0.656582          1.4295         1.40425         1.46152 
       0.662703         1.40114         1.37571         1.43181 
       0.668861         1.37682         1.34781         1.40563 
       0.675024         1.34619          1.3207         1.37705 
       0.681124         1.31697         1.29469         1.34988 
       0.687237         1.29535         1.26942         1.32228 
       0.693381         1.27124         1.24475         1.29623 
       0.699536         1.24086         1.22073         1.27291 
       0.705665         1.21893         1.19745           1.253 
       0.711789          1.1988         1.17477         1.22914 
       0.717957         1.17391         1.15249         1.20482 
        0.72409         1.15332         1.13088         1.18347 
       0.730186         1.13124         1.10993          1.1608 
       0.736317         1.11515          1.0894         1.13949 
       0.742472         1.09375         1.06931         1.12215 
       0.748622          1.0726         1.04977         1.10269 
        0.75476         1.05114         1.03078         1.08112 
       0.760888         1.03215         1.01232         1.06283 
       0.767043         1.01963        0.994244         1.04521 
       0.773185        0.998237        0.976663         1.02816 
       0.779291        0.981541        0.959614         1.01061 
       0.785407           0.965         0.94295        0.992894 
       0.791564        0.949149        0.926574        0.976404 
       0.797719        0.934297         0.91059         0.95835 
       0.803834        0.918928         0.89508         0.94341 
       0.809972        0.902568        0.879874        0.929693 
       0.816124        0.886551        0.864986        0.912696 
       0.822261        0.870596        0.850483        0.897535 
       0.828378        0.858388        0.836358        0.883407 
       0.834502        0.845866        0.822544        0.868432 
       0.840667        0.829024        0.808958        0.855428 
       0.846816        0.816131         0.79572        0.844053 
       0.852925         0.80592        0.782867        0.829575 
       0.859047        0.792814        0.770275        0.818379 
       0.865192        0.778741        0.757922        0.804611 
       0.871341        0.766441        0.745835        0.791773 
       0.877463         0.75719        0.734069         0.77915 
       0.883569        0.743584        0.722588        0.768527 
       0.889708        0.732228        0.711296        0.756947 
       0.895864        0.720839        0.700218        0.745033 
       0.902008        0.709279          0.6894         0.73407 
       0.908149        0.698549        0.678817         0.72353 
       0.914301        0.685625        0.668441         0.71213 
       0.920448        0.676694        0.658292        0.701508 
       0.926574        0.666441         0.64839         0.69198 
       0.932687        0.656302        0.638714        0.680589 
       0.938823        0.649248        0.629202        0.673262 
       0.944975        0.639054        0.619862         0.66143 
       0.951105        0.630219        0.610747        0.652262 
       0.957225        0.622558        0.601832         0.64433 
       0.963368        0.612828        0.593066        0.634483 
       0.969511        0.602871        0.584475        0.625909 
       0.975621        0.593873        0.576102        0.615637 
       0.981748        0.587791        0.567872        0.607479 
       0.987916        0.578724        0.559753        0.600948 
        0.99406         0.57008        0.551824        0.593161 
        1.00019        0.563604        0.544065        0.584946 
        1.00632        0.553867        0.536463        0.576164 
        1.01246        0.546352        0.528997        0.568237 
        1.01859        0.539962        0.521685        0.561405 
        1.02471        0.532147        0.514522        0.554082 
        1.03085        0.526714        0.507469        0.545597 
        1.03698        0.518316        0.500564        0.538243 
        1.04314        0.511832        0.493759        0.531696 
        1.04929        0.504341        0.487096        0.524932 
        1.05541        0.498845        0.480585        0.518836 
        1.06154        0.491323        0.474176        0.512124 
        1.06769        0.484454        0.467876         0.50548 
        1.07382        0.478755        0.461711        0.498994 
        1.07993        0.471734        0.455672        0.492633 
        1.08607         0.46767        0.449717        0.486867 
        1.09222        0.460417        0.443862        0.480056 
        1.09836        0.456187        0.438119        0.474648 
        1.10449        0.450214        0.432485        0.468822 
        1.11063        0.443175        0.426945        0.462326 
        1.11677        0.437184        0.421503        0.457466 
         1.1229        0.432639        0.416167        0.451867 
        1.12903        0.426746        0.410918         0.44625 
        1.13518        0.422272        0.405756        0.440897 
        1.14131        0.416489        0.400686        0.435801 
        1.14745        0.409709        0.395706         0.42978 
        1.15359        0.406131        0.390809        0.425362 
        1.15973         0.40014        0.385994        0.420663 
        1.16584        0.397119        0.381282        0.415088 
        1.17197         0.39186        0.376642        0.410559 
        1.17811        0.387766        0.372066        0.406172 
        1.18424        0.383912        0.367579        0.400723 
        1.19038        0.378264        0.363153        0.396301 
        1.19652        0.372902        0.358802        0.392104 
        1.20267        0.370087        0.354523        0.386656 
        1.20881        0.365116        0.350315        0.382935 
        1.21495        0.361807        0.346182        0.379519 
        1.22108        0.357138        0.342117        0.374348 
         1.2272        0.353585        0.338127        0.369771 
        1.23334        0.348989        0.334191        0.366033 
        1.23949        0.345153        0.330309        0.362459 
        1.24562        0.341267          0.3265        0.358373 
        1.25174        0.337721        0.322757        0.354014 
        1.25789        0.334395        0.319061         0.35016 
        1.26402        0.329423         0.31543        0.346433 
        1.27014        0.326183        0.311865        0.342493 
        1.27628        0.323239        0.308344        0.338646 
        1.28244        0.318445        0.304872         0.33517 
        1.28858        0.315575        0.301457        0.331136 
        1.29471        0.312999        0.298103        0.327982 
        1.30084         0.30877        0.294803        0.325216 
        1.30697         0.30547        0.291548        0.321475 
        1.31312        0.301205        0.288338        0.317921 
        1.31925        0.298554        0.285186        0.314971 
        1.32537        0.295861        0.282085        0.311765 
        1.33151        0.293086        0.279019        0.308483 
        1.33765        0.289848        0.276001        0.305289 
        1.34378        0.286094        0.273033        0.302177 
        1.34992         0.28347        0.270107        0.299165 
        1.35606        0.280507        0.267218         0.29567 
         1.3622        0.277647        0.264376        0.292795 
        1.36833        0.274567        0.261582         0.29014 
        1.37445        0.271041         0.25883        0.287392 
        1.38059        0.268556         0.25611        0.284243 
        1.38675        0.267139        0.253422        0.281289 
        1.39288        0.263787        0.250783        0.278401 
        1.39901        0.261095        0.248183        0.275832 
        1.40515        0.258832        0.245615        0.273006 
         1.4113        0.255502        0.243084        0.270617 
        1.41742        0.253046        0.240598        0.268531 
        1.42355        0.251255        0.238142        0.264848 
         1.4297        0.248067        0.235714        0.263041 
        1.43585        0.245881         0.23332        0.260292 
        1.44198        0.243984        0.230969        0.257002 
        1.44809        0.241008        0.228655        0.255592 
        1.45423         0.23892        0.226364        0.252249 
        1.46036        0.236398        0.224108        0.250182 
        1.46649        0.234651        0.221883        0.248382 
        1.47263        0.232073        0.219686        0.245771 
        1.47877        0.229282         0.21752        0.243499 
        1.48491        0.227573         0.21538        0.241517 
        1.49104        0.224742        0.213273        0.238604 
        1.49718        0.222787        0.211193        0.237102 
        1.50333        0.221255        0.209137        0.234189 
        1.50947         0.21883        0.207113        0.231919 
         1.5156        0.216651        0.205119        0.230351 
        1.52172         0.21482        0.203151        0.227921 
        1.52787        0.212727        0.201205        0.225792 
          1.534        0.210534        0.199287        0.224071 
        1.54013        0.208515        0.197396        0.221991 
        1.54627        0.207067        0.195527        0.219827 
        1.55241        0.204691        0.193681        0.217857 
        1.55855         0.20265        0.191862        0.215909 
        1.56467        0.201754        0.190071        0.214208 
         1.5708        0.199441        0.188298        0.212027 
        1.57695        0.197628        0.186545        0.209935 
        1.58308        0.195716        0.184819        0.208464 
        1.58922        0.194116        0.183113        0.206746 
        1.59535        0.192259        0.181429        0.204771 
         1.6015         0.19041        0.179764         0.20274 
        1.60764        0.188966        0.178121        0.201259 
        1.61376        0.186824        0.176504        0.200022 
        1.61989        0.185509        0.174905        0.198112 
        1.62604        0.184029        0.173322        0.196283 
        1.63218        0.182402        0.171759        0.194685 
        1.63831        0.180858         0.17022        0.193034 
        1.64444        0.179214        0.168699        0.191216 
        1.65059        0.177712        0.167193        0.189579 
        1.65673          0.1762        0.165707          0.1881 
        1.66285        0.174911        0.164243        0.186565 
        1.66898        0.173316        0.162796        0.184879 
        1.67512        0.171493        0.161364        0.183319 
        1.68127         0.16992        0.159948        0.181898 
         1.6874        0.168951        0.158553        0.180549 
        1.69353        0.167064        0.157174          0.1791 
        1.69967        0.166193        0.155809        0.177346 
        1.70581        0.164203        0.154461        0.175839 
        1.71193        0.163057        0.153134        0.174567 
        1.71806        0.161456        0.151819        0.173074 
        1.72421        0.160606        0.150518        0.171877 
        1.73035        0.158953        0.149233        0.170461 
        1.73649          0.1579        0.147963        0.168719 
        1.74262        0.156466        0.146709        0.167414 
        1.74876         0.15513        0.145469        0.166376 
        1.75489        0.154086        0.144246        0.165112 
        1.76101        0.152497        0.143038         0.16361 
        1.76715        0.151313        0.141841        0.162474 
        1.77329        0.149871        0.140657        0.161328 
        1.77943        0.148767        0.139486        0.159962 
        1.78557        0.147898         0.13833        0.158524 
        1.79171        0.146645        0.137187        0.157148 
        1.79785        0.145444        0.136056        0.156012 
        1.80399        0.144233        0.134939        0.155026 
        1.81012        0.143208        0.133835        0.153475 
        1.81625        0.141946        0.132745        0.152181 
        1.82239        0.140862        0.131664        0.151441 
        1.82853        0.139596        0.130597        0.150399 
        1.83466        0.138639        0.129542        0.149083 
        1.84078        0.137497          0.1285        0.147837 
        1.84692         0.13631        0.127468        0.146902 
        1.85306        0.135573        0.126446        0.145635 
         1.8592        0.134211        0.125437        0.144281 
        1.86533        0.133409         0.12444        0.143394 
        1.87147         0.13228        0.123452        0.142427 
