# k  (h/Mpc)    P(k)  (Mpc/h)^3    P_linear(k)  (Mpc/h)^3     P_NL(k)  ShotnoiseSubtracted = false
     0.00783031         18027.6         18299.9         18218.1 
       0.013688         23143.1           22904         22741.8 
       0.019231         23528.5         23500.4         23273.3 
      0.0249154         21444.8         21988.6           21735 
      0.0312784         18911.9         19203.1         18929.3 
      0.0375637         16315.8         16366.9         16120.8 
      0.0433917         13839.5           14163         13906.2 
      0.0492413         12378.6         12507.9         12270.6 
      0.0555754         10862.2         11277.2         11068.2 
      0.0619321         10418.6         10437.7           10234 
       0.067871         9466.73          9813.6         9620.75 
      0.0738098         8858.25         9191.66         8897.15 
      0.0800417         8032.52         8453.56         8182.87 
      0.0862327          7356.4         7630.39         7473.63 
      0.0921407         6729.99         6818.58         6699.25 
      0.0982031         5959.11         6038.85         6057.14 
       0.104506            5509         5355.93         5489.84 
       0.110769         5013.88         4840.09         4944.39 
       0.116806         4676.91         4490.05         4592.47 
       0.122832         4434.86         4250.97         4362.86 
       0.129052         4133.06          4069.9         4164.22 
       0.135211         3959.77         3905.66         3975.33 
       0.141259         3834.61         3722.22         3823.54 
       0.147318          3646.2         3500.75         3640.72 
       0.153489         3353.27         3242.22         3348.76 
       0.159709         3166.63         2970.08         3154.33 
       0.165845         3031.83         2716.73         3006.37 
       0.171974         2843.47         2499.71         2817.05 
       0.178125         2690.99         2328.32         2710.66 
       0.184229         2556.54            2203         2561.39 
        0.19034          2433.5         2112.18         2457.17 
       0.196428         2387.99         2041.38         2357.05 
       0.202534         2301.44         1974.85         2287.92 
       0.208729          2210.6         1899.91         2179.72 
       0.214876          2134.4         1812.52         2134.38 
       0.220989         2062.05         1713.92         2072.06 
       0.227147         1977.88         1609.16         2004.41 
        0.23329          1897.8          1507.6         1941.41 
       0.239377         1868.19         1417.19         1860.98 
       0.245482         1754.92         1340.99         1775.87 
       0.251667         1744.12         1279.31         1728.26 
       0.257832         1674.97         1230.91         1667.92 
       0.263955         1620.87         1191.23         1619.46 
       0.270079         1568.56         1154.81         1575.74 
        0.27624         1550.29         1117.26         1531.62 
       0.282372         1487.83         1076.41         1507.95 
        0.28843         1484.89         1032.42          1479.2 
       0.294538         1414.51         985.818         1438.35 
       0.300721         1402.88         938.876         1395.94 
        0.30691         1352.55         894.711         1376.24 
       0.313033         1324.23         855.669            1331 
       0.319153         1307.01         822.027         1291.33 
       0.325316         1263.55         793.175         1268.88 
        0.33145         1237.91         768.292         1223.94 
       0.337538         1213.05          745.76         1204.97 
       0.343633         1190.57         723.842         1191.65 
       0.349808         1152.81         701.243         1174.47 
       0.355968         1143.35         677.776         1155.03 
       0.362074         1133.83         653.884         1135.02 
       0.368217         1097.12         629.773         1108.62 
       0.374374         1059.99         606.408         1087.46 
       0.380519         1062.51          584.58         1065.88 
       0.386598         1031.22         564.854          1050.9 
       0.392688         1026.59         547.087         1027.73 
        0.39888         997.701         530.724         1010.58 
       0.405048         988.036         515.725         993.261 
       0.411186         973.649         501.545         976.923 
       0.417313         953.135         487.648         965.442 
       0.423458         936.577         473.755         948.617 
       0.429607         925.807         459.809         933.926 
       0.435692         907.984         446.056         914.669 
       0.441815         899.492          432.52         911.741 
       0.447964         881.039         419.465           900.3 
       0.454126         875.656         407.079         874.489 
       0.460267         853.441         395.551         872.558 
       0.466387         841.906         384.857         856.899 
        0.47254         841.044          374.75         844.792 
       0.478662           828.8         365.194         832.803 
       0.484765         806.786         356.021         824.155 
       0.490885         802.261          347.04         808.867 
       0.497035         784.623         338.133         802.092 
       0.503198         780.442         329.353         793.448 
       0.509342         771.261         320.792         779.619 
       0.515458         767.473         312.511         774.597 
       0.521598         748.798         304.492         767.151 
       0.527764         735.909         296.787         759.491 
       0.533884         733.297         289.521         750.556 
           0.54         727.757         282.606         741.611 
       0.546137         718.548         275.957          733.08 
       0.552299         710.607         269.521          723.01 
       0.558452         703.607         263.297         717.649 
       0.564573         695.161         257.275         711.273 
       0.570708         687.842         251.381         702.377 
       0.576825         670.259         245.632         693.313 
       0.582926         673.288         240.038         688.582 
       0.589034         665.263         234.599         678.068 
       0.595184         659.695         229.308         671.945 
       0.601379         650.282         224.177         665.973 
       0.607522         640.975         219.272         656.039 
       0.613639         640.811         214.556         654.174 
       0.619772         628.791          209.98          652.25 
       0.625918         623.722         205.536         643.198 
       0.632068         616.128          201.22         639.945 
       0.638161         613.114         197.062         629.438 
         0.6443         603.106         192.983         624.779 
       0.650464         601.326         188.991         616.545 
       0.656582         594.934         185.129         613.136 
       0.662703         592.993         181.367          608.66 
       0.668861         583.191         177.688         605.946 
       0.675024         577.908         174.114         601.653 
       0.681124         574.105         170.685         592.421 
       0.687237         569.759         167.353         587.071 
       0.693381          562.13         164.102         581.826 
       0.699536         552.242         160.935         577.943 
       0.705665         552.622         157.866         570.922 
       0.711789         549.069         154.876         566.587 
       0.717957         543.841         151.938         566.012 
        0.72409         541.087         149.089         559.732 
       0.730186         532.708         146.328         553.943 
       0.736317         530.343         143.621         550.226 
       0.742472         526.115         140.973          546.48 
       0.748622         520.761         138.396         541.005 
        0.75476         512.434         135.893         541.684 
       0.760888         508.545         133.459          535.07 
       0.767043         507.833         131.076         528.309 
       0.773185         503.276         128.758         525.246 
       0.779291         498.144         126.511         520.973 
       0.785407         493.541         124.314         518.026 
       0.791564         488.696         122.155          516.13 
       0.797719         486.889         120.047         510.843 
       0.803834         480.489         118.003         507.809 
       0.809972         479.063         115.998         504.617 
       0.816124         477.406         114.035         498.306 
       0.822261         470.121         112.123         496.071 
       0.828378         468.153         110.261         492.497 
       0.834502         462.525          108.44         490.977 
       0.840667          459.04         106.649         486.823 
       0.846816         456.468         104.904         482.989 
       0.852925         453.468         103.209         480.208 
       0.859047         451.666         101.549         475.451 
       0.865192         445.226         99.9205         472.362 
       0.871341         441.548          98.327         469.731 
       0.877463         441.348         96.7758         466.892 
       0.883569         436.376         95.2622          464.73 
       0.889708         434.081         93.7736          460.05 
       0.895864         432.616         92.3131         457.599 
       0.902008         428.432         90.8869         454.389 
       0.908149         422.096         89.4917         450.115 
       0.914301         420.765         88.1237         446.535 
       0.920448         418.577         86.7857         445.552 
       0.926574          411.89         85.4803         442.307 
       0.932687         410.935         84.2047          438.49 
       0.938823         406.768         82.9506         437.796 
       0.944975         406.788         81.7194         434.224 
       0.951105         402.086         80.5177         430.878 
       0.957225         399.197         79.3424         428.727 
       0.963368         394.709         78.1867         426.051 
       0.969511         393.574         77.0541         423.532 
       0.975621         391.291         75.9503         420.419 
       0.981748          387.96         74.8653          418.06 
       0.987916         385.862         73.7949         416.145 
        0.99406         380.202         72.7495         413.307 
        1.00019         378.294         71.7267         409.544 
        1.00632          376.74         70.7245         406.973 
        1.01246         373.366         69.7401         404.425 
        1.01859         372.646         68.7762         401.749 
        1.02471         367.952         67.8318         399.785 
        1.03085         366.098          66.902         398.448 
        1.03698         364.145         65.9917         396.701 
        1.04314         361.163         65.0945         393.675 
        1.04929         357.465         64.2162         390.133 
        1.05541         358.078         63.3577         387.712 
        1.06154         352.365         62.5129         385.878 
        1.06769         350.748         61.6823         383.075 
        1.07382         347.818         60.8695          380.87 
        1.07993         345.955         60.0734         379.027 
        1.08607         344.903         59.2882         376.242 
        1.09222         340.624         58.5164          374.14 
        1.09836         338.292         57.7593         372.837 
        1.10449         336.225         57.0166          370.74 
        1.11063         331.557         56.2861          367.48 
        1.11677         332.522         55.5688         365.818 
         1.1229         329.623         54.8652         363.549 
        1.12903         327.425         54.1733         361.611 
        1.13518         323.777         53.4928         358.863 
        1.14131         322.397         52.8243         357.484 
        1.14745         319.749         52.1677         354.544 
        1.15359         318.192         51.5222         353.765 
        1.15973          315.93         50.8874         351.338 
        1.16584          313.37         50.2662         350.003 
        1.17197         312.634         49.6545          348.05 
        1.17811         309.294         49.0511         345.506 
        1.18424         306.799         48.4596         343.794 
        1.19038         305.376         47.8761          342.54 
        1.19652          303.22         47.3026         339.679 
        1.20267         301.769         46.7384         338.081 
        1.20881         299.473         46.1837         336.361 
        1.21495         297.258         45.6388         334.099 
        1.22108         295.316         45.1028         331.877 
         1.2272         293.532         44.5768         330.658 
        1.23334         291.693          44.058         328.465 
        1.23949         288.674         43.5462          326.76 
        1.24562         287.562          43.044         324.872 
        1.25174         286.045         42.5506         323.236 
        1.25789         283.023         42.0633         321.356 
        1.26402         281.293         41.5847         320.311 
        1.27014         279.288         41.1146         317.793 
        1.27628         277.106         40.6505         317.005 
        1.28244         277.121         40.1926         315.577 
        1.28858         274.216         39.7425         313.528 
        1.29471         273.042         39.3003         311.087 
        1.30084         270.471         38.8652         309.363 
        1.30697         269.362         38.4361          308.25 
        1.31312         266.304         38.0129         306.524 
        1.31925         264.809         37.5974          304.78 
        1.32537         264.009         37.1886         302.675 
        1.33151         261.484         36.7844         301.491 
        1.33765          259.25         36.3864          300.23 
        1.34378         258.527         35.9952         298.159 
        1.34992         256.815         35.6094         296.506 
        1.35606          255.22         35.2285         294.654 
         1.3622         252.967         34.8539         293.772 
        1.36833         251.668         34.4856         292.707 
        1.37445         249.731         34.1228         289.985 
        1.38059         247.833         33.7641          289.29 
        1.38675         246.513         33.4097          288.19 
        1.39288          245.06         33.0619         286.012 
        1.39901         243.532         32.7192         284.266 
        1.40515          242.13         32.3805         282.532 
         1.4113          240.24         32.0468         280.946 
        1.41742         238.363         31.7191         279.801 
        1.42355         237.426         31.3954          278.26 
         1.4297         235.499         31.0752         276.451 
        1.43585         234.091         30.7596         276.083 
        1.44198         232.988         30.4497          274.15 
        1.44809         230.572         30.1446         272.851 
        1.45423          229.39         29.8426         270.783 
        1.46036         228.054         29.5452         269.747 
        1.46649         226.613         29.2518          268.66 
        1.47263         225.432         28.9622         266.803 
        1.47877         223.484         28.6767         265.211 
        1.48491         221.286         28.3945         263.664 
        1.49104         220.578         28.1168         262.572 
        1.49718         218.889         27.8425         262.124 
        1.50333         217.978         27.5715          260.33 
        1.50947         216.371         27.3047         258.838 
         1.5156         214.439         27.0418         257.755 
        1.52172         213.732         26.7823         256.213 
        1.52787         211.771         26.5258         255.072 
          1.534         211.162          26.273         253.678 
        1.54013         209.057         26.0237         252.472 
        1.54627         208.177         25.7772         251.516 
        1.55241          206.76         25.5338         250.341 
        1.55855         204.715          25.294         248.988 
        1.56467         204.447         25.0579         247.351 
         1.5708         202.849         24.8242         246.037 
        1.57695         201.412         24.5931           244.9 
        1.58308         200.139         24.3655         243.515 
        1.58922          198.17         24.1406         242.309 
        1.59535         197.133         23.9186         241.404 
         1.6015         195.846         23.6992          240.52 
        1.60764         194.864         23.4825         239.148 
        1.61376         193.768         23.2693         237.579 
        1.61989         192.492         23.0584         236.469 
        1.62604          191.03         22.8498         235.255 
        1.63218          189.96         22.6438         234.115 
        1.63831         188.487         22.4409         233.091 
        1.64444         187.476         22.2403         231.918 
        1.65059         186.617         22.0418         230.933 
        1.65673         185.092         21.8459         229.817 
        1.66285         183.654         21.6529           228.5 
        1.66898         182.781         21.4622          227.24 
        1.67512         181.845         21.2734         226.307 
        1.68127          179.85         21.0867         225.206 
         1.6874         179.345         20.9027         224.084 
        1.69353         177.922          20.721         223.263 
        1.69967         176.561          20.541         222.102 
        1.70581          175.82         20.3633         221.029 
        1.71193         174.334         20.1883         220.009 
        1.71806         173.658          20.015          218.61 
        1.72421         172.303         19.8434         217.609 
        1.73035         171.503          19.674         216.644 
        1.73649         170.381         19.5066         215.487 
        1.74262          169.18         19.3414         214.531 
        1.74876         167.711         19.1779         213.527 
        1.75489         167.148         19.0166         212.588 
        1.76101         165.663         18.8573         211.784 
        1.76715         164.903         18.6996         210.804 
        1.77329         163.777         18.5434         209.831 
        1.77943         162.915          18.389          208.79 
        1.78557         161.682         18.2366         207.593 
        1.79171         160.996         18.0859         206.655 
        1.79785         159.499         17.9369         205.747 
        1.80399         158.711         17.7895         204.629 
        1.81012         157.759         17.6441         204.012 
        1.81625         156.954         17.5003         203.162 
        1.82239         155.624         17.3579         201.879 
        1.82853         155.019         17.2172         200.976 
        1.83466         153.992         17.0781         199.995 
        1.84078         153.058         16.9408         198.971 
        1.84692         151.884         16.8047         198.353 
        1.85306         151.064           16.67         197.304 
         1.8592         150.078         16.5369         196.149 
        1.86533         149.371         16.4054         195.601 
        1.87147         148.333         16.2752         194.854 
        1.87761         147.315         16.1463         193.835 
