# k  (h/Mpc)    P(k)  (Mpc/h)^3    P_linear(k)  (Mpc/h)^3     P_NL(k)  ShotnoiseSubtracted = false
     0.00783031         11933.8         12095.9         12046.9 
       0.013688         15262.2         15141.4         15050.9 
       0.019231         15561.2         15536.6         15413.8 
      0.0249154         14260.3         14537.8         14412.2 
      0.0312784         12566.2         12696.5         12573.4 
      0.0375637         10817.8         10821.4         10712.9 
      0.0433917          9215.4         9364.37         9253.83 
      0.0492413         8221.81         8270.14         8169.34 
      0.0555754         7259.09         7456.47         7366.83 
      0.0619321         6921.14          6901.4          6813.2 
       0.067871         6330.98         6488.78         6404.12 
      0.0738098         5922.28         6077.57         5946.35 
      0.0800417         5386.14         5589.55         5468.34 
      0.0862327         4919.26         5045.27         4977.01 
      0.0921407         4474.04         4508.51         4457.12 
      0.0982031         3952.17         3992.95         4007.09 
       0.104506         3626.65          3541.4         3609.72 
       0.110769         3291.85         3200.33         3250.94 
       0.116806         3053.81         2968.88         3018.53 
       0.122832         2902.95          2810.8         2865.86 
       0.129052         2716.51         2691.07         2736.26 
       0.135211         2606.14         2582.47         2617.85 
       0.141259         2516.38         2461.18         2509.86 
       0.147318         2386.83         2314.75         2386.07 
       0.153489         2194.92          2143.8         2194.77 
       0.159709         2062.08         1963.86         2052.99 
       0.165845         1953.83         1796.34         1940.28 
       0.171974         1819.48         1652.84          1806.3 
       0.178125         1716.93         1539.52         1727.13 
       0.184229         1636.27         1456.66         1633.82 
        0.19034         1539.73         1396.61         1565.62 
       0.196428          1517.2         1349.79         1498.29 
       0.202534         1471.49          1305.8         1453.41 
       0.208729         1408.16         1256.25         1387.39 
       0.214876         1346.69         1198.47         1356.18 
       0.220989         1302.05         1133.27         1308.06 
       0.227147         1237.54         1064.01         1253.93 
        0.23329         1183.32          996.85         1210.37 
       0.239377         1156.01         937.069         1156.88 
       0.245482         1078.62         886.685         1098.92 
       0.251667         1068.91           845.9         1067.95 
       0.257832         1027.78         813.899         1028.28 
       0.263955         995.601          787.66         995.286 
       0.270079         961.678         763.581         967.406 
        0.27624         952.328         738.751         938.091 
       0.282372         912.687         711.741         916.396 
        0.28843         898.965         682.656         892.384 
       0.294538         853.748          651.84         868.324 
       0.300721         848.782         620.801         842.818 
        0.30691         811.018         591.598         825.069 
       0.313033         794.738         565.783         795.462 
       0.319153         775.361         543.539         772.122 
       0.325316         751.067         524.461         755.624 
        0.33145         732.181         508.008         727.824 
       0.337538         720.929          493.11         712.937 
       0.343633         700.949         478.617         705.499 
       0.349808         677.305         463.674         692.776 
       0.355968         672.637         448.157         680.425 
       0.362074         662.662          432.36         665.585 
       0.368217         643.359         416.417         646.181 
       0.374374         616.512         400.968         632.746 
       0.380519         614.609         386.535         617.628 
       0.386598         598.544         373.492         609.453 
       0.392688         596.016         361.743         592.079 
        0.39888         578.235         350.924         582.394 
       0.405048         568.027         341.006          574.14 
       0.411186         558.855         331.631         559.871 
       0.417313          547.95         322.441         549.604 
       0.423458         538.059         313.255         541.592 
       0.429607         528.882         304.034         531.048 
       0.435692         516.888          294.94         520.213 
       0.441815         512.629          285.99         516.242 
       0.447964         501.367         277.358         507.191 
       0.454126         491.252         269.168         493.451 
       0.460267         482.211         261.546          490.96 
       0.466387         476.915         254.474         481.414 
        0.47254         468.463         247.792         474.679 
       0.478662         466.786         241.473         465.697 
       0.484765          451.62         235.407         457.438 
       0.490885         447.716         229.469         450.914 
       0.497035         438.833          223.58         445.945 
       0.503198         433.541         217.774          439.74 
       0.509342         429.887         212.114         434.067 
       0.515458         425.634         206.638         430.338 
       0.521598         415.607         201.336         423.032 
       0.527764         408.076         196.241         418.008 
       0.533884         405.988         191.436         412.575 
           0.54         400.561         186.864         406.257 
       0.546137         398.564         182.468         401.412 
       0.552299         390.721         178.212         395.667 
       0.558452         388.349         174.097         391.729 
       0.564573         382.482         170.115         388.538 
       0.570708         376.509         166.218          384.66 
       0.576825         368.373         162.416         377.396 
       0.582926         366.893         158.717         373.703 
       0.589034         363.372         155.121         368.848 
       0.595184         359.888         151.622         363.683 
       0.601379         355.125          148.23         360.672 
       0.607522         349.775         144.987         356.241 
       0.613639         348.262         141.868         353.907 
       0.619772         340.123         138.843         351.943 
       0.625918          339.05         135.904          346.43 
       0.632068         333.596          133.05         342.241 
       0.638161         332.282         130.301         339.684 
         0.6443         326.437         127.604         336.447 
       0.650464          323.57         124.965         330.469 
       0.656582         321.747         122.411         327.945 
       0.662703         320.017         119.923         326.485 
       0.668861         314.171         117.491          323.27 
       0.675024         310.791         115.127         320.107 
       0.681124         308.951          112.86         315.354 
       0.687237         305.734         110.657         312.568 
       0.693381         301.243         108.507         309.655 
       0.699536         298.165         106.413         307.427 
       0.705665         296.056         104.384         304.346 
       0.711789         293.703         102.407         302.084 
       0.717957         291.518         100.464         300.024 
        0.72409         288.636         98.5804          297.43 
       0.730186         285.218         96.7546         294.625 
       0.736317         282.313         94.9646         291.506 
       0.742472         280.765         93.2138         288.662 
       0.748622         278.216         91.5103         286.026 
        0.75476         275.451         89.8551         285.661 
       0.760888         272.088         88.2453         281.628 
       0.767043         272.333         86.6699         279.794 
       0.773185         268.605         85.1373          277.65 
       0.779291         264.235         83.6511         274.637 
       0.785407          263.58         82.1984         272.763 
       0.791564         260.425         80.7709         270.723 
       0.797719         257.931         79.3776         268.848 
       0.803834         255.999         78.0256         267.203 
       0.809972          254.68            76.7         264.968 
       0.816124         254.419         75.4022         262.232 
       0.822261         250.658          74.138          260.63 
       0.828378         248.728         72.9067         258.325 
       0.834502         247.567         71.7025          256.73 
       0.840667         244.226         70.5181         254.478 
       0.846816         242.764         69.3642         253.048 
       0.852925         241.452         68.2438         251.142 
       0.859047         239.426         67.1461         249.447 
       0.865192         236.724         66.0693         247.318 
       0.871341         234.891         65.0156         245.553 
       0.877463         233.306         63.9899         244.241 
       0.883569         232.283         62.9892         242.984 
       0.889708         229.838         62.0048         240.537 
       0.895864         227.092         61.0391         239.175 
       0.902008         226.311         60.0961         237.345 
       0.908149         225.238         59.1736         235.236 
       0.914301          222.21          58.269         233.816 
       0.920448         220.777         57.3843         231.932 
       0.926574         219.189         56.5212         230.266 
       0.932687         219.049         55.6777         228.853 
       0.938823         216.207         54.8485         227.959 
       0.944975         214.883         54.0344         226.654 
       0.951105         213.647         53.2398         224.815 
       0.957225         211.749         52.4626         223.105 
       0.963368             209         51.6985         221.407 
       0.969511         208.074         50.9496          219.84 
       0.975621         206.295         50.2197         219.267 
       0.981748         206.237         49.5023         217.823 
       0.987916         204.008         48.7945         216.422 
        0.99406         201.813         48.1033         215.043 
        1.00019         201.769          47.427         213.376 
        1.00632         199.835         46.7643          211.67 
        1.01246         198.317         46.1135         209.994 
        1.01859         197.979         45.4761         209.322 
        1.02471          195.41         44.8517         208.478 
        1.03085         193.624         44.2368          207.18 
        1.03698         192.836         43.6349          206.21 
        1.04314         191.082         43.0417         204.586 
        1.04929         189.816          42.461         203.162 
        1.05541         189.621         41.8933         202.033 
        1.06154         187.445         41.3347         200.884 
        1.06769         187.126         40.7855         199.945 
        1.07382         185.509         40.2481         198.582 
        1.07993         183.827         39.7216         197.368 
        1.08607         183.248         39.2025         196.365 
        1.09222         182.091         38.6921         195.407 
        1.09836         180.499         38.1915         194.443 
        1.10449         178.596         37.7004         193.307 
        1.11063         177.089         37.2174         191.929 
        1.11677         176.799         36.7431         190.628 
         1.1229         175.356         36.2779          189.63 
        1.12903         174.414         35.8204         188.735 
        1.13518         173.446         35.3704         187.605 
        1.14131         171.707         34.9284         186.321 
        1.14745         171.482         34.4943         185.531 
        1.15359         170.033         34.0675         184.398 
        1.15973         169.106         33.6477         183.367 
        1.16584         167.394         33.2369         181.823 
        1.17197         166.997         32.8325         181.368 
        1.17811         165.589         32.4335         180.578 
        1.18424         164.741         32.0424         179.126 
        1.19038         164.279         31.6566         178.684 
        1.19652         162.865         31.2773         177.788 
        1.20267         162.111         30.9043         176.448 
        1.20881         160.516         30.5375         175.727 
        1.21495         159.919         30.1772         174.595 
        1.22108         158.895         29.8228         173.918 
         1.2272         157.513          29.475         172.361 
        1.23334          156.92          29.132         171.994 
        1.23949         155.679         28.7936         171.153 
        1.24562          154.75         28.4615         169.766 
        1.25174         153.266         28.1352         169.157 
        1.25789         152.416         27.8131         168.184 
        1.26402          151.44         27.4965         167.257 
        1.27014         150.389         27.1857         166.849 
        1.27628         149.737         26.8788         166.416 
        1.28244         149.344         26.5761         165.035 
        1.28858         148.071         26.2785         164.018 
        1.29471         146.555         25.9861         163.166 
        1.30084         146.134         25.6984         162.312 
        1.30697         145.012         25.4147         161.612 
        1.31312         144.271         25.1348          160.43 
        1.31925          143.34         24.8601         159.768 
        1.32537         142.569         24.5898         159.279 
        1.33151         141.152         24.3225          158.28 
        1.33765         140.695         24.0594         157.508 
        1.34378         139.835         23.8007         156.776 
        1.34992         139.284         23.5456         155.758 
        1.35606         138.697         23.2938         154.875 
         1.3622         137.293          23.046         154.307 
        1.36833         136.365         22.8025         153.355 
        1.37445         135.587         22.5626         152.586 
        1.38059         134.889         22.3255         151.777 
        1.38675         134.092         22.0911         151.041 
        1.39288         133.449         21.8611          149.91 
        1.39901         133.104         21.6345         149.596 
        1.40515         131.712         21.4106         149.099 
         1.4113         130.752           21.19         148.338 
        1.41742         130.177         20.9733         147.736 
        1.42355         129.316         20.7592         147.018 
         1.4297          128.57         20.5475         146.217 
        1.43585         127.498         20.3389         145.221 
        1.44198         127.138         20.1339         144.684 
        1.44809          126.36         19.9322         144.059 
        1.45423         125.492         19.7325          143.18 
        1.46036         124.845         19.5358         142.503 
        1.46649         123.834         19.3419         142.055 
        1.47263         123.231         19.1504         141.498 
        1.47877         122.692         18.9615         140.501 
        1.48491         121.359          18.775         139.934 
        1.49104         121.215         18.5913         139.591 
        1.49718         119.994           18.41          138.38 
        1.50333         119.565         18.2308         137.685 
        1.50947         119.062         18.0544         137.229 
         1.5156         118.121         17.8805          136.59 
        1.52172         117.389          17.709         135.926 
        1.52787         116.678         17.5394         135.257 
          1.534         116.081         17.3722         134.689 
        1.54013         115.284         17.2073         134.125 
        1.54627         114.786         17.0443         133.514 
        1.55241          113.79         16.8834         132.876 
        1.55855         113.184         16.7249         132.184 
        1.56467         112.867         16.5688         131.489 
         1.5708           111.9         16.4142         131.012 
        1.57695         111.444         16.2614         130.457 
        1.58308         110.724         16.1109         129.709 
        1.58922         110.329         15.9622         129.108 
        1.59535         109.423         15.8154         128.586 
         1.6015         108.929         15.6703         127.913 
        1.60764         108.245         15.5271         127.286 
        1.61376         107.861         15.3861         126.967 
        1.61989         106.958         15.2467         126.501 
        1.62604         106.504         15.1087         125.557 
        1.63218         105.929         14.9725         124.939 
        1.63831         105.037         14.8383         124.655 
        1.64444         104.692         14.7057         123.848 
        1.65059         104.071         14.5744         123.357 
        1.65673         103.002         14.4449         122.841 
        1.66285         102.903         14.3173         122.284 
        1.66898         102.314         14.1912          121.81 
        1.67512         101.718         14.0664         121.254 
        1.68127         100.966         13.9429         120.654 
         1.6874         100.229         13.8213         120.125 
        1.69353         99.8073         13.7011         119.679 
        1.69967         99.3662         13.5821         119.052 
        1.70581         98.6917         13.4646         118.465 
        1.71193         98.3227         13.3489         117.996 
        1.71806         97.6322         13.2343         117.493 
        1.72421         96.9467         13.1208         116.966 
        1.73035         96.6314         13.0088         116.369 
        1.73649         95.9213         12.8982         115.787 
        1.74262         95.2748         12.7889         115.404 
        1.74876         94.9692         12.6808         114.898 
        1.75489         94.1369         12.5742         114.284 
        1.76101         93.7073         12.4688         113.746 
        1.76715         93.0063         12.3645         113.341 
        1.77329         92.7604         12.2613         112.819 
        1.77943         91.9277         12.1592         112.246 
        1.78557         91.5989         12.0584         111.805 
        1.79171         90.8981         11.9587         111.399 
        1.79785         90.5138         11.8602         110.957 
        1.80399         89.9451         11.7628         110.443 
        1.81012         89.5537         11.6666         109.831 
        1.81625         88.9778         11.5715         109.345 
        1.82239         88.6479         11.4774         108.973 
        1.82853         88.1629         11.3843         108.469 
        1.83466         87.3936         11.2924         107.944 
        1.84078          87.265         11.2016         107.535 
        1.84692         86.5172         11.1116         107.238 
        1.85306         85.9848         11.0225         106.697 
         1.8592         85.6008         10.9345         106.118 
        1.86533         85.0211         10.8476         105.757 
        1.87147         84.4466         10.7615         105.154 
        1.87761         84.1206         10.6762          104.66 
