# k  (h/Mpc)    Pcb(k)  (Mpc/h)^3    Pcb_linear(k) (Mpc/h)^3    Pcb_NL(k) (Mpc/h)^3   ShotnoiseSubtracted = false
     0.00783031         1428.25         1442.25         1436.89 
       0.013688          1805.8          1806.5         1798.91 
       0.019231         1854.73         1854.15         1844.95 
      0.0249154         1723.89          1735.2         1728.86 
      0.0312784         1513.28         1515.58         1512.93 
      0.0375637         1295.16         1291.84         1290.35 
      0.0433917         1115.79         1117.94         1117.44 
      0.0492413         988.576         987.332         987.226 
      0.0555754         886.098         890.211         889.793 
      0.0619321         828.316         823.956         823.332 
       0.067871         771.791         774.703         773.564 
      0.0738098         722.009         725.615         723.515 
      0.0800417         661.835         667.355         665.412 
      0.0862327         599.737         602.376         601.411 
      0.0921407         538.049         538.292           537.9 
      0.0982031          475.23         476.739         477.621 
       0.104506         425.926         422.828          424.72 
       0.110769         384.929         382.106         383.629 
       0.116806         355.154         354.474          355.83 
       0.122832         337.824           335.6         336.986 
       0.129052         321.041         321.306         322.349 
       0.135211         307.687          308.34         309.202 
       0.141259          294.62         293.859         294.849 
       0.147318         278.236         276.375         277.951 
       0.153489         256.862         255.965         257.117 
       0.159709         236.318         234.481         236.378 
       0.165845          218.59         214.479         217.536 
       0.171974         199.936         197.346         200.409 
       0.178125         187.124         183.816         187.523 
       0.184229         177.739         173.923         177.549 
        0.19034         168.298         166.753         170.104 
       0.196428         164.057         161.163         163.837 
       0.202534         159.948         155.911         158.548 
       0.208729         152.915         149.995         152.483 
       0.214876          145.01         143.096         146.258 
       0.220989         138.934         135.312         138.761 
       0.227147         129.426         127.041         130.615 
        0.23329         121.826         119.023         123.204 
       0.239377         115.503         111.885          116.35 
       0.245482         108.536         105.869         109.997 
       0.251667         104.934             101         105.399 
       0.257832         100.993         97.1788         101.388 
       0.263955         97.6386         94.0459         97.9876 
       0.270079         94.6685         91.1708         94.9401 
        0.27624         92.3926         88.2057         91.7578 
       0.282372         88.9984         84.9813         88.7318 
        0.28843         85.0935         81.5084         85.3543 
       0.294538         81.4102          77.829         81.8584 
       0.300721         78.5654         74.1231         78.4352 
        0.30691         74.5856         70.6363         75.0571 
       0.313033         71.6748         67.5539         71.8742 
       0.319153         68.1419          64.898         69.3444 
       0.325316         66.9364         62.6206         67.1304 
        0.33145         64.5512         60.6558         64.9052 
       0.337538         62.9205         58.8768         62.9713 
       0.343633         60.8879         57.1467         61.2395 
       0.349808         59.1871         55.3621          59.556 
       0.355968         57.4277         53.5096          58.006 
       0.362074         55.4576         51.6235         56.0016 
       0.368217         53.6047         49.7199         53.8728 
       0.374374         51.6871         47.8754         52.2297 
       0.380519         50.1836          46.152         50.4175 
       0.386598         48.6719         44.5946         48.9124 
       0.392688         47.5056         43.1919         47.5194 
        0.39888         46.0525         41.9002         46.1266 
       0.405048         44.9461         40.7159         44.8174 
       0.411186         43.8581         39.5964         43.9185 
       0.417313         42.4331         38.4993         42.6268 
       0.423458         41.3474         37.4026         41.5917 
       0.429607         40.1498         36.3014         40.4095 
       0.435692         38.9283         35.2157         39.4045 
       0.441815         38.0871         34.1471         38.4976 
       0.447964         37.3224         33.1164         37.3413 
       0.454126          35.842         32.1385         36.2939 
       0.460267         35.1056         31.2285         35.4823 
       0.466387         34.0355          30.384         34.5005 
        0.47254         33.4627         29.5862          33.742 
       0.478662         32.8085         28.8317         32.9228 
       0.484765         31.8603         28.1076         32.1338 
       0.490885         31.1135         27.3983          31.584 
       0.497035         30.6416         26.6954         30.9183 
       0.503198         29.8211         26.0021         30.0386 
       0.509342         29.0492         25.3263         29.4278 
       0.515458         28.3536         24.6725         28.9073 
       0.521598         27.8067         24.0394         28.0475 
       0.527764         27.1643         23.4311         27.3516 
       0.533884         26.6637         22.8574         26.7798 
           0.54         26.0624         22.3115         26.2084 
       0.546137         25.5895         21.7866         25.7496 
       0.552299          25.118         21.2785         25.0835 
       0.558452          24.341         20.7871         24.5784 
       0.564573         23.9913         20.3117         24.2315 
       0.570708         23.5465         19.8463         23.7256 
       0.576825         22.9202         19.3924         23.2346 
       0.582926         22.5017         18.9508         22.8103 
       0.589034         21.8582         18.5214         22.4281 
       0.595184         21.5444         18.1037         21.8343 
       0.601379         21.1001         17.6986         21.5535 
       0.607522         20.7339         17.3114         21.0738 
       0.613639         20.4761          16.939         20.6692 
       0.619772         19.9283         16.5778         20.3442 
       0.625918         19.7714         16.2269         19.9624 
       0.632068         19.4347         15.8861         19.5542 
       0.638161         18.9662         15.5579         19.2058 
         0.6443         18.5759         15.2359         18.8347 
       0.650464         18.2064         14.9207         18.5869 
       0.656582         18.0671         14.6158         18.2485 
       0.662703          17.715         14.3188         17.9004 
       0.668861         17.3636         14.0283         17.6594 
       0.675024         17.0217         13.7462         17.2817 
       0.681124          16.725         13.4755         16.9948 
       0.687237         16.4382         13.2124          16.664 
       0.693381           16.24         12.9557         16.3845 
       0.699536         15.8029         12.7057          16.144 
       0.705665          15.663         12.4634         15.9601 
       0.711789          15.353         12.2273         15.6444 
       0.717957          15.109         11.9954         15.3781 
        0.72409         14.8551         11.7705         15.1705 
       0.730186         14.6549         11.5525         14.8966 
       0.736317         14.4716         11.3387         14.6577 
       0.742472         14.2252         11.1297         14.5153 
       0.748622         14.0179         10.9263         14.2512 
        0.75476         13.7177         10.7287         14.0133 
       0.760888         13.5445         10.5365         13.8277 
       0.767043         13.3665         10.3484         13.6477 
       0.773185           13.09         10.1654         13.4461 
       0.779291         12.9927         9.98791         13.2641 
       0.785407         12.7999         9.81447         13.0483 
       0.791564         12.5678         9.64402         12.8714 
       0.797719         12.3223         9.47766         12.6574 
       0.803834         12.2559         9.31623         12.4705 
       0.809972         12.1233         9.15796         12.3594 
       0.816124         11.8334           9.003          12.141 
       0.822261         11.6841         8.85205         11.9671 
       0.828378         11.5467         8.70503         11.8102 
       0.834502         11.4272         8.56126         11.6652 
       0.840667         11.2311         8.41984          11.489 
       0.846816         11.0239         8.28207         11.3553 
       0.852925         10.9179         8.14829         11.2432 
       0.859047         10.7754         8.01722         11.0733 
       0.865192         10.6686         7.88865         10.9205 
       0.871341         10.5491         7.76284          10.804 
       0.877463         10.3641         7.64038         10.6411 
       0.883569         10.1999         7.52089         10.5182 
       0.889708         10.0277         7.40336         10.3841 
       0.895864         9.94684         7.28805         10.2374 
       0.902008         9.84537         7.17545         10.1317 
       0.908149         9.72659         7.06531         9.99798 
       0.914301          9.5995         6.95731         9.90918 
       0.920448         9.43274         6.85167         9.74077 
       0.926574         9.32607         6.74861         9.64245 
       0.932687         9.22735          6.6479          9.4704 
       0.938823         9.09527         6.54889         9.40332 
       0.944975         8.97138         6.45169         9.28603 
       0.951105         8.88471         6.35682         9.14869 
       0.957225         8.82299         6.26403         9.09263 
       0.963368         8.69682         6.17278         8.96233 
       0.969511         8.60155         6.08337         8.87232 
       0.975621         8.49489         5.99622          8.7426 
       0.981748         8.39207         5.91056         8.65193 
       0.987916         8.30934         5.82605         8.56261 
        0.99406         8.17856         5.74353         8.47195 
        1.00019         8.04804         5.66277          8.3949 
        1.00632         8.02148         5.58365         8.29007 
        1.01246         7.92518         5.50594         8.22485 
        1.01859         7.80308         5.42984         8.10724 
        1.02471         7.73959         5.35528         7.99006 
        1.03085         7.65358         5.28187         7.92041 
        1.03698         7.53551            5.21         7.85113 
        1.04314            7.48         5.13917         7.75593 
        1.04929         7.37726         5.06983         7.68186 
        1.05541          7.2874         5.00205         7.61146 
        1.06154         7.22578         4.93535         7.52602 
        1.06769         7.18425         4.86977         7.45555 
        1.07382         7.06714         4.80561         7.37805 
        1.07993         6.99308         4.74275         7.29747 
        1.08607         6.93866         4.68077         7.21837 
        1.09222          6.8617         4.61983         7.14348 
        1.09836         6.78238         4.56006         7.05866 
        1.10449         6.71445         4.50142         6.99568 
        1.11063         6.64177         4.44375         6.92962 
        1.11677         6.59215         4.38712         6.86359 
         1.1229         6.52849         4.33157         6.80419 
        1.12903         6.44991         4.27694         6.75344 
        1.13518          6.3743         4.22322         6.68191 
        1.14131         6.30174         4.17045         6.60013 
        1.14745         6.23163         4.11861         6.52524 
        1.15359         6.19254         4.06765         6.47957 
        1.15973         6.12568         4.01753         6.41508 
        1.16584         6.04138         3.96848         6.37287 
        1.17197          5.9928         3.92019         6.30334 
        1.17811         5.95425         3.87255         6.23521 
        1.18424         5.89602         3.82585         6.18083 
        1.19038         5.85653         3.77979         6.12361 
        1.19652         5.78798         3.73451         6.07724 
        1.20267          5.7181         3.68997          6.0048 
        1.20881         5.68835         3.64617         5.96779 
        1.21495         5.63532         3.60315         5.91373 
        1.22108         5.56514         3.56084         5.86224 
         1.2272         5.52805         3.51931         5.79395 
        1.23334         5.45306         3.47835          5.7544 
        1.23949         5.40547         3.43795         5.71481 
        1.24562         5.37296          3.3983         5.65764 
        1.25174         5.31427         3.35934         5.60244 
        1.25789         5.27349         3.32087         5.55285 
        1.26402         5.23391         3.28308         5.49688 
        1.27014         5.18212         3.24597          5.4619 
        1.27628         5.12782         3.20933         5.42046 
        1.28244         5.06572         3.17318         5.37242 
        1.28858          5.0533         3.13764         5.32444 
        1.29471         4.99117         3.10273         5.28188 
        1.30084         4.94019         3.06838         5.24804 
        1.30697         4.93451         3.03451         5.19358 
        1.31312         4.83737         3.00109         5.15399 
        1.31925         4.81171         2.96829         5.12265 
        1.32537         4.76766         2.93602         5.08074 
        1.33151          4.7512          2.9041         5.03695 
        1.33765         4.68661         2.87269         4.98934 
        1.34378         4.64966          2.8418         4.95794 
        1.34992         4.62379         2.81134         4.91608 
        1.35606         4.56686         2.78127         4.86522 
         1.3622         4.54262         2.75169         4.82999 
        1.36833         4.49944         2.72261         4.81185 
        1.37445         4.46468         2.69397         4.76761 
        1.38059         4.44639         2.66566         4.72394 
        1.38675          4.4033         2.63768         4.68669 
        1.39288         4.36641         2.61022         4.65987 
        1.39901         4.31587         2.58316         4.62484 
        1.40515          4.2899         2.55642         4.58642 
         1.4113         4.25535         2.53008         4.55238 
        1.41742         4.22306          2.5042         4.51989 
        1.42355         4.18207         2.47865         4.47814 
         1.4297         4.14802         2.45337         4.45375 
        1.43585          4.1303         2.42846         4.42769 
        1.44198         4.10501         2.40398         4.38214 
        1.44809         4.05789          2.3799         4.35995 
        1.45423         4.02379         2.35605         4.32253 
        1.46036         3.98986         2.33258         4.29221 
        1.46649          3.9591         2.30942         4.26641 
        1.47263         3.92509         2.28655          4.2349 
        1.47877         3.89324         2.26401          4.1997 
        1.48491         3.86878         2.24173         4.17451 
        1.49104         3.84244          2.2198         4.14048 
        1.49718          3.8111         2.19815         4.11335 
        1.50333         3.78752         2.17676         4.08831 
        1.50947         3.75256         2.15569         4.05879 
         1.5156         3.72818         2.13493         4.03227 
        1.52172         3.70331         2.11445         4.00793 
        1.52787         3.67881          2.0942          3.9678 
          1.534         3.64436         2.07423         3.94272 
        1.54013         3.62498         2.05455         3.91981 
        1.54627         3.58672         2.03509         3.89331 
        1.55241         3.56065         2.01588         3.86681 
        1.55855         3.54548         1.99695         3.83239 
        1.56467         3.51649         1.97831         3.81659 
         1.5708         3.49025         1.95985         3.79437 
        1.57695         3.46026         1.94161         3.76191 
        1.58308         3.43133         1.92364         3.74195 
        1.58922         3.41963         1.90588         3.72175 
        1.59535         3.39572         1.88836         3.69703 
         1.6015         3.36732         1.87103         3.66881 
        1.60764         3.34324         1.85393         3.64659 
        1.61376         3.32226         1.83709         3.62915 
        1.61989         3.29837         1.82045         3.60356 
        1.62604          3.2724         1.80398         3.57759 
        1.63218         3.26185         1.78772         3.55782 
        1.63831         3.23354         1.77169         3.53771 
        1.64444         3.21035         1.75586         3.51007 
        1.65059         3.17898         1.74019         3.48986 
        1.65673         3.17039         1.72472         3.46835 
        1.66285         3.13684         1.70948         3.44573 
        1.66898         3.12104         1.69443         3.42544 
        1.67512         3.09686         1.67952         3.40476 
        1.68127         3.07801         1.66478         3.38811 
         1.6874         3.06565         1.65026         3.37091 
        1.69353         3.03172         1.63591         3.34561 
        1.69967         3.01756          1.6217         3.32037 
        1.70581         3.00125         1.60767         3.30429 
        1.71193         2.98021         1.59385         3.29094 
        1.71806         2.96268         1.58017         3.26647 
        1.72421         2.94194         1.56663         3.24431 
        1.73035         2.92617         1.55325         3.22571 
        1.73649         2.90324         1.54004         3.20745 
        1.74262         2.88161         1.52699         3.18952 
        1.74876         2.87087         1.51408         3.17435 
        1.75489         2.85157         1.50135          3.1548 
        1.76101         2.82481         1.48877          3.1295 
        1.76715         2.81426         1.47632         3.11126 
        1.77329         2.79962           1.464         3.09736 
        1.77943         2.76899         1.45181          3.0813 
        1.78557         2.76027         1.43977         3.06174 
        1.79171         2.74377         1.42787         3.04284 
        1.79785         2.72338         1.41611         3.02582 
        1.80399         2.70627         1.40448         3.00996 
        1.81012         2.69222         1.39299         2.99494 
        1.81625         2.67428         1.38164         2.97796 
        1.82239         2.65683          1.3704         2.96153 
        1.82853         2.63756         1.35929         2.95035 
        1.83466         2.62966         1.34831         2.93673 
        1.84078         2.61377         1.33747         2.91743 
        1.84692         2.59917         1.32672         2.89616 
        1.85306          2.5753         1.31609         2.87794 
         1.8592         2.55892         1.30558         2.86476 
        1.86533         2.54501          1.2952         2.85333 
        1.87147         2.53461         1.28492          2.8394 
