# k  (h/Mpc)    P(k)  (Mpc/h)^3    P_linear(k)  (Mpc/h)^3     P_NL(k)  ShotnoiseSubtracted = false
     0.00783031           12463         12634.1         12582.5 
       0.013688         15944.8         15814.8         15718.8 
       0.019231         16252.9         16227.5         16096.7 
      0.0249154         14886.5         15184.2         15049.2 
      0.0312784         13119.2           13261         13127.1 
      0.0375637         11296.1         11302.6         11184.2 
      0.0433917         9618.95          9780.7         9659.73 
      0.0492413          8583.9         8637.81          8527.3 
      0.0555754         7574.42         7787.96          7689.8 
      0.0619321         7226.09         7208.21         7111.73 
       0.067871          6605.7         6777.25          6684.8 
      0.0738098         6179.38         6347.75         6204.74 
      0.0800417         5618.36         5838.04         5705.96 
      0.0862327         5132.67         5269.56         5194.92 
      0.0921407         4670.73         4708.94          4652.6 
      0.0982031         4126.62         4170.46         4185.05 
       0.104506         3789.56         3698.84         3772.16 
       0.110769         3440.51          3342.6         3397.07 
       0.116806         3193.22         3100.86         3154.31 
       0.122832         3034.79         2935.75         2994.98 
       0.129052         2838.61         2810.71         2859.39 
       0.135211         2723.13         2697.28         2735.15 
       0.141259         2630.05          2570.6         2623.04 
       0.147318         2495.15         2417.65         2494.15 
       0.153489         2294.42         2239.11         2294.03 
       0.159709         2156.82         2051.17         2147.29 
       0.165845         2045.54          1876.2         2031.16 
       0.171974         1906.35         1726.32            1892 
       0.178125          1799.3         1607.96         1810.29 
       0.184229         1714.48         1521.41         1712.27 
        0.19034         1614.59         1458.69         1640.95 
       0.196428         1590.57          1409.8         1570.58 
       0.202534          1541.8         1363.85         1523.63 
       0.208729         1475.84          1312.1            1454 
       0.214876         1412.64         1251.74         1421.74 
       0.220989         1365.75         1183.65         1372.15 
       0.227147          1299.3          1111.3         1316.51 
        0.23329         1242.82         1041.16         1271.37 
       0.239377         1215.13         978.725         1215.51 
       0.245482         1134.37         926.102         1155.09 
       0.251667         1124.64         883.504         1122.79 
       0.257832         1081.06         850.081         1081.24 
       0.263955         1047.18         822.675          1046.8 
       0.270079         1011.57         797.526         1017.61 
        0.27624         1001.76         771.592         987.046 
       0.282372         960.018         743.382         964.818 
        0.28843         946.969         713.003         940.183 
       0.294538         899.347         680.817         914.858 
       0.300721         894.209         648.398         887.937 
        0.30691         854.978         617.897         869.958 
       0.313033         837.906         590.935         838.989 
       0.319153         818.429         567.701         814.356 
       0.325316         792.563         547.776         797.228 
        0.33145         773.073         530.592          767.95 
       0.337538         760.893          515.03         752.662 
       0.343633         740.392         499.894         744.873 
       0.349808         715.351         484.287         731.666 
       0.355968         710.555          468.08          718.77 
       0.362074         700.589          451.58         703.411 
       0.368217         679.975         434.929         683.218 
       0.374374         651.765         418.792         669.198 
       0.380519         650.299         403.718         653.402 
       0.386598         633.116         390.095         644.929 
       0.392688         630.646         377.824         626.658 
        0.39888         611.765         366.524         616.622 
       0.405048         601.413         356.166         607.724 
       0.411186          591.98         346.373         592.978 
       0.417313         580.255         336.775         582.532 
       0.423458         569.845         327.181         574.065 
       0.429607         560.481          317.55          562.95 
       0.435692         547.864         308.052         551.495 
       0.441815         543.338         298.704          547.48 
       0.447964         531.404         289.688          538.09 
       0.454126         521.676         281.134         523.497 
       0.460267         511.567         273.172         521.061 
       0.466387         505.961         265.787         511.002 
        0.47254         497.554         258.807         503.923 
       0.478662         495.518         252.207         494.522 
       0.484765         479.477         245.872         486.137 
       0.490885         475.559          239.67         478.989 
       0.497035         465.974         233.519         473.825 
       0.503198         460.896         227.455         467.357 
       0.509342         456.908         221.543         461.178 
       0.515458         452.607         215.824         457.352 
       0.521598         441.723         210.286         449.914 
       0.527764         433.664         204.965         444.682 
       0.533884          431.71         199.947         438.917 
           0.54          426.03         195.171         432.261 
       0.546137         423.818         190.579         427.062 
       0.552299         415.691         186.135         421.073 
       0.558452         413.237         181.836         417.029 
       0.564573          407.07         177.677         413.662 
       0.570708         401.019         173.607         409.551 
       0.576825         391.822         169.636         401.956 
       0.582926         390.771         165.773         398.107 
       0.589034         387.043         162.017         392.763 
       0.595184          383.41         158.363         387.594 
       0.601379         378.128         154.819         384.219 
       0.607522         372.623         151.432         379.478 
       0.613639         371.213         148.175         377.221 
       0.619772         362.518         145.015         375.389 
       0.625918         361.378         141.946         369.359 
       0.632068         355.582         138.965           365.2 
       0.638161         354.202         136.094         362.153 
         0.6443         347.917         133.277         358.845 
       0.650464         345.044          130.52         352.501 
       0.656582         343.064         127.852         349.876 
       0.662703         341.354         125.254          348.39 
       0.668861         335.147         122.713          345.13 
       0.675024         331.694         120.245         341.843 
       0.681124         329.546         117.877         336.567 
       0.687237         326.254         115.576         333.664 
       0.693381         321.534         113.331          330.64 
       0.699536         318.026         111.144         328.337 
       0.705665         315.912         109.024         324.821 
       0.711789         313.624         106.959         322.607 
       0.717957         311.148          104.93         320.593 
        0.72409          308.24         102.963         317.661 
       0.730186         304.518         101.056         314.641 
       0.736317         301.535         99.1862         311.433 
       0.742472         299.884         97.3576         308.385 
       0.748622         297.041         95.5783         305.646 
        0.75476         293.928         93.8496          305.47 
       0.760888         290.462         92.1681         301.147 
       0.767043         290.833         90.5227         299.098 
       0.773185         286.832          88.922         296.777 
       0.779291         282.367         87.3697         293.623 
       0.785407           281.6         85.8525         291.764 
       0.791564         278.126         84.3615         289.538 
       0.797719         275.644         82.9062         287.385 
       0.803834         273.427         81.4941         285.825 
       0.809972         272.211         80.1096         283.451 
       0.816124          271.87         78.7542         280.344 
       0.822261         267.845         77.4337         278.779 
       0.828378         265.881         76.1477         276.406 
       0.834502         264.316           74.89         274.747 
       0.840667         261.031         73.6529         272.252 
       0.846816         259.532         72.4477         270.781 
       0.852925         258.009         71.2775         268.769 
       0.859047         255.985          70.131         266.952 
       0.865192         253.004         69.0063          264.67 
       0.871341         251.108         67.9058          262.88 
       0.877463         249.526         66.8345         261.432 
       0.883569         248.359         65.7893          260.13 
       0.889708         245.743         64.7612         257.474 
       0.895864          242.95         63.7526         255.968 
       0.902008          241.99         62.7676         254.108 
       0.908149          240.74         61.8041         251.854 
       0.914301         237.564         60.8593         250.267 
       0.920448         236.086         59.9353         248.298 
       0.926574         234.173         59.0338         246.584 
       0.932687         234.144         58.1528          245.04 
       0.938823          231.11         57.2867         244.156 
       0.944975          229.91         56.4364          242.68 
       0.951105         228.426         55.6065         240.754 
       0.957225         226.523         54.7948         238.953 
       0.963368         223.555         53.9967          237.23 
       0.969511         222.511         53.2145         235.509 
       0.975621         220.586         52.4522         234.748 
       0.981748         220.495         51.7029         233.298 
       0.987916         218.275         50.9637          231.82 
        0.99406         215.676         50.2417         230.344 
        1.00019         215.615         49.5353         228.524 
        1.00632         213.693         48.8432         226.774 
        1.01246         211.986         48.1634         224.996 
        1.01859         211.842         47.4977         224.158 
        1.02471         208.862         46.8455         223.229 
        1.03085         207.075         46.2034         221.943 
        1.03698         206.278         45.5747         220.994 
        1.04314         204.299         44.9551         219.182 
        1.04929         203.003         44.3485         217.583 
        1.05541         202.907         43.7556         216.368 
        1.06154         200.301         43.1722         215.143 
        1.06769         199.924         42.5985         214.125 
        1.07382         198.269         42.0373         212.665 
        1.07993         196.515         41.4874         211.428 
        1.08607         195.971         40.9452         210.259 
        1.09222         194.609         40.4122         209.183 
        1.09836         192.939         39.8893         208.253 
        1.10449         190.896         39.3763         207.071 
        1.11063         189.269         38.8719         205.657 
        1.11677         188.955         38.3765         204.171 
         1.1229         187.465         37.8906         203.126 
        1.12903         186.421         37.4127         202.208 
        1.13518         185.276         36.9428         200.942 
        1.14131         183.495         36.4811         199.626 
        1.14745           183.3         36.0277         198.732 
        1.15359         181.701         35.5819         197.535 
        1.15973         180.606         35.1435         196.385 
        1.16584         178.877         34.7145         194.773 
        1.17197         178.574          34.292         194.325 
        1.17811         176.858         33.8753         193.401 
        1.18424         175.964         33.4668         191.879 
        1.19038         175.446         33.0639         191.415 
        1.19652         173.948         32.6677         190.428 
        1.20267         173.243         32.2781         188.956 
        1.20881         171.531          31.895         188.223 
        1.21495         170.801         31.5187         187.021 
        1.22108         169.703         31.1486         186.195 
         1.2272         168.252         30.7853         184.538 
        1.23334         167.635          30.427         184.117 
        1.23949         166.331         30.0736         183.356 
        1.24562         165.345         29.7268         181.831 
        1.25174         163.827         29.3859         181.176 
        1.25789          162.82         29.0495         180.092 
        1.26402         161.714         28.7189         179.143 
        1.27014         160.571         28.3943          178.59 
        1.27628         159.898         28.0737         178.142 
        1.28244         159.572         27.7575         176.776 
        1.28858         157.995         27.4467         175.659 
        1.29471          156.51         27.1412         174.652 
        1.30084         156.033         26.8408         173.791 
        1.30697         154.796         26.5445         173.032 
        1.31312         153.865         26.2522         171.734 
        1.31925         153.049         25.9652         171.012 
        1.32537         152.211         25.6829         170.496 
        1.33151         150.679         25.4038         169.442 
        1.33765         150.096         25.1289         168.566 
        1.34378         149.265         24.8587         167.826 
        1.34992         148.589         24.5923         166.691 
        1.35606         148.122         24.3293         165.737 
         1.3622         146.536         24.0705         165.153 
        1.36833          145.45         23.8162         164.162 
        1.37445          144.67         23.5656         163.259 
        1.38059         143.818         23.3179         162.422 
        1.38675         143.087         23.0732         161.687 
        1.39288         142.283          22.833         160.369 
        1.39901         142.027         22.5963         160.049 
        1.40515         140.432         22.3624          159.53 
         1.4113         139.496         22.1319         158.678 
        1.41742         138.766         21.9056         158.013 
        1.42355         137.903          21.682          157.28 
         1.4297         137.076         21.4609         156.414 
        1.43585         136.023          21.243         155.369 
        1.44198         135.493         21.0289         154.812 
        1.44809         134.778         20.8182         154.084 
        1.45423         133.856         20.6096         153.139 
        1.46036         133.033         20.4043          152.41 
        1.46649         131.993         20.2017         151.927 
        1.47263          131.31         20.0017         151.348 
        1.47877         130.716         19.8045         150.294 
        1.48491          129.29         19.6096         149.617 
        1.49104         129.174         19.4178         149.269 
        1.49718         127.832         19.2284         148.018 
        1.50333         127.374         19.0412         147.235 
        1.50947         126.829          18.857         146.751 
         1.5156         125.799         18.6754         146.061 
        1.52172         125.033         18.4962         145.279 
        1.52787         124.197         18.3191         144.618 
          1.534         123.644         18.1444             144 
        1.54013         122.795         17.9723          143.39 
        1.54627         122.212          17.802         142.761 
        1.55241         121.169          17.634         142.053 
        1.55855         120.483         17.4684         141.281 
        1.56467         120.073         17.3053         140.545 
         1.5708         119.095         17.1439         140.045 
        1.57695         118.542         16.9843         139.442 
        1.58308          117.89         16.8271         138.645 
        1.58922         117.389         16.6718         138.013 
        1.59535          116.39         16.5185         137.443 
         1.6015         115.905         16.3669         136.704 
        1.60764         115.169         16.2173         136.007 
        1.61376         114.621           16.07         135.641 
        1.61989         113.731         15.9244         135.156 
        1.62604          113.17         15.7803         134.176 
        1.63218         112.627         15.6381         133.511 
        1.63831         111.678         15.4979         133.155 
        1.64444         111.288         15.3595         132.282 
        1.65059         110.663         15.2223         131.822 
        1.65673         109.517          15.087         131.232 
        1.66285         109.387         14.9538         130.589 
        1.66898         108.738          14.822         130.132 
        1.67512         108.176         14.6917         129.525 
        1.68127         107.268         14.5628         128.914 
         1.6874         106.465         14.4357         128.377 
        1.69353         106.108         14.3102         127.819 
        1.69967          105.59         14.1859         127.131 
        1.70581         104.842         14.0631         126.539 
        1.71193         104.392         13.9423         126.031 
        1.71806         103.725         13.8226         125.398 
        1.72421         102.996         13.7041          124.85 
        1.73035         102.731         13.5871         124.274 
        1.73649         101.935         13.4715         123.658 
        1.74262         101.198         13.3574         123.203 
        1.74876         100.884         13.2445         122.653 
        1.75489         100.014         13.1331         122.021 
        1.76101         99.4869         13.0231         121.462 
        1.76715         98.7893         12.9142         121.023 
        1.77329         98.5496         12.8063         120.419 
        1.77943         97.6425         12.6997         119.779 
        1.78557         97.2181         12.5944         119.339 
        1.79171         96.5108         12.4904         118.917 
        1.79785         96.0774         12.3874         118.421 
        1.80399         95.4292         12.2857         117.847 
        1.81012         95.0061         12.1852         117.196 
        1.81625         94.4151         12.0859         116.695 
        1.82239         94.0911         11.9876         116.299 
        1.82853         93.5104         11.8904         115.729 
        1.83466         92.7154         11.7944         115.152 
        1.84078         92.5405         11.6995         114.716 
        1.84692         91.7481         11.6055         114.381 
        1.85306         91.2705         11.5125         113.798 
         1.8592         90.7642         11.4206         113.189 
        1.86533          90.086         11.3298         112.817 
        1.87147         89.5764         11.2398         112.218 
        1.87761         89.1771         11.1508         111.688 
