# k  (h/Mpc)    P(k)  (Mpc/h)^3    P_linear(k)  (Mpc/h)^3     P_NL(k)  ShotnoiseSubtracted = false
     0.00783031         14037.7         14236.2         14176.6 
       0.013688         17978.3         17819.5         17706.3 
       0.019231         18311.3         18284.2         18128.5 
      0.0249154         16747.3         17108.4         16943.4 
      0.0312784         14762.5         14941.4         14772.7 
      0.0375637         12718.4         12734.8         12584.7 
      0.0433917         10817.5           11020         10865.4 
      0.0492413         9660.09         9732.29          9590.4 
      0.0555754          8509.9         8774.74         8649.07 
      0.0619321         8132.15         8121.52         7998.34 
       0.067871         7420.37         7635.95         7518.46 
      0.0738098         6941.91         7152.03         6971.12 
      0.0800417         6306.52         6577.72         6410.81 
      0.0862327         5765.62         5937.22         5842.05 
      0.0921407         5255.11         5305.56         5233.33 
      0.0982031         4645.46         4698.85         4714.66 
       0.104506         4274.99         4167.47         4256.47 
       0.110769         3883.88          3766.1          3832.9 
       0.116806         3609.82         3493.73          3559.3 
       0.122832         3428.44          3307.7         3380.16 
       0.129052         3202.88         3166.82         3226.74 
       0.135211         3071.85         3039.02         3084.82 
       0.141259         2969.17         2896.28         2960.76 
       0.147318         2818.66         2723.96         2816.72 
       0.153489         2591.69          2522.8         2590.41 
       0.159709         2440.07         2311.04         2429.38 
       0.165845         2320.64          2113.9         2303.54 
       0.171974         2167.26         1945.04         2149.38 
       0.178125         2046.99         1811.68         2060.38 
       0.184229          1949.2         1714.17         1948.13 
        0.19034         1840.48          1643.5         1867.51 
       0.196428         1811.48         1588.42         1788.28 
       0.202534         1753.03         1536.65         1735.15 
       0.208729         1679.53         1478.34         1654.65 
       0.214876         1611.73         1410.34         1619.13 
       0.220989         1557.89         1333.62         1565.43 
       0.227147         1486.04          1252.1         1505.69 
        0.23329         1422.81         1173.08         1455.79 
       0.239377         1394.24         1102.73         1392.86 
       0.245482         1303.72         1043.44         1325.27 
       0.251667         1293.92         995.441         1288.88 
       0.257832         1242.98         957.783         1241.82 
       0.263955         1203.77         926.905         1203.16 
       0.270079         1163.26         898.569         1170.02 
        0.27624         1151.76          869.35         1135.71 
       0.282372         1103.82         837.565          1112.3 
        0.28843         1093.18         803.337          1086.1 
       0.294538         1038.61         767.074         1056.76 
       0.300721         1032.53         730.548         1025.48 
        0.30691         989.325         696.183         1006.96 
       0.313033         969.638         665.804         971.953 
       0.319153         950.165         639.627         943.331 
       0.325316         919.536         617.177         924.468 
        0.33145         898.299         597.816         890.759 
       0.337538         883.018         580.283         874.344 
       0.343633         861.366         563.228         865.315 
       0.349808         832.299         545.644         850.764 
       0.355968          826.76         527.384         836.173 
       0.362074         816.912         508.794         819.369 
       0.368217         792.106         490.032         797.036 
       0.374374          760.39         471.852         781.206 
       0.380519         760.229         454.867         763.475 
       0.386598         739.461         439.519          753.82 
       0.392688         736.922         425.693         733.265 
        0.39888         714.864         412.961         721.871 
       0.405048         704.317          401.29          710.85 
       0.411186         693.973         390.257         695.065 
       0.417313          679.73         379.443         684.208 
       0.423458         667.669         368.634         674.082 
       0.429607         657.894         357.782         661.464 
       0.435692         643.477          347.08         648.061 
       0.441815         638.042         336.548         644.059 
       0.447964         624.159          326.39         633.767 
       0.454126         615.789         316.752         616.386 
       0.460267          602.13         307.782         614.141 
       0.466387          595.48         299.461         602.547 
        0.47254         587.915         291.597         594.281 
       0.478662         584.165         284.161         583.833 
       0.484765         565.785         277.023         575.245 
       0.490885         561.809         270.035         566.017 
       0.497035         550.101         263.105         560.305 
       0.503198         545.613         256.272         553.133 
       0.509342         540.449         249.611         545.139 
       0.515458         536.105         243.168         541.075 
       0.521598         522.692         236.928         533.456 
       0.527764         513.142         230.933          527.53 
       0.533884         511.399         225.279         520.782 
           0.54         505.169         219.899         513.242 
       0.546137         501.947         214.725         506.974 
       0.552299         493.302         209.717         500.078 
       0.558452         490.262         204.874         495.729 
       0.564573         483.285         200.188         491.757 
       0.570708         477.106         195.602          486.74 
       0.576825          464.71         191.128         478.346 
       0.582926         465.137         186.776         474.085 
       0.589034         460.576         182.544         467.204 
       0.595184         456.443         178.427         462.059 
       0.601379         449.638         174.434         457.683 
       0.607522         443.521         170.618         451.761 
       0.613639         442.576         166.948         449.804 
       0.619772          432.38         163.388         448.268 
       0.625918         430.727          159.93         440.863 
       0.632068         424.066         156.571         436.958 
       0.638161         422.462         153.336         432.087 
         0.6443         414.898         150.162         428.584 
       0.650464         412.153         147.056          421.24 
       0.656582          409.41         144.051         418.419 
       0.662703         407.659         141.123         416.521 
       0.668861         400.419         138.261         413.315 
       0.675024         396.792          135.48         409.643 
       0.681124         393.823         132.812         402.946 
       0.687237          390.21         130.219         399.538 
       0.693381         384.757         127.689         396.134 
       0.699536         379.738         125.225         393.512 
       0.705665         378.063         122.837         388.761 
       0.711789         375.743         120.511         386.434 
       0.717957         372.372         118.225         384.717 
        0.72409          369.57         116.008          380.74 
       0.730186         364.587         113.859         377.046 
       0.736317         361.584         111.753         373.612 
       0.742472         359.604         109.692         370.071 
       0.748622         355.819         107.688         366.881 
        0.75476         351.405          105.74         367.237 
       0.760888          347.63         103.845         362.062 
       0.767043         348.272         101.992         359.136 
       0.773185         343.755         100.188          356.43 
       0.779291          339.09         98.4391         352.948 
       0.785407         337.746         96.7296         351.048 
       0.791564         333.436         95.0498         348.417 
       0.797719         331.044         93.4101         345.291 
       0.803834         327.835         91.8191         343.851 
       0.809972         326.907         90.2592         341.153 
       0.816124         326.158          88.732         336.866 
       0.822261         321.383         87.2443         335.391 
       0.828378         319.407         85.7953         332.749 
       0.834502         316.415         84.3782         331.033 
       0.840667          313.39         82.9845         327.871 
       0.846816          311.81         81.6266         326.032 
       0.852925         309.605         80.3081          323.81 
       0.859047         307.598         79.0163         321.495 
       0.865192         303.824         77.7491         318.771 
       0.871341         301.549         76.5092         316.929 
       0.877463         300.321         75.3022             315 
       0.883569         298.326         74.1245         313.568 
       0.889708         295.399         72.9662         310.361 
       0.895864         292.832         71.8297         308.488 
       0.902008         291.013           70.72         306.365 
       0.908149          288.86         69.6344         303.674 
       0.914301         285.691         68.5699         301.536 
       0.920448         283.982         67.5288         299.545 
       0.926574         280.834         66.5131         297.497 
       0.932687         280.994         65.5205         295.505 
       0.938823         277.495         64.5447         294.765 
       0.944975         276.837         63.5867         292.542 
       0.951105         274.317         62.6516         290.328 
       0.957225         272.368         61.7371         288.416 
       0.963368         268.902         60.8378         286.611 
       0.969511         267.645         59.9566         284.511 
       0.975621         265.529         59.0976         283.081 
       0.981748         264.889         58.2534         281.519 
       0.987916         262.841         57.4205           279.9 
        0.99406         258.956         56.6071         278.078 
        1.00019         258.542         55.8112         275.683 
        1.00632         256.859         55.0314         273.881 
        1.01246         254.618         54.2655         271.763 
        1.01859         254.917         53.5155         270.342 
        1.02471         250.766         52.7806         269.218 
        1.03085          249.13         52.0571         267.993 
        1.03698         248.291         51.3488         266.962 
        1.04314         245.614         50.6507         264.677 
        1.04929         244.015         49.9673         262.562 
        1.05541         244.209         49.2993         261.071 
        1.06154         240.262         48.6419         259.684 
        1.06769          239.75         47.9956         258.253 
        1.07382         237.956         47.3632         256.582 
        1.07993         236.127         46.7437         255.311 
        1.08607         235.462         46.1328         253.515 
        1.09222         233.384         45.5322         252.113 
        1.09836         231.586         44.9431         251.183 
        1.10449         229.224         44.3652         249.798 
        1.11063          227.25         43.7968         248.202 
        1.11677         226.834         43.2386         246.322 
         1.1229         225.087         42.6912         245.166 
        1.12903         223.739         42.1528         244.085 
        1.13518         222.145         41.6233         242.386 
        1.14131         220.288         41.1031         240.989 
        1.14745         219.917         40.5922         239.648 
        1.15359         217.952           40.09         238.356 
        1.15973         216.336          39.596          236.97 
        1.16584         214.659         39.1126         235.267 
        1.17197         214.602         38.6367         234.654 
        1.17811         211.888         38.1672         233.317 
        1.18424         210.785         37.7069         231.716 
        1.19038         210.059         37.2529         231.049 
        1.19652         208.251         36.8066          229.65 
        1.20267         207.658         36.3676         227.931 
        1.20881         205.707          35.936         227.097 
        1.21495         204.487          35.512          225.62 
        1.22108         203.199          35.095         224.302 
         1.2272         201.629         34.6857         222.547 
        1.23334         200.713          34.282         221.834 
        1.23949         199.211         33.8838         221.129 
        1.24562         198.158          33.493         219.377 
        1.25174         196.629          33.109         218.488 
        1.25789         195.181         32.7299          217.11 
        1.26402         193.538         32.3574         216.232 
        1.27014         192.321         31.9917         215.102 
        1.27628         191.387         31.6305         214.573 
        1.28244         191.141         31.2743          213.28 
        1.28858         188.932          30.924         211.856 
        1.29471         187.498         30.5799         210.277 
        1.30084         186.696         30.2414         209.426 
        1.30697         185.225         29.9075         208.555 
        1.31312         183.666         29.5782         206.961 
        1.31925         183.119         29.2549         205.999 
        1.32537         182.194         28.9368         205.234 
        1.33151         180.294         28.6223         204.091 
        1.33765         179.258         28.3127         202.979 
        1.34378         178.526         28.0082         202.156 
        1.34992          177.55         27.7081         200.686 
        1.35606         177.328         27.4117         199.517 
         1.3622         175.296         27.1201         198.861 
        1.36833          173.72         26.8336         197.829 
        1.37445          172.97         26.5513         196.343 
        1.38059          171.55         26.2722         195.569 
        1.38675         170.898         25.9965         194.809 
        1.39288         169.749         25.7258         192.985 
        1.39901         169.451         25.4591         192.551 
        1.40515         167.509         25.1956         191.853 
         1.4113         166.637          24.936         190.705 
        1.41742         165.448          24.681         189.847 
        1.42355         164.585         24.4291         188.933 
         1.4297         163.305         24.1799         187.947 
        1.43585         162.437         23.9344         186.923 
        1.44198         161.461         23.6932         186.184 
        1.44809         160.782         23.4558         185.203 
        1.45423         159.687         23.2208         183.921 
        1.46036         158.599         22.9894         183.103 
        1.46649         157.342         22.7611         182.537 
        1.47263          156.36         22.5358          181.74 
        1.47877         155.546         22.3136         180.499 
        1.48491         153.962         22.0941         179.513 
        1.49104         153.779         21.8779         179.125 
        1.49718         152.164         21.6645         177.887 
        1.50333         151.582         21.4537         176.895 
        1.50947         150.803          21.246         176.295 
         1.5156         149.555         21.0415         175.383 
        1.52172         148.812         20.8396          174.17 
        1.52787         147.479           20.64         173.571 
          1.534         147.076         20.4433         172.804 
        1.54013         146.054         20.2493         171.982 
        1.54627         145.123         20.0575         171.328 
        1.55241         144.082         19.8681         170.469 
        1.55855         143.242         19.6815         169.395 
        1.56467         142.259         19.4978         168.588 
         1.5708         141.465         19.3159         167.921 
        1.57695         140.703         19.1361         167.117 
        1.58308         139.989          18.959         166.288 
        1.58922         139.139          18.784          165.51 
        1.59535         137.971         18.6113           164.8 
         1.6015         137.486         18.4406         163.902 
        1.60764         136.513          18.272         162.996 
        1.61376          135.58          18.106         162.419 
        1.61989         134.767          17.942         161.791 
        1.62604         133.848         17.7796         160.766 
        1.63218         133.296         17.6194         159.993 
        1.63831         132.185         17.4615         159.419 
        1.64444         131.652         17.3054         158.438 
        1.65059         130.809         17.1509         157.941 
        1.65673         129.629         16.9985         157.133 
        1.66285         129.359         16.8483         156.249 
        1.66898         128.308         16.6999          155.71 
        1.67512         128.022          16.553         154.973 
        1.68127         126.661         16.4078         154.361 
         1.6874         125.769         16.2646         153.781 
        1.69353         125.414         16.1232         152.912 
        1.69967         124.503         15.9832         152.074 
        1.70581         123.773         15.8449         151.457 
        1.71193         122.955         15.7087         150.805 
        1.71806         122.379         15.5739         149.803 
        1.72421          121.57         15.4403         149.213 
        1.73035         121.304         15.3085         148.676 
        1.73649         120.369         15.1783         147.919 
        1.74262         119.374         15.0497         147.259 
        1.74876         118.855         14.9225         146.615 
        1.75489          117.94          14.797         145.937 
        1.76101         117.167         14.6731         145.281 
        1.76715         116.624         14.5503         144.702 
        1.77329         116.268         14.4288         143.897 
        1.77943         115.183         14.3087         143.086 
        1.78557         114.669         14.1901         142.568 
        1.79171          113.89         14.0728         142.035 
        1.79785         113.212         13.9569         141.393 
        1.80399         112.455         13.8422         140.707 
        1.81012         111.887          13.729         139.997 
        1.81625         111.247         13.6172         139.404 
        1.82239         110.736         13.5064         138.846 
        1.82853         110.026         13.3969         138.105 
        1.83466         109.186         13.2887         137.388 
        1.84078         108.848         13.1818         136.848 
        1.84692         107.801         13.0759         136.424 
        1.85306         107.571         12.9711         135.722 
         1.8592          106.72         12.8676         134.985 
        1.86533         105.845         12.7652         134.574 
        1.87147         105.323         12.6639         134.044 
        1.87761         104.744         12.5636         133.391 
