# k  (h/Mpc)    P(k)  (Mpc/h)^3    P_linear(k)  (Mpc/h)^3     P_NL(k)  ShotnoiseSubtracted = false
     0.00783031         19836.9         20163.9         20070.6 
       0.013688         25490.8         25236.1         25048.8 
       0.019231           25895         25892.7           25629 
      0.0249154         23567.4         24226.8         23926.8 
      0.0312784         20787.4         21157.7         20827.8 
      0.0375637         17944.7         18032.6         17735.4 
      0.0433917         15203.8         15604.4         15293.1 
      0.0492413         13608.4         13780.9         13492.5 
      0.0555754         11921.7         12424.9         12171.5 
      0.0619321         11452.1         11499.9         11253.7 
       0.067871         10387.6         10812.3         10579.5 
      0.0738098         9721.35         10127.1         9772.58 
      0.0800417         8808.59         9313.83         8988.82 
      0.0862327         8073.18         8406.89         8217.79 
      0.0921407         7397.52         7512.46         7368.77 
      0.0982031         6555.75         6653.38         6672.79 
       0.104506         6071.65         5900.97         6057.95 
       0.110769         5530.48         5332.63         5457.36 
       0.116806         5167.24         4946.97         5069.61 
       0.122832         4896.67         4683.56         4816.61 
       0.129052         4559.87         4484.06         4597.33 
       0.135211         4365.83          4303.1         4385.95 
       0.141259         4231.49            4101         4222.78 
       0.147318         4026.45         3856.99         4021.88 
       0.153489         3704.02         3572.15         3700.33 
       0.159709         3501.42         3272.32         3491.64 
       0.165845         3362.17         2993.18         3334.47 
       0.171974         3158.13         2754.08         3130.45 
       0.178125         2991.64         2565.25         3016.29 
       0.184229         2838.79         2427.18         2849.79 
        0.19034         2713.06         2327.12         2734.69 
       0.196428         2658.31         2249.11         2625.87 
       0.202534         2557.52         2175.81         2549.17 
       0.208729         2459.72         2093.25         2428.65 
       0.214876         2381.06         1996.96         2377.87 
       0.220989         2300.04         1888.33         2312.36 
       0.227147         2210.53         1772.91          2242.1 
        0.23329         2122.98         1661.01         2172.38 
       0.239377         2093.34          1561.4         2084.35 
       0.245482          1970.7         1477.45         1991.48 
       0.251667         1958.93         1409.49         1938.23 
       0.257832         1882.07         1356.17          1872.2 
       0.263955         1820.54         1312.45         1819.69 
       0.270079          1763.3         1272.33         1770.96 
        0.27624         1740.73         1230.95         1722.06 
       0.282372         1672.44         1185.95         1699.47 
        0.28843          1673.1         1137.48         1670.02 
       0.294538         1596.74         1086.13         1623.41 
       0.300721         1581.11         1034.42         1576.23 
        0.30691         1528.78         985.756         1555.89 
       0.313033         1495.68         942.741          1505.9 
       0.319153         1480.37         905.676         1460.71 
       0.325316         1430.78         873.889         1436.89 
        0.33145         1403.07         846.474         1386.84 
       0.337538         1373.42         821.648         1366.93 
       0.343633         1351.08           797.5         1351.17 
       0.349808         1310.55         772.602         1333.14 
       0.355968         1298.46         746.746         1311.43 
       0.362074         1289.28         720.423         1289.88 
       0.368217         1246.75         693.858         1262.11 
       0.374374         1208.47         668.116         1238.02 
       0.380519         1211.46         644.067         1215.53 
       0.386598            1175         622.334         1196.92 
       0.392688         1168.77         602.758         1174.11 
        0.39888          1137.3          584.73         1153.34 
       0.405048         1128.81         568.205         1132.98 
       0.411186         1111.39         552.582         1117.06 
       0.417313         1087.91         537.271         1105.18 
       0.423458         1069.82         521.964         1084.45 
       0.429607         1058.63         506.599         1069.45 
       0.435692         1039.38         491.447         1047.05 
       0.441815         1029.25         476.533         1044.91 
       0.447964          1009.2          462.15          1033.5 
       0.454126          1004.2         448.503         1003.73 
       0.460267         979.368         435.802         1001.46 
       0.466387         964.495          424.02         983.944 
        0.47254          967.82         412.885         969.931 
       0.478662         950.532         402.356         957.537 
       0.484765         928.045         392.249         948.728 
       0.490885         922.855         382.354          930.66 
       0.497035         902.617         372.541         923.644 
       0.503198         898.109         362.867         914.245 
       0.509342         886.429         353.436           897.8 
       0.515458         882.636         344.312         891.865 
       0.521598         862.682         335.477         884.122 
       0.527764         848.343         326.988         875.924 
       0.533884          844.82         318.982         866.323 
           0.54         840.641         311.364          856.87 
       0.546137         827.068         304.038         847.722 
       0.552299         819.934         296.948         836.289 
       0.558452         810.436          290.09         830.176 
       0.564573         801.487         283.455         822.326 
       0.570708         793.283         276.962         811.114 
       0.576825          774.84         270.627         802.116 
       0.582926         778.061         264.464         797.203 
       0.589034         767.919         258.472         785.674 
       0.595184         761.689         252.642           778.5 
       0.601379         752.175         246.989         772.056 
       0.607522         740.774         241.585         760.217 
       0.613639         739.989         236.389         757.556 
       0.619772          728.01         231.348         755.032 
       0.625918         721.278         226.452         745.845 
       0.632068         713.239         221.696          742.34 
       0.638161         709.064         217.115          729.92 
         0.6443         698.499         212.621         723.991 
       0.650464          696.88         208.223         716.438 
       0.656582         688.662         203.968         712.044 
       0.662703          686.62         199.823         706.364 
       0.668861         675.577         195.769         703.588 
       0.675024         668.779         191.832             699 
       0.681124         665.156         188.054         689.083 
       0.687237         660.559         184.383         682.952 
       0.693381         652.418         180.801         676.462 
       0.699536         640.233         177.312         672.007 
       0.705665         641.027          173.93         664.195 
       0.711789         636.379         170.636         658.652 
       0.717957         630.483           167.4         658.103 
        0.72409         626.837          164.26         651.448 
       0.730186         618.018         161.218         644.359 
       0.736317         615.856         158.235         640.458 
       0.742472         609.813         155.318         637.005 
       0.748622         604.059          152.48         630.141 
        0.75476         594.581         149.722         629.957 
       0.760888         591.193         147.039         623.537 
       0.767043         588.478         144.414         614.815 
       0.773185         583.742         141.861         611.313 
       0.779291         578.656         139.384         606.467 
       0.785407         572.445         136.964          602.81 
       0.791564          567.53         134.585          601.67 
       0.797719         566.118         132.263         596.007 
       0.803834         558.245         130.011         591.532 
       0.809972         555.605         127.802         587.898 
       0.816124         554.077         125.639         581.537 
       0.822261         545.389         123.533         578.376 
       0.828378         543.115         121.481         574.404 
       0.834502         537.219         119.475         572.498 
       0.840667           532.4         117.501         568.468 
       0.846816         529.187         115.579         563.768 
       0.852925         526.063         113.712         560.309 
       0.859047         524.261         111.883           554.5 
       0.865192         516.332         110.088         551.635 
       0.871341         512.771         108.333         547.841 
       0.877463         511.703         106.624         544.948 
       0.883569         506.231         104.956         542.043 
       0.889708         504.158         103.316         536.767 
       0.895864         502.091         101.707         533.844 
       0.902008         497.564         100.135         530.285 
       0.908149         489.486         98.5984         524.771 
       0.914301         488.678         97.0912         520.725 
       0.920448         485.973          95.617         520.179 
       0.926574          478.62         94.1788         516.874 
       0.932687         476.714         92.7733         511.664 
       0.938823         472.364         91.3916         510.324 
       0.944975         471.032         90.0351         507.249 
       0.951105         467.143         88.7111         503.229 
       0.957225           463.1         87.4162         500.455 
       0.963368         458.084         86.1429         497.059 
       0.969511         457.005         84.8951         493.981 
       0.975621         453.621         83.6789         490.826 
       0.981748         449.452         82.4836          488.04 
       0.987916         446.941         81.3042         485.623 
        0.99406         440.965         80.1525         482.323 
        1.00019         439.326         79.0255         478.202 
        1.00632         436.804         77.9214         475.158 
        1.01246         433.104         76.8369         472.725 
        1.01859         431.377         75.7749         469.416 
        1.02471         427.147         74.7344         466.658 
        1.03085         424.515         73.7099         465.364 
        1.03698         421.736          72.707         463.407 
        1.04314         418.348         71.7185         459.725 
        1.04929         414.641         70.7508         455.615 
        1.05541         414.931          69.805         452.742 
        1.06154         408.915         68.8742         450.469 
        1.06769         406.871          67.959         447.141 
        1.07382         403.221         67.0636          444.38 
        1.07993         400.879         66.1864         442.158 
        1.08607          399.99         65.3214         439.363 
        1.09222          394.63          64.471         436.721 
        1.09836         391.427         63.6369          435.01 
        1.10449          390.06         62.8185          433.28 
        1.11063         384.013         62.0138         429.141 
        1.11677         385.118         61.2234         427.399 
         1.1229         382.044         60.4483         424.381 
        1.12903         379.328         59.6859         421.917 
        1.13518         375.116         58.9362         418.505 
        1.14131         373.385         58.1997         417.579 
        1.14745         369.991         57.4763         413.678 
        1.15359         368.362         56.7651         413.039 
        1.15973         366.038         56.0657         410.068 
        1.16584         363.105         55.3812         408.385 
        1.17197         361.257         54.7073         406.058 
        1.17811         358.336         54.0425         402.945 
        1.18424         354.948         53.3908         400.902 
        1.19038         353.243          52.748         399.316 
        1.19652         351.119         52.1161         395.904 
        1.20267         349.381         51.4945         394.309 
        1.20881         346.269         50.8833         392.211 
        1.21495         343.992          50.283         389.687 
        1.22108         341.325         49.6925         387.076 
         1.2272         339.504         49.1129         386.172 
        1.23334         337.541         48.5413         383.191 
        1.23949         333.743         47.9775         380.876 
        1.24562         331.744         47.4242         378.835 
        1.25174         330.514         46.8805         376.934 
        1.25789         326.724         46.3437         374.727 
        1.26402         325.292         45.8163         373.285 
        1.27014         322.495         45.2984         370.489 
        1.27628         319.779          44.787         369.433 
        1.28244         319.981         44.2826         367.667 
        1.28858         316.405         43.7867         365.385 
        1.29471         315.432         43.2994         363.023 
        1.30084         312.271         42.8201         360.383 
        1.30697         311.438         42.3473         359.169 
        1.31312         307.856         41.8811         357.553 
        1.31925         305.891         41.4233         355.174 
        1.32537         304.774         40.9729         352.849 
        1.33151         302.051         40.5275         351.616 
        1.33765         299.412         40.0891         350.011 
        1.34378         298.551         39.6581          347.17 
        1.34992         296.292          39.233         345.531 
        1.35606         293.954         38.8134         343.514 
         1.3622         292.033         38.4006         342.423 
        1.36833         290.801         37.9948         341.168 
        1.37445         288.264         37.5951         338.351 
        1.38059         286.636         37.1999         337.193 
        1.38675         284.257         36.8095         335.723 
        1.39288         282.769         36.4262         333.689 
        1.39901         280.774         36.0486         331.422 
        1.40515         279.463         35.6755         329.355 
         1.4113         276.969         35.3079         327.482 
        1.41742          275.03         34.9468         325.939 
        1.42355         273.385         34.5902         324.634 
         1.4297         271.486         34.2374         322.108 
        1.43585         270.062         33.8897         321.593 
        1.44198         268.791         33.5482         319.478 
        1.44809         265.396         33.2121         317.767 
        1.45423         264.015         32.8793         315.551 
        1.46036         262.656         32.5517         314.258 
        1.46649         261.395         32.2285          312.78 
        1.47263         259.542         31.9094         310.598 
        1.47877         257.429         31.5948         308.881 
        1.48491         255.081         31.2839         307.065 
        1.49104         253.912         30.9779         305.664 
        1.49718         252.095         30.6758         305.323 
        1.50333         250.991         30.3772         302.799 
        1.50947         249.092         30.0832           300.9 
         1.5156         246.868         29.7935         300.103 
        1.52172         246.202         29.5077         298.714 
        1.52787         244.066         29.2251         296.955 
          1.534         243.188         28.9465         295.266 
        1.54013         240.741         28.6718         293.962 
        1.54627         239.612         28.4002         292.772 
        1.55241         237.955         28.1321         291.461 
        1.55855         235.286         27.8679         289.973 
        1.56467         235.403         27.6078         287.932 
         1.5708          233.17         27.3503         286.277 
        1.57695         231.164         27.0957          284.91 
        1.58308         230.071         26.8449         283.329 
        1.58922         228.024         26.5971         282.057 
        1.59535         226.945         26.3526         280.897 
         1.6015         225.122         26.1108         280.016 
        1.60764          223.95         25.8721         278.409 
        1.61376         222.565         25.6371         276.237 
        1.61989         220.996         25.4049         275.154 
        1.62604         219.327         25.1749         273.763 
        1.63218         218.274          24.948         272.355 
        1.63831         216.809         24.7244          271.11 
        1.64444         215.172         24.5035         269.635 
        1.65059         214.241         24.2847         268.665 
        1.65673         212.381         24.0689         267.506 
        1.66285         210.989         23.8563         265.884 
        1.66898         209.743         23.6462         264.204 
        1.67512         208.623         23.4382         263.096 
        1.68127           206.6         23.2325         261.826 
         1.6874         205.716         23.0297         260.567 
        1.69353         204.287         22.8295         259.745 
        1.69967         202.941         22.6313         258.341 
        1.70581         201.621         22.4354         256.898 
        1.71193         200.213         22.2426          255.65 
        1.71806         199.239         22.0517         254.246 
        1.72421         197.595         21.8626         252.944 
        1.73035         196.926          21.676         251.751 
        1.73649         195.648         21.4916         250.522 
        1.74262         193.697         21.3095         249.181 
        1.74876         192.578         21.1294         248.035 
        1.75489         191.712         20.9518         247.151 
        1.76101         190.177         20.7762         246.222 
        1.76715         189.082         20.6024         244.803 
        1.77329         188.032         20.4304         243.778 
        1.77943          186.59         20.2603         242.779 
        1.78557          185.16         20.0924         241.202 
        1.79171           184.5         19.9263         239.984 
        1.79785         182.848         19.7621         238.985 
        1.80399         181.887         19.5998         237.743 
        1.81012         180.616         19.4395         236.899 
        1.81625         179.502         19.2811         235.939 
        1.82239         178.372         19.1242         234.633 
        1.82853         177.344         18.9692         233.541 
        1.83466         176.412          18.816         232.423 
        1.84078         175.103         18.6647         231.283 
        1.84692         174.128         18.5147         230.365 
        1.85306         172.802         18.3663         229.249 
         1.8592         171.944         18.2197         228.048 
        1.86533         170.899         18.0748          227.07 
        1.87147         169.957         17.9313         225.964 
        1.87761         168.755         17.7893         224.955 
