# k  (h/Mpc)    P(k)  (Mpc/h)^3    P_linear(k)  (Mpc/h)^3     P_NL(k)  ShotnoiseSubtracted = false
     0.00783031         1017.98         1027.69         1023.84 
       0.013688         1285.87         1287.35         1282.02 
       0.019231          1321.4         1321.35         1314.95 
      0.0249154         1229.47          1236.6          1232.3 
      0.0312784          1078.8          1080.1         1078.51 
      0.0375637          922.89         920.646         919.895 
      0.0433917         795.721         796.717         796.695 
      0.0492413         704.624         703.642         703.863 
      0.0555754         632.206         634.428         634.379 
      0.0619321         589.983         587.211         586.992 
       0.067871         550.466          552.11         551.497 
      0.0738098         514.992         517.127         515.951 
      0.0800417          472.32         475.607         474.512 
      0.0862327         427.743         429.298         428.744 
      0.0921407         383.456         383.627         383.439 
      0.0982031         338.808          339.76         340.277 
       0.104506         303.125         301.339         302.408 
       0.110769         273.907         272.318           273.2 
       0.116806         252.828         252.625         253.382 
       0.122832         240.347         239.174          239.92 
       0.129052         228.677         228.987          229.52 
       0.135211         219.155         219.747          220.16 
       0.141259         209.686         209.426         209.895 
       0.147318         197.929         196.966         197.747 
       0.153489         182.806         182.421         183.002 
       0.159709         167.978         167.109         168.096 
       0.165845         155.109         152.855         154.457 
       0.171974         141.867         140.644         142.252 
       0.178125         132.655         131.002          132.94 
       0.184229         125.928         123.951         125.843 
        0.19034         119.469         118.841          120.58 
       0.196428          116.26         114.857         116.229 
       0.202534         113.263         111.114         112.459 
       0.208729         108.344         106.898         108.168 
       0.214876         102.804         101.981         103.605 
       0.220989         98.3308         96.4334         98.2123 
       0.227147          91.616         90.5392         92.3842 
        0.23329         86.1291         84.8248          86.991 
       0.239377          81.478         79.7379         82.0584 
       0.245482         76.6891         75.4506         77.5915 
       0.251667         73.9608         71.9801         74.2609 
       0.257832         71.1236         69.2571         71.4358 
       0.263955         68.7919         67.0243         69.0564 
       0.270079         66.7069         64.9754         66.9114 
        0.27624         65.0071         62.8626          64.683 
       0.282372         62.6206         60.5643         62.4966 
        0.28843         59.8503         58.0893         60.0768 
       0.294538         57.2443         55.4671          57.547 
       0.300721         55.0954         52.8259         55.0537 
        0.30691         52.3036         50.3409         52.6248 
       0.313033         50.1958         48.1443         50.3767 
       0.319153         47.7422         46.2514         48.5535 
       0.325316         46.8471         44.6281         46.9615 
        0.33145         45.1996         43.2281         45.4244 
       0.337538         43.9823         41.9603         44.0728 
       0.343633         42.5625         40.7271         42.8254 
       0.349808         41.3702         39.4556         41.6107 
       0.355968         40.0983         38.1352         40.4674 
       0.362074         38.6971         36.7909         39.0493 
       0.368217         37.3734         35.4343         37.5655 
       0.374374         35.9735         34.1196         36.3684 
       0.380519         34.9059         32.8915         35.0872 
       0.386598         33.8369         31.7816         34.0115 
       0.392688         32.9829         30.7819         33.0103 
        0.39888         31.9527         29.8613          32.045 
       0.405048         31.1623         29.0174         31.1128 
       0.411186         30.3844         28.2195         30.4482 
       0.417313         29.3965         27.4376          29.568 
       0.423458         28.6404         26.6559         28.8177 
       0.429607         27.7815         25.8713         27.9819 
       0.435692         26.9542         25.0974         27.2579 
       0.441815         26.2948         24.3359         26.5846 
       0.447964         25.7378         23.6013         25.7812 
       0.454126         24.7568         22.9044         25.0515 
       0.460267         24.1967         22.2558         24.4533 
       0.466387         23.4446         21.6541          23.771 
        0.47254          23.015         21.0854         23.2214 
       0.478662         22.5391         20.5477         22.6453 
       0.484765         21.8883         20.0316         22.1039 
       0.490885         21.3642         19.5263         21.6942 
       0.497035         21.0264         19.0252         21.2123 
       0.503198         20.4532         18.5311          20.602 
       0.509342         19.9362         18.0495         20.1572 
       0.515458         19.4225         17.5835         19.7658 
       0.521598         19.0198         17.1323         19.1858 
       0.527764         18.5509         16.6988         18.7149 
       0.533884         18.2062           16.29         18.3042 
           0.54         17.7829         15.9009         17.8952 
       0.546137         17.4374         15.5268         17.5588 
       0.552299         17.0908         15.1647         17.1009 
       0.558452         16.5699         14.8145          16.752 
       0.564573         16.3259         14.4756         16.4962 
       0.570708         15.9961         14.1441         16.1366 
       0.576825         15.5659         13.8205         15.7884 
       0.582926         15.2867         13.5058         15.4891 
       0.589034         14.8346         13.1998          15.214 
       0.595184         14.6022         12.9021         14.7977 
       0.601379         14.2838         12.6134         14.5953 
       0.607522         14.0498         12.3374          14.273 
       0.613639         13.8505         12.0721         13.9847 
       0.619772         13.4744         11.8146          13.757 
       0.625918         13.3362         11.5646         13.4725 
       0.632068         13.1095         11.3217         13.1964 
       0.638161          12.778         11.0878         12.9519 
         0.6443         12.5131         10.8583         12.6944 
       0.650464         12.2468         10.6337         12.5162 
       0.656582          12.135         10.4163         12.2759 
       0.662703         11.8974         10.2047         12.0378 
       0.668861          11.667         9.99768         11.8618 
       0.675024         11.4215         9.79659          11.609 
       0.681124         11.2171         9.60368         11.4039 
       0.687237         11.0307          9.4162         11.1712 
       0.693381         10.8696         9.23326         10.9722 
       0.699536         10.5722         9.05508         10.7983 
       0.705665         10.4461         8.88239         10.6747 
       0.711789          10.258         8.71417         10.4658 
       0.717957         10.0773         8.54887         10.2687 
        0.72409         9.89821         8.38855         10.1199 
       0.730186         9.76236         8.23319         9.93046 
       0.736317          9.6403         8.08087         9.76283 
       0.742472         9.47711         7.93189         9.66109 
       0.748622          9.3132         7.78693         9.48844 
        0.75476         9.10276         7.64609         9.31408 
       0.760888         8.98854          7.5091         9.18198 
       0.767043         8.87034         7.37504         9.05605 
       0.773185         8.67902         7.24463         8.92128 
       0.779291         8.59867         7.11817         8.78839 
       0.785407         8.45776         6.99455         8.63906 
       0.791564         8.31287         6.87308         8.51489 
       0.797719         8.16522         6.75452         8.36236 
       0.803834           8.095         6.63947         8.24091 
       0.809972         7.99434         6.52667         8.16086 
       0.816124         7.81286         6.41624         8.00945 
       0.822261         7.69068         6.30866         7.89018 
       0.828378         7.59901         6.20389         7.78119 
       0.834502         7.51848         6.10142         7.66915 
       0.840667         7.37214         6.00063         7.55698 
       0.846816          7.2418         5.90244         7.46684 
       0.852925         7.17244          5.8071         7.37202 
       0.859047          7.0686          5.7137         7.27171 
       0.865192         6.99315         5.62207         7.16333 
       0.871341         6.90538         5.53241         7.07633 
       0.877463         6.79195         5.44513         6.96409 
       0.883569         6.67299         5.35997         6.88141 
       0.889708         6.56014         5.27621         6.79011 
       0.895864         6.49629         5.19403         6.68913 
       0.902008         6.41471         5.11379         6.61284 
       0.908149         6.33726         5.03529         6.52045 
       0.914301         6.23343         4.95832         6.44919 
       0.920448         6.13769         4.88303         6.34142 
       0.926574         6.05591         4.80959         6.27742 
       0.932687         5.99328         4.73781         6.15857 
       0.938823         5.90914         4.66725          6.1161 
       0.944975         5.82553         4.59798         6.02611 
       0.951105         5.76244         4.53036         5.94169 
       0.957225         5.72675         4.46423         5.89435 
       0.963368         5.63567         4.39921         5.80855 
       0.969511         5.56145         4.33548         5.74465 
       0.975621         5.48398         4.27337         5.65214 
       0.981748         5.42279         4.21233         5.58787 
       0.987916         5.35847          4.1521         5.53605 
        0.99406         5.26828         4.09328         5.47212 
        1.00019         5.19314         4.03573         5.41788 
        1.00632         5.15774         3.97934         5.34319 
        1.01246         5.09615         3.92396         5.28946 
        1.01859         5.02389         3.86972         5.21506 
        1.02471         4.96905         3.81659         5.14005 
        1.03085         4.90933         3.76427         5.08639 
        1.03698          4.8383         3.71305         5.03769 
        1.04314         4.79407         3.66257          4.9764 
        1.04929          4.7293         3.61315         4.92347 
        1.05541         4.67111         3.56485         4.87509 
        1.06154         4.62565         3.51732         4.81987 
        1.06769         4.59319         3.47058         4.77308 
        1.07382         4.51681         3.42485         4.71665 
        1.07993         4.45917         3.38006         4.66028 
        1.08607         4.43008         3.33588         4.61009 
        1.09222         4.37376         3.29245         4.55459 
        1.09836          4.3288         3.24985         4.50252 
        1.10449         4.27865         3.20806         4.46061 
        1.11063         4.22761         3.16696          4.4083 
        1.11677         4.18812          3.1266         4.36772 
         1.1229         4.14107         3.08702         4.32769 
        1.12903         4.09111         3.04808         4.28576 
        1.13518          4.0495         3.00979         4.24036 
        1.14131         3.99112         2.97218         4.18576 
        1.14745         3.93807         2.93524         4.13591 
        1.15359         3.91629         2.89892         4.10775 
        1.15973         3.86391          2.8632         4.06256 
        1.16584         3.82623         2.82825         4.02814 
        1.17197           3.787         2.79383         3.98265 
        1.17811         3.75434         2.75988         3.94076 
        1.18424         3.71986          2.7266         3.89915 
        1.19038         3.68494         2.69377         3.86199 
        1.19652         3.64436          2.6615         3.83304 
        1.20267         3.60315         2.62976          3.7809 
        1.20881         3.56883         2.59854         3.75184 
        1.21495         3.53773         2.56789         3.72171 
        1.22108         3.49723         2.53773         3.68443 
         1.2272         3.47212         2.50814         3.63883 
        1.23334         3.42172         2.47894         3.61223 
        1.23949         3.38754         2.45015         3.58754 
        1.24562         3.36665         2.42189         3.55099 
        1.25174         3.32201         2.39413         3.50801 
        1.25789         3.29665         2.36671         3.47497 
        1.26402         3.26133         2.33978         3.43794 
        1.27014         3.22864         2.31333         3.41606 
        1.27628         3.20453         2.28722         3.38853 
        1.28244         3.16043         2.26146         3.35197 
        1.28858         3.14425         2.23613         3.31999 
        1.29471         3.10578         2.21125         3.28951 
        1.30084         3.07332         2.18677         3.26814 
        1.30697         3.06352         2.16263         3.23471 
        1.31312          3.0037         2.13881         3.20544 
        1.31925         2.98958         2.11544         3.18416 
        1.32537         2.95954         2.09243          3.1553 
        1.33151         2.94476         2.06969         3.12658 
        1.33765         2.90243          2.0473         3.09733 
        1.34378         2.87876         2.02529         3.07549 
        1.34992         2.86386         2.00358         3.04679 
        1.35606         2.82065         1.98215         3.01208 
         1.3622          2.8071         1.96107         2.98951 
        1.36833         2.77904         1.94035         2.97536 
        1.37445         2.75292         1.91993         2.94739 
        1.38059         2.73816         1.89975         2.92036 
        1.38675          2.7162         1.87982         2.89015 
        1.39288         2.68455         1.86024          2.8743 
        1.39901         2.65545         1.84096         2.85063 
        1.40515         2.63578         1.82191         2.82372 
         1.4113         2.61435         1.80313         2.80324 
        1.41742         2.59367         1.78469         2.78395 
        1.42355         2.57208         1.76648         2.74986 
         1.4297         2.54385         1.74846         2.73971 
        1.43585         2.53156         1.73071         2.72134 
        1.44198         2.51238         1.71327         2.68834 
        1.44809         2.48112          1.6961         2.67457 
        1.45423         2.46074         1.67911         2.64683 
        1.46036         2.43842         1.66238         2.62702 
        1.46649         2.41788         1.64587         2.61157 
        1.47263         2.39579         1.62957         2.59056 
        1.47877         2.37277         1.61351          2.5662 
        1.48491         2.35661         1.59763         2.54989 
        1.49104         2.34122           1.582         2.52647 
        1.49718         2.32074         1.56657         2.50957 
        1.50333         2.30226         1.55133         2.49181 
        1.50947         2.28297         1.53631         2.47108 
         1.5156         2.26462         1.52152         2.45405 
        1.52172         2.24729         1.50692         2.43903 
        1.52787         2.22934         1.49249         2.41331 
          1.534         2.21021         1.47826         2.39627 
        1.54013         2.19315         1.46423         2.37967 
        1.54627         2.17032         1.45037         2.36055 
        1.55241         2.15357         1.43667         2.34366 
        1.55855         2.14239         1.42318         2.32432 
        1.56467         2.12484          1.4099         2.31137 
         1.5708         2.10252         1.39674          2.2929 
        1.57695         2.08913         1.38374         2.27523 
        1.58308         2.07075         1.37094         2.26395 
        1.58922         2.05917         1.35828         2.24668 
        1.59535          2.0424         1.34579         2.23062 
         1.6015         2.02693         1.33345         2.21341 
        1.60764         2.01314         1.32126         2.19892 
        1.61376         1.99828         1.30926         2.18719 
        1.61989         1.97998          1.2974         2.16959 
        1.62604         1.96394         1.28565         2.15414 
        1.63218         1.95627         1.27407         2.14073 
        1.63831         1.93517         1.26265         2.12551 
        1.64444         1.91999         1.25136         2.10883 
        1.65059         1.90787         1.24019         2.09473 
        1.65673         1.89485         1.22917         2.08119 
        1.66285         1.87645         1.21831         2.06624 
        1.66898         1.86656         1.20758         2.05057 
        1.67512         1.84772         1.19696         2.03822 
        1.68127         1.83664         1.18646         2.02817 
         1.6874         1.82871          1.1761         2.01611 
        1.69353         1.80509         1.16588         1.99912 
        1.69967         1.79487         1.15575         1.98343 
        1.70581          1.7882         1.14575         1.97337 
        1.71193         1.77173          1.1359         1.96385 
        1.71806         1.76185         1.12615         1.94671 
        1.72421         1.74865          1.1165         1.93288 
        1.73035         1.73486         1.10697         1.92169 
        1.73649          1.7222         1.09755         1.90944 
        1.74262         1.70981         1.08825         1.89639 
        1.74876         1.70074         1.07905         1.88659 
        1.75489         1.68486         1.06998         1.87486 
        1.76101          1.6722         1.06102          1.8589 
        1.76715         1.66277         1.05214         1.84668 
        1.77329         1.65259         1.04336         1.83637 
        1.77943         1.63641         1.03467         1.82513 
        1.78557         1.62762         1.02609         1.81321 
        1.79171         1.62009         1.01761         1.80213 
        1.79785          1.6038         1.00923         1.79137 
        1.80399         1.59495         1.00094          1.7798 
        1.81012         1.58638        0.992754          1.7683 
        1.81625         1.57294        0.984664          1.7572 
        1.82239         1.56154        0.976652         1.74772 
        1.82853         1.54749        0.968733         1.74067 
        1.83466         1.54249         0.96091         1.73128 
        1.84078          1.5314        0.953182         1.71873 
        1.84692         1.52236        0.945526         1.70636 
        1.85306         1.50882        0.937945         1.69464 
         1.8592         1.49971         0.93046         1.68502 
        1.86533         1.48907         0.92306         1.67718 
        1.87147          1.4821        0.915732         1.66717 
        1.87761         1.47128        0.908481         1.65718 
