# k  (h/Mpc)    Pcb(k)  (Mpc/h)^3    Pcb_linear(k) (Mpc/h)^3    Pcb_NL(k) (Mpc/h)^3   ShotnoiseSubtracted = false
     0.00783031         13626.8         13817.7         13760.3 
       0.013688         17446.2         17295.9         17187.6 
       0.019231         17773.8           17747         17598.6 
      0.0249154         16263.5         16605.8         16449.8 
      0.0312784           14335         14502.6         14344.5 
      0.0375637         12347.8         12360.7         12220.4 
      0.0433917         10506.2         10696.3         10552.1 
      0.0492413         9380.03         9446.44         9314.28 
      0.0555754         8267.67         8517.02         8399.86 
      0.0619321         7896.42         7882.99         7768.05 
       0.067871         7209.56         7411.68          7301.9 
      0.0738098         6744.53         6941.98          6772.7 
      0.0800417         6128.83         6384.54          6228.3 
      0.0862327         5601.82         5762.85         5674.01 
      0.0921407         5103.16         5149.74         5082.42 
      0.0982031         4510.28         4560.85         4576.41 
       0.104506         4147.79         4045.08         4129.44 
       0.110769         3767.46         3655.49         3718.58 
       0.116806         3499.97         3391.13         3453.05 
       0.122832         3324.83         3210.56         3279.06 
       0.129052          3107.3         3073.81         3130.33 
       0.135211         2980.45         2949.76         2993.21 
       0.141259         2880.09         2811.23         2872.07 
       0.147318         2733.51         2643.96         2731.91 
       0.153489         2513.44         2448.71         2512.48 
       0.159709         2365.24         2243.17         2354.82 
       0.165845         2247.41         2051.82         2231.12 
       0.171974         2097.49         1887.92         2080.63 
       0.178125         1980.61         1758.48          1993.3 
       0.184229         1886.45         1663.83         1884.92 
        0.19034         1779.59         1595.24         1806.74 
       0.196428         1752.11         1541.77         1729.79 
       0.202534         1696.51         1491.52         1678.29 
       0.208729         1624.88         1434.93         1600.78 
       0.214876         1557.97         1368.92         1566.09 
       0.220989         1506.05         1294.45         1513.28 
       0.227147         1435.35         1215.33         1454.34 
        0.23329         1373.86         1138.63         1405.65 
       0.239377         1345.31         1070.34         1344.56 
       0.245482         1257.27         1012.79         1278.79 
       0.251667         1247.42         966.209         1243.49 
       0.257832         1198.52         929.655         1197.87 
       0.263955         1160.81         899.684         1160.28 
       0.270079         1121.59          872.18          1128.2 
        0.27624         1110.62         843.814         1094.86 
       0.282372         1064.34         812.967         1071.59 
        0.28843         1052.75         779.744         1045.66 
       0.294538         1000.01         744.545         1017.45 
       0.300721         994.273         709.093         987.397 
        0.30691          951.97         675.737         968.885 
       0.313033          933.04         646.249         934.935 
       0.319153         913.353         620.841         907.435 
       0.325316         884.079         599.055         888.979 
        0.33145         863.246         580.259         856.473 
       0.337538          848.93          563.24          840.29 
       0.343633         827.421         546.689         831.636 
       0.349808         799.433         529.617         817.392 
       0.355968         794.155         511.895         803.265 
       0.362074         784.177         493.852          786.79 
       0.368217         760.615         475.641         764.952 
       0.374374         729.714         457.995         749.612 
       0.380519         729.118         441.509         732.364 
       0.386598         709.421          426.61         723.077 
       0.392688         706.929         413.192         703.046 
        0.39888         685.727         400.835          692.07 
       0.405048         675.126         389.505         681.699 
       0.411186         665.028         378.795         666.067 
       0.417313         651.517           368.3         655.243 
       0.423458         639.926         357.808         645.645 
       0.429607          630.19         347.274         633.385 
       0.435692         616.238         336.888         620.543 
       0.441815         611.081         326.665         616.478 
       0.447964         597.726         316.805         606.381 
       0.454126         588.814         307.449         589.831 
       0.460267         576.274         298.744         587.504 
       0.466387         569.948         290.666         576.326 
        0.47254         561.915         283.033         568.417 
       0.478662         558.818         275.816         558.199 
       0.484765         541.019         268.888         549.586 
       0.490885         537.037         262.103         541.004 
       0.497035          525.95         255.379         535.429 
       0.503198         521.245         248.746         528.418 
       0.509342         516.459         242.281         521.015 
       0.515458         512.073         236.027         516.992 
       0.521598         499.386          229.97         509.337 
       0.527764         490.238         224.152         503.605 
       0.533884          488.45         218.663         497.126 
           0.54         482.314         213.441         489.798 
       0.546137         479.467         208.419         483.834 
       0.552299         470.869         203.558         477.218 
       0.558452         468.068         198.858         472.933 
       0.564573         461.286         194.309         469.148 
       0.570708         455.095         189.857         464.429 
       0.576825         443.644         185.516         456.201 
       0.582926         443.559          181.29          452.03 
       0.589034         439.283         177.183         445.616 
       0.595184         435.293         173.187         440.428 
       0.601379         428.924         169.311         436.328 
       0.607522         422.998         165.607         430.792 
       0.613639          421.87         162.045         428.714 
       0.619772         412.054         158.589         427.088 
       0.625918         410.614         155.233         420.045 
       0.632068          404.16         151.973         416.002 
       0.638161         402.623         148.833         411.756 
         0.6443         395.417         145.752          408.29 
       0.650464         392.581         142.737         401.199 
       0.656582         390.122          139.82         398.404 
       0.662703         388.386         136.979         396.683 
       0.668861         381.427           134.2         393.407 
       0.675024         377.832         131.501         389.834 
       0.681124         375.081         128.912         383.527 
       0.687237          371.56         126.395         380.286 
       0.693381         366.321         123.939         376.994 
       0.699536         361.804         121.548         374.476 
       0.705665         359.901          119.23          370.08 
       0.711789         357.606         116.971          367.82 
       0.717957         354.509         114.753         365.966 
        0.72409         351.619         112.601         362.308 
       0.730186         347.068         110.515         358.814 
       0.736317         344.018         108.471         355.421 
       0.742472         342.143         106.471         351.993 
       0.748622         338.637         104.525         348.956 
        0.75476         334.665         102.635         349.144 
       0.760888         330.965         100.796          344.21 
       0.767043         331.547         98.9963         341.595 
       0.773185         327.111         97.2458          338.97 
       0.779291         322.465         95.5482         335.557 
       0.785407         321.349         93.8889         333.674 
       0.791564         317.257         92.2584          331.12 
       0.797719         314.802         90.6669         328.311 
       0.803834          311.92         89.1226         326.851 
       0.809972         310.899         87.6085         324.224 
       0.816124         310.304         86.1261         320.301 
       0.822261         305.737         84.6821         318.791 
       0.828378         303.736         83.2757         316.229 
       0.834502         301.219         81.9002         314.496 
       0.840667         298.081         80.5474         311.521 
       0.846816         296.511         79.2294         309.831 
       0.852925         294.514         77.9496         307.645 
       0.859047         292.479         76.6958         305.504 
       0.865192         288.935         75.4658         302.901 
       0.871341         286.804         74.2623          301.06 
       0.877463         285.397         73.0907         299.285 
       0.883569          283.73         71.9476         297.886 
       0.889708         280.843         70.8233         294.827 
       0.895864         278.114         69.7202         293.044 
       0.902008          276.62         68.6431         291.023 
       0.908149         274.819         67.5894         288.459 
       0.914301         271.542         66.5562         286.492 
       0.920448         269.915         65.5457         284.456 
       0.926574         267.186         64.5598         282.535 
       0.932687         267.317         63.5963         280.683 
       0.938823         263.925         62.6492         279.875 
       0.944975         263.057         61.7193         277.915 
       0.951105         260.907         60.8117         275.786 
       0.957225         258.971          59.924         273.871 
       0.963368          255.62         59.0512         272.083 
       0.969511         254.391         58.1958         270.075 
       0.975621         252.294         57.3621         268.876 
       0.981748         251.893         56.5427         267.357 
       0.987916         249.756         55.7342         265.756 
        0.99406         246.265         54.9447         264.041 
        1.00019         246.016         54.1722         261.836 
        1.00632         244.221         53.4153         260.035 
        1.01246         242.128         52.6718         258.018 
        1.01859         242.318         51.9438         256.785 
        1.02471         238.485         51.2306         255.709 
        1.03085         236.782         50.5283         254.457 
        1.03698         235.962         49.8408          253.47 
        1.04314         233.469         49.1632         251.303 
        1.04929         232.011         48.4999         249.345 
        1.05541         232.109         47.8515         247.938 
        1.06154         228.572         47.2134         246.583 
        1.06769          228.09         46.5861         245.304 
        1.07382         226.348         45.9723         243.679 
        1.07993         224.513         45.3709          242.41 
        1.08607         223.909          44.778         240.819 
        1.09222         222.071          44.195         239.505 
        1.09836         220.287         43.6232         238.585 
        1.10449         217.991         43.0623         237.276 
        1.11063         216.133         42.5106         235.749 
        1.11677         215.739         41.9688         233.949 
         1.1229         214.076         41.4374         232.824 
        1.12903         212.823         40.9148         231.805 
        1.13518         211.365         40.4009         230.238 
        1.14131         209.508          39.896         228.857 
        1.14745          209.24         39.4001         227.673 
        1.15359         207.354         38.9126         226.384 
        1.15973         205.886         38.4332         225.054 
        1.16584         204.188          37.964         223.343 
        1.17197         204.067          37.502          222.82 
        1.17811         201.645         37.0463         221.603 
        1.18424         200.626         36.5995         220.001 
        1.19038         199.955         36.1589         219.412 
        1.19652         198.261         35.7257         218.161 
        1.20267         197.642         35.2996         216.481 
        1.20881         195.734         34.8806         215.695 
        1.21495         194.676         34.4691         214.308 
        1.22108         193.438         34.0643         213.143 
         1.2272         191.873          33.667         211.372 
        1.23334         191.084         33.2752         210.776 
        1.23949         189.645         32.8887         210.085 
        1.24562         188.594         32.5094         208.362 
        1.25174         187.054         32.1367         207.559 
        1.25789         185.736         31.7687         206.262 
        1.26402         184.274         31.4072         205.335 
        1.27014         183.042         31.0522         204.405 
        1.27628         182.212         30.7016         203.903 
        1.28244         181.969         30.3558         202.576 
        1.28858         179.888         30.0159         201.243 
        1.29471         178.444         29.6819         199.854 
        1.30084         177.779         29.3533         198.991 
        1.30697         176.336         29.0292         198.143 
        1.31312          174.98         28.7096         196.624 
        1.31925         174.371         28.3958         195.736 
        1.32537         173.444          28.087         195.083 
        1.33151         171.648         27.7817         193.948 
        1.33765         170.759         27.4812         192.887 
        1.34378             170         27.1857         192.105 
        1.34992         169.112         26.8943         190.724 
        1.35606          168.83         26.6067         189.622 
         1.3622         166.912         26.3237         188.989 
        1.36833         165.466         26.0455         187.949 
        1.37445         164.694         25.7715         186.669 
        1.38059         163.454         25.5006         185.847 
        1.38675         162.806          25.233         185.098 
        1.39288         161.726         24.9703         183.413 
        1.39901         161.506         24.7114         183.034 
        1.40515         159.607         24.4557         182.412 
         1.4113         158.725         24.2036         181.353 
        1.41742         157.671         23.9561         180.545 
        1.42355         156.806         23.7116          179.71 
         1.4297         155.697         23.4698         178.752 
        1.43585         154.767         23.2315         177.679 
        1.44198         153.882         22.9974         177.027 
        1.44809         153.226          22.767           176.1 
        1.45423         152.174         22.5389         174.945 
        1.46036         151.133         22.3143         174.139 
        1.46649         149.966         22.0927         173.594 
        1.47263         149.055          21.874         172.894 
        1.47877         148.334         21.6583         171.704 
        1.48491         146.764         21.4452         170.808 
        1.49104         146.645         21.2354         170.441 
        1.49718         145.087         21.0283         169.167 
        1.50333         144.546         20.8236         168.225 
        1.50947         143.851         20.6221         167.665 
         1.5156          142.67         20.4235         166.829 
        1.52172         141.882         20.2276         165.754 
        1.52787          140.71         20.0339          165.13 
          1.534         140.258         19.8429         164.409 
        1.54013         139.307         19.6546         163.662 
        1.54627         138.489         19.4684         163.011 
        1.55241         137.443         19.2847         162.184 
        1.55855         136.628         19.1035         161.203 
        1.56467         135.838         18.9252         160.414 
         1.5708         134.957         18.7487         159.812 
        1.57695         134.252         18.5741         159.073 
        1.58308         133.594         18.4022         158.242 
        1.58922         132.859         18.2324         157.515 
        1.59535          131.73         18.0647         156.842 
         1.6015         131.246          17.899         155.978 
        1.60764         130.349         17.7354         155.132 
        1.61376         129.493         17.5743         154.635 
        1.61989          128.66         17.4151         154.064 
        1.62604         127.843         17.2575          153.04 
        1.63218          127.33         17.1019         152.292 
        1.63831         126.254         16.9487          151.78 
        1.64444         125.766         16.7972         150.814 
        1.65059         125.028         16.6473          150.35 
        1.65673         123.813         16.4993         149.603 
        1.66285          123.61         16.3535         148.787 
        1.66898         122.685         16.2095         148.296 
        1.67512         122.315         16.0669         147.594 
        1.68127         121.077         15.9259         146.983 
         1.6874         120.176         15.7869         146.422 
        1.69353         119.886         15.6497         145.633 
        1.69967         119.097         15.5138         144.831 
        1.70581         118.324         15.3795         144.222 
        1.71193         117.619         15.2474         143.615 
        1.71806         117.025         15.1165         142.718 
        1.72421         116.236         14.9869         142.137 
        1.73035         116.009          14.859         141.594 
        1.73649         115.095         14.7326         140.885 
        1.74262         114.167         14.6077         140.283 
        1.74876         113.748         14.4843          139.66 
        1.75489         112.815         14.3625         138.993 
        1.76101         112.129         14.2421          138.37 
        1.76715         111.512          14.123         137.836 
        1.77329         111.234         14.0051         137.082 
        1.77943         110.169         13.8885         136.316 
        1.78557          109.66         13.7734         135.833 
        1.79171          108.91         13.6595         135.346 
        1.79785         108.315          13.547         134.745 
        1.80399         107.567         13.4357         134.073 
        1.81012         107.051         13.3258         133.369 
        1.81625         106.415         13.2173         132.816 
        1.82239         106.009         13.1097         132.322 
        1.82853         105.299         13.0034         131.628 
        1.83466         104.481         12.8984         130.947 
        1.84078         104.184         12.7947          130.44 
        1.84692          103.22         12.6919         130.038 
        1.85306         102.931         12.5901         129.372 
         1.8592         102.145         12.4897         128.679 
        1.86533         101.301         12.3903         128.275 
        1.87147         100.845          12.292         127.712 
