# k  (h/Mpc)    P(k)  (Mpc/h)^3    P_linear(k)  (Mpc/h)^3     P_NL(k)  ShotnoiseSubtracted = false
     0.00783031         8919.86         9033.42         8998.47 
       0.013688         11381.5         11308.9         11247.5 
       0.019231         11623.5         11604.7         11522.9 
      0.0249154         10684.8         10858.8         10780.9 
      0.0312784         9410.09         9483.71         9413.63 
      0.0375637          8090.8         8083.21         8022.72 
      0.0433917         6909.39         6994.88         6935.06 
      0.0492413         6155.41         6177.55         6123.82 
      0.0555754         5453.58         5569.79         5521.53 
      0.0619321         5180.04         5155.18         5107.36 
       0.067871          4757.1         4846.98         4800.31 
      0.0738098         4449.66         4539.82         4466.47 
      0.0800417         4053.97         4175.29         4107.49 
      0.0862327         3696.57         3768.73         3731.48 
      0.0921407         3350.84         3367.78         3340.46 
      0.0982031         2957.65         2982.67          2993.7 
       0.104506         2701.15         2645.37         2687.86 
       0.110769         2448.71         2390.59         2421.78 
       0.116806         2265.76         2217.71         2248.24 
       0.122832         2156.42         2099.62         2133.56 
       0.129052          2023.9         2010.19         2037.81 
       0.135211         1941.84         1929.07         1951.59 
       0.141259         1871.98         1838.47         1868.13 
       0.147318         1773.68         1729.08         1773.53 
       0.153489         1631.79         1601.39         1632.47 
       0.159709         1526.89         1466.98         1520.73 
       0.165845         1438.64         1341.84         1429.25 
       0.171974         1333.13         1234.65         1326.24 
       0.178125         1256.45            1150         1262.46 
       0.184229         1197.94          1088.1         1195.18 
        0.19034         1123.75         1043.25         1144.72 
       0.196428          1107.9         1008.28         1095.28 
       0.202534         1077.76         975.419         1062.05 
       0.208729         1030.01         938.406         1015.82 
       0.214876          980.55          895.24         990.338 
       0.220989         947.867         846.542         951.496 
       0.227147         895.734         794.799         907.478 
        0.23329         854.348         744.635         872.855 
       0.239377         830.204         699.979         832.859 
       0.245482         772.769         662.343         789.273 
       0.251667         763.331         631.877         765.606 
       0.257832         735.509         607.973         736.686 
       0.263955         712.157         588.372         712.237 
       0.270079         687.971         570.386         691.631 
        0.27624         680.472         551.838         669.495 
       0.282372         652.794         531.662         652.017 
        0.28843         637.004         509.935         632.537 
       0.294538         605.748         486.917         614.865 
       0.300721         600.794         463.731         596.713 
        0.30691         572.285         441.917         581.006 
       0.313033         559.828         422.633         559.165 
       0.319153         542.074         406.017          542.73 
       0.325316          526.29         391.767         530.107 
        0.33145         511.298         379.476         510.565 
       0.337538         504.152         368.347         498.385 
       0.343633         488.488         357.521         492.346 
       0.349808         472.682         346.359         482.617 
       0.355968         467.854         334.768         473.276 
       0.362074         458.444         322.968         461.703 
       0.368217          445.64         311.059         447.235 
       0.374374         427.756         299.518         437.091 
       0.380519         423.631         288.737         425.884 
       0.386598         413.037         278.994         418.853 
       0.392688         409.742         270.218         407.234 
        0.39888         398.142         262.136         398.998 
       0.405048           389.7         254.728         393.602 
       0.411186         382.057         247.724         383.197 
       0.417313         375.172          240.86         374.448 
       0.423458         367.971         233.998         368.448 
       0.429607         360.353          227.11         361.361 
       0.435692         351.532         220.317          353.81 
       0.441815         348.616         213.631         350.394 
       0.447964         341.258         207.183         343.375 
       0.454126         330.356         201.065         333.944 
       0.460267         325.799         195.372         331.353 
       0.466387         322.135         190.089         324.578 
        0.47254         315.122         185.097         319.462 
       0.478662         313.921         180.378         313.287 
       0.484765          304.06         175.846         306.402 
       0.490885         300.441         171.411         302.584 
       0.497035         295.265         167.012         298.874 
       0.503198         289.391         162.675         294.288 
       0.509342         286.772         158.446         290.565 
       0.515458         283.157         154.356         287.653 
       0.521598         277.701         150.395         281.726 
       0.527764         273.115          146.59         277.621 
       0.533884         270.215         143.001         273.968 
           0.54         266.384         139.586         269.684 
       0.546137         264.847         136.301         266.631 
       0.552299         259.483         133.123         261.997 
       0.558452         256.874         130.049          258.75 
       0.564573         252.791         127.074         256.494 
       0.570708         248.148         124.163         253.468 
       0.576825         244.578         121.323         248.483 
       0.582926          241.74          118.56         245.681 
       0.589034         239.015         115.874         243.107 
       0.595184         236.406          113.26         238.733 
       0.601379         233.919         110.726         237.349 
       0.607522         229.426         108.304         233.933 
       0.613639         228.106         105.974         231.717 
       0.619772         223.047         103.714         229.153 
       0.625918         221.548         101.519         226.352 
       0.632068         218.444          99.387         222.828 
       0.638161         217.282         97.3334         221.757 
         0.6443          213.79         95.3188         219.098 
       0.650464         211.537         93.3472         215.075 
       0.656582         209.859         91.4394         213.438 
       0.662703         207.799         89.5812         211.512 
       0.668861         204.267         87.7641         209.193 
       0.675024          201.77         85.9988          206.67 
       0.681124         200.939         84.3054         204.519 
       0.687237         197.909         82.6596         202.224 
       0.693381         195.007         81.0537         199.988 
       0.699536         193.588         79.4896         198.241 
       0.705665         192.743         77.9736         197.093 
       0.711789         189.465         76.4969         194.459 
       0.717957          188.67         75.0458         192.658 
        0.72409         186.257         73.6385         191.582 
       0.730186         183.628         72.2746         189.732 
       0.736317         182.086         70.9375          187.32 
       0.742472         180.993         69.6297         185.641 
       0.748622         179.476         68.3571         183.551 
        0.75476          177.91         67.1208         182.269 
       0.760888           175.4         65.9182          179.87 
       0.767043         174.821         64.7414          178.85 
       0.773185          172.83         63.5966         177.755 
       0.779291         169.865         62.4864         175.778 
       0.785407         169.299         61.4013         173.866 
       0.791564         167.606          60.335         172.775 
       0.797719         165.352         59.2942         171.782 
       0.803834         164.487         58.2842          169.83 
       0.809972         162.834          57.294         168.468 
       0.816124         162.669         56.3246         167.282 
       0.822261         160.452         55.3802         165.752 
       0.828378         158.943         54.4605         163.833 
       0.834502         158.779          53.561         162.894 
       0.840667         156.138         52.6762         161.967 
       0.846816         154.876         51.8143         160.459 
       0.852925         154.067         50.9773         159.168 
       0.859047         152.235         50.1574         157.959 
       0.865192         151.108          49.353         156.794 
       0.871341         149.676         48.5659         155.287 
       0.877463         148.514         47.7998         154.475 
       0.883569         147.583         47.0522         153.488 
       0.889708         146.362         46.3169         152.216 
       0.895864          144.69         45.5955         151.436 
       0.902008         143.951         44.8911         149.834 
       0.908149         143.222          44.202         148.543 
       0.914301         141.595         43.5263         147.748 
       0.920448         140.535         42.8654         146.771 
       0.926574         139.734         42.2207         145.228 
       0.932687         139.172         41.5906         144.248 
       0.938823         137.206         40.9712          143.55 
       0.944975         135.975         40.3631         142.602 
       0.951105         135.358         39.7695         141.383 
       0.957225          133.81          39.189          140.48 
       0.963368         132.621         38.6182         139.031 
       0.969511         132.283         38.0588         138.273 
       0.975621          131.54         37.5136         138.435 
       0.981748         130.786         36.9777         137.023 
       0.987916          129.17          36.449         136.203 
        0.99406         128.387         35.9327         135.103 
        1.00019          127.88         35.4274         134.003 
        1.00632         126.703         34.9324         133.092 
        1.01246         125.875         34.4462         131.974 
        1.01859          124.63         33.9701         131.621 
        1.02471          124.03         33.5037         131.184 
        1.03085         122.865         33.0444         130.093 
        1.03698         122.159         32.5948         129.037 
        1.04314         121.092         32.1517         128.378 
        1.04929         120.294         31.7179         127.789 
        1.05541         119.554         31.2938          127.07 
        1.06154         118.794         30.8765         126.378 
        1.06769         118.565         30.4663         125.631 
        1.07382         117.659         30.0649         124.844 
        1.07993         116.636         29.6716         124.021 
        1.08607         115.797         29.2838          123.35 
        1.09222         115.313         28.9026         122.613 
        1.09836         114.301         28.5286          121.72 
        1.10449         113.453         28.1618         121.051 
        1.11063         112.705          27.801         120.019 
        1.11677         112.252         27.4467         119.457 
         1.1229          111.04         27.0992         119.017 
        1.12903         110.283         26.7574         118.152 
        1.13518          110.34         26.4213         117.524 
        1.14131         109.167         26.0911         116.705 
        1.14745         108.492         25.7668         116.175 
        1.15359         107.751          25.448         115.406 
        1.15973         107.376         25.1345         115.186 
        1.16584         106.386         24.8276         114.089 
        1.17197          105.81         24.5255         113.671 
        1.17811         105.075         24.2275         113.106 
        1.18424         104.515         23.9353         112.503 
        1.19038         104.039         23.6471         111.868 
        1.19652         103.319         23.3638         111.185 
        1.20267         102.514         23.0852         110.586 
        1.20881         101.803         22.8112         110.037 
        1.21495         101.221          22.542         109.211 
        1.22108         100.653         22.2773         108.991 
         1.2272         99.8145         22.0175         108.189 
        1.23334         99.3813         21.7612         107.859 
        1.23949         98.4566         21.5085         106.955 
        1.24562         98.1185         21.2604         106.434 
        1.25174         97.3069         21.0167          105.96 
        1.25789         96.9024          20.776          105.41 
        1.26402         96.4645         20.5396         104.913 
        1.27014         95.6892         20.3074         104.748 
        1.27628           95.26         20.0782         104.236 
        1.28244         94.5426         19.8521         103.153 
        1.28858         94.2116         19.6297         102.628 
        1.29471         93.3987         19.4113         102.322 
        1.30084         92.9061         19.1964         101.588 
        1.30697         92.3386         18.9845         101.247 
        1.31312         91.9602         18.7754         100.767 
        1.31925         91.2176         18.5702         100.183 
        1.32537         90.8614         18.3683          99.755 
        1.33151         89.9955         18.1686         99.1885 
        1.33765         89.5702         17.9721         98.7774 
        1.34378         89.0071         17.7789         98.2645 
        1.34992          88.833         17.5883         97.7769 
        1.35606         88.2039         17.4002         97.2272 
         1.3622         87.3602         17.2151         96.8044 
        1.36833         87.2011         17.0332         96.1969 
        1.37445          86.539          16.854         95.7245 
        1.38059         86.0409         16.6769         95.4254 
        1.38675         85.4357         16.5018         94.7072 
        1.39288         85.0045           16.33         94.4459 
        1.39901         84.7531         16.1607         94.0474 
        1.40515         84.1853         15.9935         93.7101 
         1.4113         83.4864         15.8287         93.3322 
        1.41742         83.4257         15.6668         92.7038 
        1.42355         82.6437         15.5069         92.1297 
         1.4297         82.2392         15.3488         91.7855 
        1.43585         81.5934         15.1929         91.3309 
        1.44198         81.3267         15.0398         91.0314 
        1.44809         80.8137         14.8891         90.4308 
        1.45423         80.2786         14.7399         90.0303 
        1.46036         80.0717         14.5931         89.7062 
        1.46649         79.5048         14.4482         89.4074 
        1.47263         79.0118         14.3051         88.9857 
        1.47877         78.7891         14.1641         88.2823 
        1.48491          78.156         14.0247         88.1146 
        1.49104         77.7948         13.8875         87.6877 
        1.49718         77.2755         13.7521         87.1883 
        1.50333         76.8376         13.6182         86.7544 
        1.50947         76.4132         13.4864         86.3572 
         1.5156         76.0981         13.3566         86.0187 
        1.52172         75.5584         13.2284         85.6923 
        1.52787         75.3859         13.1017         85.2728 
          1.534         74.8415         12.9768         84.9322 
        1.54013         74.2882         12.8537         84.4887 
        1.54627         74.0194         12.7319         84.1117 
        1.55241         73.5263         12.6117         83.8043 
        1.55855         73.2559         12.4933         83.2872 
        1.56467         72.7041         12.3767         82.9524 
         1.5708         72.4231         12.2612         82.6961 
        1.57695         72.1756         12.1471         82.3535 
        1.58308         71.4233         12.0347         81.9916 
        1.58922         71.3235         11.9236         81.5771 
        1.59535         71.0462          11.814         81.1882 
         1.6015         70.4092         11.7056         80.7842 
        1.60764         70.1538         11.5986         80.5491 
        1.61376         69.7254         11.4932         80.4014 
        1.61989         69.3518         11.3891         79.9301 
        1.62604         69.0994          11.286         79.3996 
        1.63218         68.7585         11.1843         79.0518 
        1.63831         68.2204         11.0841          78.866 
        1.64444         67.9298          10.985         78.5026 
        1.65059         67.4326         10.8869         77.9713 
        1.65673          67.122         10.7902         77.7233 
        1.66285         66.8027         10.6949          77.521 
        1.66898         66.4666         10.6007         77.1005 
        1.67512         66.0238         10.5074         76.8549 
        1.68127         65.6891         10.4152         76.4503 
         1.6874         65.3953         10.3243         76.0167 
        1.69353         65.0472         10.2346          75.867 
        1.69967         64.6258         10.1457          75.588 
        1.70581         64.4603         10.0579         75.2019 
        1.71193         64.2137         9.97146         74.8719 
        1.71806         63.5587         9.88586         74.6593 
        1.72421         63.4008         9.80111         74.3012 
        1.73035         63.0627         9.71745         73.9453 
        1.73649          62.666         9.63478         73.6838 
        1.74262         62.4513         9.55314         73.3748 
        1.74876         62.1074          9.4724         73.0404 
        1.75489         61.6581         9.39276          72.732 
        1.76101         61.4778         9.31405         72.4277 
        1.76715         61.0331         9.23615         72.0549 
        1.77329         60.7698         9.15903         71.8021 
        1.77943         60.3454         9.08277         71.5455 
        1.78557         60.1921         9.00749         71.1348 
        1.79171         59.8233         8.93305         70.8341 
        1.79785         59.5774         8.85944         70.6233 
        1.80399          59.273         8.78667         70.3504 
        1.81012         59.0282         8.71482         70.0554 
        1.81625         58.5054          8.6438         69.7424 
        1.82239         58.2953         8.57347         69.4765 
        1.82853         57.9402         8.50395         69.3118 
        1.83466         57.7077         8.43528         68.9765 
        1.84078         57.3373         8.36744         68.5886 
        1.84692         56.9863         8.30023         68.4999 
        1.85306         56.7711         8.23368         68.2222 
         1.8592         56.3399         8.16797         67.8128 
        1.86533         56.1769         8.10301         67.6108 
        1.87147         55.8148         8.03869         67.2872 
        1.87761         55.5764         7.97504         66.9432 
