# k  (h/Mpc)    P(k)  (Mpc/h)^3    P_linear(k)  (Mpc/h)^3     P_NL(k)  ShotnoiseSubtracted = false
     0.00783031         12990.6         13170.7         13116.5 
       0.013688         16625.8         16486.3         16384.7 
       0.019231         16942.5         16916.5         16777.5 
      0.0249154         15510.4         15828.7           15684 
      0.0312784         13670.1         13823.9         13678.8 
      0.0375637         11772.8         11782.3         11653.7 
      0.0433917         10020.9         10195.8           10064 
      0.0492413         8944.67         9004.44         8883.82 
      0.0555754         7888.31         8118.51         8011.49 
      0.0619321         7529.89         7514.15         7409.06 
       0.067871         6879.11         7064.89         6964.37 
      0.0738098         6435.26         6617.17         6461.92 
      0.0800417         5849.38         6085.82         5942.48 
      0.0862327         5345.08         5493.22         5411.95 
      0.0921407         4866.68         4908.79         4847.33 
      0.0982031         4300.49         4347.46         4362.48 
       0.104506         3952.09         3855.82         3934.26 
       0.110769         3588.88         3484.46         3542.92 
       0.116806          3332.5         3232.47         3289.84 
       0.122832         3166.45         3060.35         3123.87 
       0.129052         2960.49            2930         2982.31 
       0.135211         2839.86         2811.75          2852.2 
       0.141259         2743.52         2679.69         2736.03 
       0.147318         2603.34         2520.26         2602.07 
       0.153489         2393.81         2334.14         2393.16 
       0.159709          2251.5         2138.22         2241.55 
       0.165845         2137.35         1955.82         2122.09 
       0.171974         1993.37         1799.59         1977.83 
       0.178125         1881.86          1676.2         1893.65 
       0.184229         1792.79         1585.98         1790.89 
        0.19034         1689.75          1520.6         1716.45 
       0.196428         1664.16         1469.63         1643.08 
       0.202534         1612.24         1421.74         1594.07 
       0.208729         1543.71         1367.79         1520.82 
       0.214876         1478.87         1304.87          1487.5 
       0.220989         1429.69         1233.89         1436.48 
       0.227147         1361.37         1158.47         1379.39 
        0.23329         1302.63         1085.35         1332.68 
       0.239377         1274.61         1020.26         1274.45 
       0.245482         1190.54         965.407         1211.61 
       0.251667         1180.79         921.001         1177.96 
       0.257832         1134.75         886.159         1134.55 
       0.263955         1099.12          857.59         1098.67 
       0.270079         1061.86         831.373         1068.17 
        0.27624         1051.54         804.339         1036.36 
       0.282372          1007.7         774.931         1013.67 
        0.28843         995.398         743.263         988.463 
       0.294538         945.411         709.711         961.833 
       0.300721         940.033         675.917         933.474 
        0.30691         899.401         644.121         915.292 
       0.313033         881.497         616.014         882.968 
       0.319153          861.97         591.795         857.022 
       0.325316         834.523         571.024          839.29 
        0.33145         814.442          553.11         808.531 
       0.337538         801.278         536.889         792.856 
       0.343633         780.326          521.11         784.683 
       0.349808         753.911          504.84         771.009 
       0.355968         748.925         487.946         757.559 
       0.362074         738.986         470.745         741.699 
       0.368217         717.016         453.387         720.754 
       0.374374         687.537         436.566          706.14 
       0.380519          686.51         420.852         689.681 
       0.386598         668.169         406.651         680.863 
       0.392688         665.719          393.86         661.758 
        0.39888         645.752          382.08         651.322 
       0.405048           635.3         371.281         641.747 
       0.411186         625.586         361.073          626.59 
       0.417313         613.028         351.068         615.987 
       0.423458         602.082         341.067         607.018 
       0.429607         592.559         331.027         595.364 
       0.435692         579.325         321.125         583.274 
       0.441815         574.513         311.381         579.237 
       0.447964         561.917         301.982         569.526 
       0.454126          552.62         293.065         554.042 
       0.460267         541.372         284.766         551.666 
       0.466387         535.444         277.067         541.094 
        0.47254         527.196         269.791         533.644 
       0.478662         524.695         262.911         523.859 
       0.484765         507.823         256.307          515.38 
       0.490885         503.891         249.841          507.57 
       0.497035         493.602          243.43         502.216 
       0.503198         488.736         237.108         495.499 
       0.509342         484.381         230.945         488.764 
       0.515458         480.047         224.984          484.85 
       0.521598         468.309          219.21         477.318 
       0.527764         459.733         213.664         471.864 
       0.533884         457.887         208.433         465.768 
           0.54         451.986         203.454         458.794 
       0.546137         449.498         198.668         453.236 
       0.552299         441.143         194.034         446.976 
       0.558452         438.557         189.554         442.828 
       0.564573         432.103         185.218         439.274 
       0.570708         425.999         180.975         434.897 
       0.576825         415.719         176.836         427.001 
       0.582926         415.137         172.808         423.003 
       0.589034         411.171         168.893         417.156 
       0.595184          407.38         165.084         411.996 
       0.601379         401.576          161.39         408.267 
       0.607522         395.899         157.859         403.171 
       0.613639         394.623         154.463         401.008 
       0.619772          385.39         151.169         399.295 
       0.625918         384.132          147.97         392.771 
       0.632068          378.02         144.863         388.674 
       0.638161          376.57         141.869         385.072 
         0.6443          369.85         138.933         381.699 
       0.650464         366.994         136.059         375.001 
       0.656582          364.81         133.278         372.294 
       0.662703         363.102          130.57         370.725 
       0.668861         356.544         127.922         367.456 
       0.675024         353.033         125.349         364.041 
       0.681124         350.581          122.88         358.261 
       0.687237         347.197         120.481         355.215 
       0.693381         342.244         118.141         352.076 
       0.699536         338.269         115.861         349.684 
       0.705665         336.231         113.651         345.738 
       0.711789         333.966         111.499         343.533 
       0.717957         331.194         109.384         341.593 
        0.72409         328.291         107.333         338.315 
       0.730186         324.201         105.345         335.075 
       0.736317         321.181         103.396         331.784 
       0.742472         319.428         101.489          328.55 
       0.748622         316.269         99.6347         325.687 
        0.75476         312.765         97.8326         325.695 
       0.760888         309.198         96.0798         321.086 
       0.767043         309.682         94.3646         318.784 
       0.773185         305.454         92.6959         316.309 
       0.779291         300.912         91.0778         313.031 
       0.785407         299.996         89.4961         311.176 
       0.791564         296.218         87.9419         308.782 
       0.797719         293.754         86.4248         306.323 
       0.803834         291.227         84.9528         304.831 
       0.809972         290.115         83.5095         302.334 
       0.816124         289.664         82.0966         298.839 
       0.822261         285.383         80.7201          297.31 
       0.828378           283.4         79.3794         294.859 
       0.834502         281.386         78.0684         293.158 
       0.840667         278.182         76.7788          290.43 
       0.846816         276.651         75.5225         288.878 
       0.852925         274.901         74.3026         286.779 
       0.859047         272.878         73.1074          284.82 
       0.865192         269.627          71.935         282.386 
       0.871341          267.64         70.7878         280.577 
       0.877463         266.121          69.671         278.978 
       0.883569         264.747         68.5814         277.633 
       0.889708          261.99         67.5097         274.782 
       0.895864         259.206         66.4582         273.137 
       0.902008         258.011         65.4315         271.221 
       0.908149         256.526         64.4271         268.823 
       0.914301         253.275         63.4422         267.056 
       0.920448         251.738          62.479         265.044 
       0.926574         249.447         61.5392          263.25 
       0.932687         249.511         60.6208         261.563 
       0.938823         246.301          59.718         260.711 
       0.944975         245.258         58.8316          259.02 
       0.951105         243.473         57.9665         257.005 
       0.957225         241.566         57.1204         255.141 
       0.963368         238.407         56.2883         253.394 
       0.969511         237.262          55.473         251.529 
       0.975621          235.24         54.6783         250.563 
       0.981748         235.031         53.8972         249.093 
       0.987916          232.85         53.1266         247.553 
        0.99406         229.823          52.374         245.968 
        1.00019         229.695         51.6376         243.974 
        1.00632         227.829         50.9162         242.202 
        1.01246         225.933         50.2075         240.315 
        1.01859          225.97         49.5135         239.289 
        1.02471         222.568         48.8337         238.286 
        1.03085         220.821         48.1643         237.022 
        1.03698         220.018         47.5089          236.07 
        1.04314         217.789          46.863          234.08 
        1.04929         216.441         46.2307          232.31 
        1.05541         216.441         45.6127         231.006 
        1.06154         213.385         45.0044         229.716 
        1.06769         212.953         44.4065         228.586 
        1.07382         211.265         43.8214         227.044 
        1.07993         209.468         43.2482         225.795 
        1.08607         208.915         42.6829          224.43 
        1.09222         207.331         42.1273         223.237 
        1.09836         205.602         41.5822         222.324 
        1.10449         203.434         41.0475         221.091 
        1.11063           201.7         40.5216         219.635 
        1.11677         201.349         40.0052         217.984 
         1.1229         199.788         39.4987         216.902 
        1.12903         198.644         39.0006         215.945 
        1.13518         197.342         38.5106         214.537 
        1.14131         195.528         38.0294         213.193 
        1.14745         195.319         37.5567          212.17 
        1.15359         193.575          37.092         210.924 
        1.15973         192.298          36.635          209.68 
        1.16584         190.587         36.1878         208.014 
        1.17197          190.38         35.7474         207.549 
        1.17811         188.322          35.313         206.482 
        1.18424         187.378         34.8871         204.917 
        1.19038         186.786         34.4671         204.403 
        1.19652         185.206         34.0542         203.301 
        1.20267         184.552          33.648         201.718 
        1.20881          182.74         33.2487         200.969 
        1.21495         181.855         32.8564         199.685 
        1.22108          180.69         32.4706         198.698 
         1.2272          179.18         32.0918         196.972 
        1.23334           178.5         31.7183         196.478 
        1.23949         177.133         31.3499         195.772 
        1.24562         176.113         30.9884         194.139 
        1.25174         174.585         30.6331         193.422 
        1.25789         173.424         30.2823         192.232 
        1.26402         172.159         29.9377         191.287 
        1.27014         170.957         29.5993          190.56 
        1.27628         170.225         29.2652          190.09 
        1.28244         169.956         28.9356         188.747 
        1.28858         168.105         28.6115         187.528 
        1.29471         166.653         28.2931         186.344 
        1.30084         166.099         27.9799         185.483 
        1.30697         164.752          27.671         184.678 
        1.31312         163.618         27.3663         183.271 
        1.31925         162.918         27.0672         182.472 
        1.32537         162.028         26.7729         181.907 
        1.33151         160.373         26.4819          180.81 
        1.33765         159.644         26.1954         179.838 
        1.34378         158.855         25.9138         179.087 
        1.34992         158.072          25.636         177.832 
        1.35606         157.708         25.3618         176.809 
         1.3622         155.953         25.0921         176.205 
        1.36833         154.692         24.8269         175.188 
        1.37445         153.915         24.5658         174.115 
        1.38059         152.882         24.3075         173.277 
        1.38675         152.209         24.0524         172.542 
        1.39288         151.255          23.802         171.041 
        1.39901         151.049         23.5553         170.702 
        1.40515         149.284         23.3115         170.144 
         1.4113         148.384         23.0712         169.194 
        1.41742         147.492         22.8353          168.46 
        1.42355         146.635         22.6022         167.692 
         1.4297         145.689         22.3717         166.778 
        1.43585         144.694         22.1446         165.708 
        1.44198         143.977         21.9214         165.118 
        1.44809         143.309         21.7018         164.287 
        1.45423         142.329         21.4843         163.255 
        1.46036         141.375         21.2703         162.485 
        1.46649         140.294         21.0591         161.971 
        1.47263         139.499         20.8506         161.348 
        1.47877         138.853          20.645         160.232 
        1.48491         137.349         20.4418         159.447 
        1.49104         137.249         20.2419         159.094 
        1.49718         135.797         20.0445         157.826 
        1.50333         135.302         19.8494         156.961 
        1.50947         134.692         19.6573         156.444 
         1.5156         133.589          19.468          155.69 
        1.52172           132.8         19.2812         154.771 
        1.52787         131.811         19.0965          154.13 
          1.534         131.311         18.9145         153.463 
        1.54013          130.42          18.735         152.794 
        1.54627          129.73         18.5576         152.155 
        1.55241         128.682         18.3824         151.385 
        1.55855         127.925         18.2097         150.516 
        1.56467         127.348         18.0398         149.753 
         1.5708         126.404         17.8715         149.213 
        1.57695         125.773         17.7051          148.55 
        1.58308         125.144         17.5412         147.732 
        1.58922         124.531         17.3793         147.059 
        1.59535         123.463         17.2196         146.439 
         1.6015         122.983         17.0616         145.637 
        1.60764         122.178         16.9056         144.868 
        1.61376         121.463         16.7521         144.445 
        1.61989         120.605         16.6003         143.927 
        1.62604          119.92         16.4501         142.925 
        1.63218         119.408         16.3018         142.218 
        1.63831         118.398         16.1557         141.785 
        1.64444         117.959         16.0113         140.863 
        1.65059         117.306         15.8684         140.414 
        1.65673          116.11         15.7273         139.747 
        1.66285         115.948         15.5884         139.019 
        1.66898         115.182         15.4511          138.56 
        1.67512         114.707         15.3152         137.906 
        1.68127         113.634         15.1808         137.297 
         1.6874         112.775         15.0483         136.752 
        1.69353         112.476         14.9175         136.077 
        1.69967         111.835         14.7879         135.333 
        1.70581         111.059           14.66         134.736 
        1.71193          110.49          14.534         134.184 
        1.71806         109.865         14.4092         133.418 
        1.72421         109.107         14.2857         132.855 
        1.73035         108.877         14.1638         132.301 
        1.73649         108.017         14.0433         131.645 
        1.74262         107.185         13.9243         131.117 
        1.74876         106.837         13.8066          130.53 
        1.75489         105.933         13.6905         129.883 
        1.76101         105.325         13.5758         129.298 
        1.76715          104.66         13.4622         128.816 
        1.77329         104.416         13.3498         128.136 
        1.77943          103.43         13.2387         127.433 
        1.78557         102.943          13.129          126.98 
        1.79171         102.223         13.0205         126.534 
        1.79785         101.718         12.9132         125.987 
        1.80399          101.01         12.8071         125.359 
        1.81012         100.548         12.7024         124.679 
        1.81625          99.935         12.5989          124.16 
        1.82239         99.5954         12.4963         123.725 
        1.82853         98.9346          12.395         123.094 
        1.83466         98.1328         12.2949         122.466 
        1.84078         97.8952          12.196         121.997 
        1.84692         97.0299         12.0981         121.627 
        1.85306         96.6495         12.0011         121.006 
         1.8592         95.9936         11.9053         120.361 
        1.86533         95.2255         11.8106         119.975 
        1.87147         94.7692         11.7169         119.393 
        1.87761         94.2893         11.6241         118.824 
