# k  (h/Mpc)    Pcb(k)  (Mpc/h)^3    Pcb_linear(k) (Mpc/h)^3    Pcb_NL(k) (Mpc/h)^3   ShotnoiseSubtracted = false
     0.00783031         3723.63         3764.31         3750.52 
       0.013688         4725.81         4713.82         4692.32 
       0.019231         4843.19         4837.66         4810.58 
      0.0249154         4482.05         4527.05         4505.83 
      0.0312784         3940.53         3953.93         3940.47 
      0.0375637          3378.8         3370.13         3359.89 
      0.0433917         2900.97         2916.42         2908.11 
      0.0492413         2575.88         2575.68         2568.92 
      0.0555754         2298.84          2322.3          2315.7 
      0.0619321         2163.45         2149.45         2142.61 
       0.067871         2004.37         2020.95         2013.36 
      0.0738098         1874.84         1892.89         1880.19 
      0.0800417         1714.62         1740.91          1729.2 
      0.0862327         1557.67         1571.39         1565.46 
      0.0921407         1402.58         1404.22          1400.6 
      0.0982031         1237.66         1243.65         1247.46 
       0.104506         1117.66         1103.01         1112.83 
       0.110769         1011.03          996.78          1004.2 
       0.116806         932.468         924.695         931.795 
       0.122832         888.233         875.459         883.194 
       0.129052         839.848         838.172         844.394 
       0.135211         805.308         804.347         809.751 
       0.141259         773.407         766.571         773.049 
       0.147318         731.501         720.962         730.857 
       0.153489         674.193          667.72         674.658 
       0.159709         624.256         611.675         623.071 
       0.165845         581.539         559.498         577.916 
       0.171974          533.58         514.804         533.449 
       0.178125         501.126         479.508         502.329 
       0.184229         477.035         453.699         475.882 
        0.19034         448.615         434.996          455.74 
       0.196428         440.205         420.415         437.409 
       0.202534         429.679         406.714         423.628 
       0.208729         410.276         391.282         406.895 
       0.214876         388.768         373.283         392.968 
       0.220989         374.439         352.977         374.444 
       0.227147         349.882         331.402         353.863 
        0.23329         331.243         310.486         336.539 
       0.239377         317.297         291.866         319.362 
       0.245482         296.179         276.173         301.851 
       0.251667         289.265         263.471         290.798 
       0.257832          279.21         253.503         279.708 
       0.263955         269.753          245.33         270.169 
       0.270079         261.186          237.83         261.853 
        0.27624         256.469         230.095         252.942 
       0.282372         246.829         221.684         245.347 
        0.28843         237.059         212.625         236.696 
       0.294538          226.67         203.027         228.389 
       0.300721         221.485         193.359         220.367 
        0.30691         210.398         184.264         212.101 
       0.313033         203.689         176.223         203.432 
       0.319153         194.306         169.294         197.009 
       0.325316         190.364         163.353          191.47 
        0.33145         183.749         158.228         184.769 
       0.337538         180.447         153.587         179.385 
       0.343633         174.647         149.074         175.486 
       0.349808         169.546         144.419         171.281 
       0.355968         165.661         139.586         167.454 
       0.362074         160.574         134.666         162.306 
       0.368217         155.766           129.7         156.435 
       0.374374         150.861         124.889         152.303 
       0.380519         147.113         120.393         147.547 
       0.386598         143.006         116.331         143.675 
       0.392688          140.31         112.671         140.097 
        0.39888         136.501         109.302         136.018 
       0.405048         133.355         106.212         133.122 
       0.411186         130.344         103.292         130.474 
       0.417313         126.879          100.43         126.563 
       0.423458         123.939         97.5692         123.959 
       0.429607         120.711         94.6966         121.041 
       0.435692         116.875         91.8645         118.351 
       0.441815           115.6         89.0768         116.415 
       0.447964          113.47         86.3882         113.224 
       0.454126         108.483          83.837         110.056 
       0.460267         107.006         81.4633         108.335 
       0.466387         104.816         79.2604         105.637 
        0.47254         102.948         77.1792         103.679 
       0.478662         101.434          75.211         101.492 
       0.484765         98.6181          73.322         98.9365 
       0.490885         96.7326         71.4717         97.5903 
       0.497035         95.3456         69.6381          96.007 
       0.503198         92.7514         67.8296         93.8091 
       0.509342         90.6493         66.0666         92.2488 
       0.515458         89.1714         64.3611         91.0809 
       0.521598         87.8562         62.7096         88.5455 
       0.527764         86.3135          61.123         86.3774 
       0.533884         84.7943         59.6263         85.0055 
           0.54         83.0966         58.2023         83.5895 
       0.546137         82.1004         56.8329         82.4698 
       0.552299         80.8364         55.5075         80.5305 
       0.558452         78.6901         54.2257         79.0055 
       0.564573         77.2713         52.9854         78.1041 
       0.570708         76.3373         51.7714         76.7749 
       0.576825         74.8825         50.5875         75.4125 
       0.582926         73.4107         49.4354         74.1451 
       0.589034         71.7946         48.3152         73.2489 
       0.595184         70.8997         47.2257         71.8868 
       0.601379         69.9606         46.1688         70.9655 
       0.607522         68.2323         45.1588         69.3443 
       0.613639         67.9953         44.1874         68.4822 
       0.619772         66.3361         43.2451         67.3059 
       0.625918          65.788         42.3299         66.6496 
       0.632068         64.8807         41.4409         65.3659 
       0.638161         63.8446         40.5847         64.5584 
         0.6443         62.8454         39.7446         63.4059 
       0.650464          61.858         38.9225         62.3865 
       0.656582         61.2461          38.127         61.7652 
       0.662703         59.9973         37.3522         60.6243 
       0.668861         59.2447         36.5946         59.9686 
       0.675024          58.379         35.8585          58.956 
       0.681124         57.4445         35.1524         58.1158 
       0.687237         56.4344         34.4662          57.305 
       0.693381         55.9635         33.7966         56.4516 
       0.699536         54.9032         33.1444         56.0657 
       0.705665         55.0617         32.5123         55.3493 
       0.711789         53.5506         31.8965         54.1902 
       0.717957         53.0531         31.2915         53.7889 
        0.72409         52.3177         30.7047          53.255 
       0.730186         51.4751          30.136         52.4733 
       0.736317         51.1943         29.5785         51.7061 
       0.742472         50.3332         29.0331         51.1346 
       0.748622         49.8852         28.5026         50.3989 
        0.75476         49.2082          27.987         49.8466 
       0.760888         48.4515         27.4856         49.2503 
       0.767043         47.9207         26.9949         48.8529 
       0.773185         47.2428         26.5176         48.2754 
       0.779291         47.0069         26.0547         47.7456 
       0.785407         46.5419         25.6022         47.0422 
       0.791564         45.7186         25.1576         46.4935 
       0.797719         44.9225         24.7236         46.1148 
       0.803834         44.8067         24.3025         45.4629 
       0.809972          44.112         23.8896         44.9974 
       0.816124         43.3994         23.4854         44.5364 
       0.822261         43.1393         23.0916         43.9169 
       0.828378         42.7867         22.7081         43.3393 
       0.834502         42.2654         22.3331         43.1796 
       0.840667         41.8364         21.9642         42.6177 
       0.846816         41.2006         21.6048         42.1877 
       0.852925         40.8501         21.2558         41.9211 
       0.859047          40.308         20.9139         41.2797 
       0.865192         39.9806         20.5785         40.8786 
       0.871341         39.7747         20.2503         40.5355 
       0.877463         38.9734         19.9308         40.1181 
       0.883569         38.6441         19.6191         39.8264 
       0.889708         38.3363         19.3125         39.3087 
       0.895864         37.9622         19.0117         38.8939 
       0.902008         37.6408          18.718         38.5629 
       0.908149         37.2694         18.4307         38.2915 
       0.914301         37.0717          18.149         37.9978 
       0.920448         36.4434         17.8734         37.5116 
       0.926574         36.1885         17.6046          37.097 
       0.932687         35.8027         17.3418         36.8176 
       0.938823         35.3164         17.0836         36.4117 
       0.944975         35.1476           16.83         36.0542 
       0.951105          34.796         16.5825         35.7977 
       0.957225         34.3774         16.3405         35.4647 
       0.963368          34.243         16.1024         35.1016 
       0.969511         33.9253         15.8692         34.7808 
       0.975621         33.6432         15.6419         34.5699 
       0.981748         33.1824         15.4184         34.2847 
       0.987916         32.9792          15.198         33.9313 
        0.99406         32.7032         14.9827         33.6615 
        1.00019         32.2795          14.772         33.3522 
        1.00632         32.1263         14.5656         33.1162 
        1.01246         31.8902         14.3629         32.8632 
        1.01859         31.4355         14.1644         32.5977 
        1.02471         31.3945         13.9699         32.3144 
        1.03085          31.083         13.7784         32.0268 
        1.03698         30.6214         13.5909         31.7521 
        1.04314         30.3953         13.4061         31.4244 
        1.04929         30.1716         13.2252         31.2786 
        1.05541         29.8467         13.0484          31.141 
        1.06154         29.7262         12.8744         30.7399 
        1.06769         29.4731         12.7034         30.4838 
        1.07382         29.2299          12.536         30.3232 
        1.07993         29.0986          12.372         30.0249 
        1.08607         28.6873         12.2103         29.8197 
        1.09222         28.5782         12.0514         29.6671 
        1.09836         28.2557         11.8955          29.416 
        1.10449         28.1019         11.7425         29.1347 
        1.11063         27.7154          11.592         28.9701 
        1.11677           27.62         11.4443         28.7246 
         1.1229         27.5106         11.2994         28.5129 
        1.12903         27.1201         11.1569         28.3107 
        1.13518         26.9439         11.0168         28.0425 
        1.14131         26.8676         10.8791         27.8828 
        1.14745         26.5973         10.7439         27.7164 
        1.15359         26.4837         10.6109         27.5083 
        1.15973         26.1771         10.4802         27.3451 
        1.16584         25.9011         10.3523         27.1492 
        1.17197         25.9366         10.2263         26.9834 
        1.17811         25.5627          10.102         26.6596 
        1.18424         25.3442         9.98019         26.5531 
        1.19038         25.2977         9.86003         26.4497 
        1.19652         25.1278          9.7419         26.1822 
        1.20267         24.9218         9.62572          26.036 
        1.20881          24.731         9.51147         25.8814 
        1.21495         24.5486         9.39925         25.7506 
        1.22108         24.3735         9.28888          25.523 
         1.2272         24.0958         9.18054         25.3783 
        1.23334         24.0152         9.07369         25.2407 
        1.23949         23.8278         8.96829         25.0055 
        1.24562         23.7164         8.86487         24.8687 
        1.25174         23.5887         8.76323         24.7269 
        1.25789         23.3984         8.66289         24.5588 
        1.26402          23.297         8.56431         24.3753 
        1.27014         23.0249          8.4675         24.2536 
        1.27628         22.8667         8.37191         24.0658 
        1.28244         22.7703         8.27762         24.0071 
        1.28858         22.6748         8.18491         23.7971 
        1.29471          22.487         8.09384         23.6424 
        1.30084         22.3181         8.00424         23.5588 
        1.30697         22.1498         7.91587         23.3674 
        1.31312         21.9606         7.82871         23.2196 
        1.31925         21.8413         7.74314         23.1189 
        1.32537         21.7784         7.65894         23.0006 
        1.33151         21.5687          7.5757         22.8521 
        1.33765         21.5019         7.49374         22.7185 
        1.34378         21.3863         7.41317         22.5882 
        1.34992         21.1002         7.33372         22.4762 
        1.35606         21.0547         7.25527         22.3195 
         1.3622         20.9268         7.17811         22.2039 
        1.36833         20.7638         7.10226         22.1015 
        1.37445         20.7326         7.02754         21.9203 
        1.38059         20.5706         6.95368          21.789 
        1.38675         20.3508          6.8807         21.7068 
        1.39288         20.3042         6.80905          21.567 
        1.39901          20.139         6.73847         21.4605 
        1.40515         20.0546         6.66873          21.339 
         1.4113         19.9051             6.6         21.2216 
        1.41742           19.73         6.53251         21.1234 
        1.42355         19.6891         6.46584         20.9681 
         1.4297         19.5688          6.3999         20.8624 
        1.43585         19.5065         6.33491         20.7943 
        1.44198         19.2961         6.27108         20.6689 
        1.44809         19.2255         6.20824         20.5805 
        1.45423         19.1183         6.14604         20.4266 
        1.46036         19.0412          6.0848         20.3072 
        1.46649         18.9126         6.02438         20.2265 
        1.47263         18.7676         5.96473         20.1564 
        1.47877         18.6812         5.90592         20.0717 
        1.48491         18.5783         5.84781         19.8915 
        1.49104         18.5324         5.79061         19.8072 
        1.49718          18.355         5.73413         19.7371 
        1.50333         18.2854         5.67832         19.6392 
        1.50947         18.2086         5.62337          19.553 
         1.5156         18.0424         5.56922           19.45 
        1.52172         17.9188         5.51579         19.3168 
        1.52787         17.8973         5.46296         19.2233 
          1.534         17.7573         5.41088         19.1355 
        1.54013         17.6106         5.35954          19.007 
        1.54627         17.5577         5.30878         18.9034 
        1.55241         17.4483         5.25866         18.8374 
        1.55855         17.3555         5.20927         18.7576 
        1.56467         17.2722         5.16065         18.6684 
         1.5708         17.2191         5.11251          18.588 
        1.57695         17.0469         5.06492          18.495 
        1.58308         17.0422         5.01804         18.4093 
        1.58922         16.9249         4.97172         18.3473 
        1.59535         16.8259         4.92601         18.2534 
         1.6015         16.7246         4.88081         18.1591 
        1.60764          16.666          4.8362          18.057 
        1.61376         16.5736         4.79228         17.9541 
        1.61989         16.4221         4.74886          17.907 
        1.62604         16.4149         4.70588         17.8586 
        1.63218         16.2906         4.66347         17.7695 
        1.63831         16.2499         4.62167         17.6762 
        1.64444         16.1013         4.58037         17.6135 
        1.65059         16.0336         4.53948         17.5042 
        1.65673         15.9894         4.49913         17.4315 
        1.66285         15.8582         4.45939          17.369 
        1.66898          15.826         4.42011         17.2656 
        1.67512         15.7559         4.38123         17.1759 
        1.68127         15.6402         4.34279         17.1105 
         1.6874         15.5553         4.30489         17.0333 
        1.69353         15.5053         4.26746         16.9286 
        1.69967         15.3926          4.2304         16.8841 
        1.70581         15.3191         4.19379         16.8379 
        1.71193         15.2354         4.15775         16.7597 
        1.71806         15.1828         4.12206         16.6846 
        1.72421         15.0964         4.08673         16.6251 
        1.73035         15.0442         4.05184         16.5532 
        1.73649         14.9484         4.01737         16.4651 
        1.74262         14.9206         3.98333         16.3925 
        1.74876         14.8248         3.94966         16.3204 
        1.75489         14.7597         3.91646         16.2451 
        1.76101         14.6654         3.88364         16.1764 
        1.76715         14.6516         3.85115         16.1213 
        1.77329         14.5436           3.819         16.0391 
        1.77943         14.4651          3.7872         15.9658 
        1.78557         14.4078         3.75581         15.9337 
        1.79171         14.3672         3.72477         15.8638 
        1.79785         14.2502         3.69408         15.7818 
        1.80399         14.1947         3.66374         15.7372 
        1.81012         14.1543         3.63378         15.6622 
        1.81625         14.0645         3.60417         15.6044 
        1.82239         14.0269         3.57484         15.5693 
        1.82853         13.9067         3.54586         15.4866 
        1.83466         13.8525         3.51722         15.4134 
        1.84078         13.7539         3.48893         15.3624 
        1.84692         13.7441         3.46091         15.2928 
        1.85306         13.6616         3.43316         15.2299 
         1.8592         13.6132         3.40576         15.1787 
        1.86533         13.5562         3.37868         15.1191 
        1.87147         13.4851         3.35186         15.0573 
