# k  (h/Mpc)    Pcb(k)  (Mpc/h)^3    Pcb_linear(k) (Mpc/h)^3    Pcb_NL(k) (Mpc/h)^3   ShotnoiseSubtracted = false
     0.00783031         18175.8         18450.3         18367.9 
       0.013688         23333.3         23092.3         22928.7 
       0.019231         23721.9         23693.5         23464.6 
      0.0249154           21621         22169.3         21913.7 
      0.0312784         19067.3           19361         19084.9 
      0.0375637         16449.9         16501.4         16253.3 
      0.0433917         13953.2         14279.4         14020.5 
      0.0492413         12480.4         12610.7         12371.4 
      0.0555754         10951.4         11369.9         11159.2 
      0.0619321         10504.3         10523.5         10318.2 
       0.067871         9544.53         9894.25         9699.82 
      0.0738098         8931.05          9267.2         8970.26 
      0.0800417         8098.53         8523.03         8250.12 
      0.0862327         7416.86         7693.09         7535.05 
      0.0921407          6785.3         6874.62         6754.31 
      0.0982031         6008.08         6088.48         6106.92 
       0.104506         5554.27         5399.95         5534.96 
       0.110769         5055.08         4879.87         4985.02 
       0.116806         4715.35         4526.95         4630.22 
       0.122832         4471.31          4285.9         4398.71 
       0.129052         4167.02         4103.35         4198.44 
       0.135211         3992.31         3937.75            4008 
       0.141259         3866.12         3752.81         3854.96 
       0.147318         3676.17         3529.52         3670.65 
       0.153489         3380.83         3268.87         3376.28 
       0.159709         3192.65         2994.49         3180.25 
       0.165845         3056.74         2739.05         3031.08 
       0.171974         2866.84         2520.25          2840.2 
       0.178125         2713.11         2347.45         2732.93 
       0.184229         2577.55          2221.1         2582.44 
        0.19034          2453.5         2129.54         2477.36 
       0.196428         2407.61         2058.16         2376.42 
       0.202534         2320.36         1991.08         2306.72 
       0.208729         2228.76         1915.53         2197.64 
       0.214876         2151.94         1827.42         2151.92 
       0.220989         2078.99         1728.01          2089.1 
       0.227147         1994.13         1622.39         2020.88 
        0.23329         1913.39         1519.99         1957.37 
       0.239377         1883.54         1428.83         1876.28 
       0.245482         1769.34         1352.01         1790.46 
       0.251667         1758.45         1289.82         1742.47 
       0.257832         1688.74         1241.03         1681.63 
       0.263955         1634.19         1201.02         1632.77 
       0.270079         1581.45          1164.3         1588.69 
        0.27624         1563.03         1126.44          1544.2 
       0.282372         1500.06         1085.26         1520.34 
        0.28843         1497.09         1040.91         1491.35 
       0.294538         1426.13         993.918         1450.17 
       0.300721         1414.41         946.592         1407.41 
        0.30691         1363.66         902.063         1387.55 
       0.313033         1335.11         862.698         1341.93 
       0.319153         1317.75         828.781         1301.94 
       0.325316         1273.94         799.697         1279.32 
        0.33145         1248.08         774.606         1233.99 
       0.337538         1223.02         751.888         1214.87 
       0.343633         1200.35         729.793         1201.45 
       0.349808         1162.28         707.003         1184.11 
       0.355968         1152.74         683.346         1164.52 
       0.362074         1143.15         659.259         1144.35 
       0.368217         1106.14         634.948         1117.73 
       0.374374          1068.7         611.393          1096.4 
       0.380519         1071.25         589.384         1074.64 
       0.386598         1039.69         569.496         1059.53 
       0.392688         1035.03         551.583         1036.18 
        0.39888          1005.9         535.087         1018.88 
       0.405048         996.156         519.963         1001.42 
       0.411186          981.65         505.665         984.948 
       0.417313         960.968         491.656         973.377 
       0.423458         944.275          477.65         956.415 
       0.429607         933.416         463.587         941.599 
       0.435692         915.446         449.722         922.186 
       0.441815         906.885         436.075         919.235 
       0.447964         888.279         422.913         907.699 
       0.454126         882.853         410.424         881.673 
       0.460267         860.455         398.803         879.732 
       0.466387         848.825         388.019          863.94 
        0.47254         847.956          377.83         851.736 
       0.478662         835.611         368.195         839.646 
       0.484765         813.416         358.947         830.931 
       0.490885         808.855         349.889         815.509 
       0.497035         791.071         340.913         808.686 
       0.503198         786.856         332.059         799.969 
       0.509342           777.6         323.428         786.026 
       0.515458         773.781         315.079         780.963 
       0.521598         754.952         306.994         773.456 
       0.527764         741.957         299.227         765.735 
       0.533884         739.323           291.9         756.723 
           0.54         733.737         284.929         747.706 
       0.546137         724.454         278.225         739.104 
       0.552299         716.447         271.736         728.952 
       0.558452          709.39         265.461         723.547 
       0.564573         700.874         259.389          717.12 
       0.570708         693.495         253.446         708.146 
       0.576825         675.767         247.651         699.012 
       0.582926         678.821          242.01         694.241 
       0.589034          670.73         236.527          683.64 
       0.595184         665.116         231.193         677.469 
       0.601379         655.626         226.019         671.446 
       0.607522         646.243         221.074          661.43 
       0.613639         646.077         216.319         659.551 
       0.619772         633.959         211.706          657.61 
       0.625918         628.848         207.225         648.484 
       0.632068         621.191         202.874         645.205 
       0.638161         618.153         198.682         634.611 
         0.6443         608.063         194.569         629.913 
       0.650464         606.268         190.545         621.612 
       0.656582         599.824          186.65         618.175 
       0.662703         597.866         182.857         613.662 
       0.668861         587.984         179.148         610.925 
       0.675024         582.658         175.545         606.598 
       0.681124         578.823         172.088         597.289 
       0.687237         574.442         168.729         591.896 
       0.693381          566.75         165.451         586.608 
       0.699536          556.78         162.258         582.693 
       0.705665         557.164         159.163         575.614 
       0.711789         553.581         156.149         571.243 
       0.717957         548.311         153.187         570.664 
        0.72409         545.534         150.314         564.332 
       0.730186         537.086          147.53         558.495 
       0.736317         534.702         144.801         554.748 
       0.742472         530.438         142.131         550.971 
       0.748622          525.04         139.534         545.451 
        0.75476         516.645          137.01         546.136 
       0.760888         512.724         134.555         539.468 
       0.767043         512.006         132.153          532.65 
       0.773185         507.412         129.816         529.563 
       0.779291         502.238          127.55         525.254 
       0.785407         497.597         125.335         522.284 
       0.791564         492.712         123.159         520.372 
       0.797719          490.89         121.034         515.041 
       0.803834         484.438         118.973         511.982 
       0.809972             483         116.951         508.764 
       0.816124         481.329         114.972         502.401 
       0.822261         473.984         113.045         500.147 
       0.828378             472         111.167         496.544 
       0.834502         466.326         109.331         495.012 
       0.840667         462.812         107.525         490.824 
       0.846816          460.22         105.766         486.958 
       0.852925         457.195         104.057         484.155 
       0.859047         455.378         102.384         479.359 
       0.865192         448.885         100.742         476.244 
       0.871341         445.176          99.135         473.591 
       0.877463         444.976         97.5711         470.729 
       0.883569         439.962         96.0451         468.549 
       0.889708         437.648         94.5442          463.83 
       0.895864         436.171         93.0717          461.36 
       0.902008         431.953         91.6338         458.123 
       0.908149         425.565         90.2272         453.814 
       0.914301         424.223         88.8479         450.205 
       0.920448         422.017          87.499         449.214 
       0.926574         415.275         86.1828         445.942 
       0.932687         414.312         84.8967         442.094 
       0.938823         410.111         83.6323         441.394 
       0.944975         410.131          82.391         437.792 
       0.951105          405.39         81.1794         434.419 
       0.957225         402.478         79.9944          432.25 
       0.963368         397.953         78.8292         429.552 
       0.969511         396.809         77.6874         427.013 
       0.975621         394.507         76.5744         423.874 
       0.981748         391.149         75.4806         421.495 
       0.987916         389.033         74.4013         419.565 
        0.99406         383.327         73.3474         416.704 
        1.00019         381.403         72.3161          412.91 
        1.00632         379.836         71.3057         410.317 
        1.01246         376.434         70.3133         407.749 
        1.01859         375.708         69.3414         405.051 
        1.02471         370.976         68.3893         403.071 
        1.03085         369.107         67.4518         401.722 
        1.03698         367.137          66.534         399.962 
        1.04314         364.131         65.6295          396.91 
        1.04929         360.402          64.744         393.339 
        1.05541         361.021         63.8784         390.898 
        1.06154         355.261         63.0266         389.049 
        1.06769         353.631         62.1892         386.223 
        1.07382         350.676         61.3698             384 
        1.07993         348.798         60.5671         382.142 
        1.08607         347.737         59.7755         379.334 
        1.09222         343.423         58.9973         377.215 
        1.09836         341.072          58.234         375.901 
        1.10449         338.988         57.4851         373.787 
        1.11063         334.282         56.7487           370.5 
        1.11677         335.254         56.0254         368.824 
         1.1229         332.332         55.3161         366.537 
        1.12903         330.116         54.6185         364.583 
        1.13518         326.438         53.9324         361.812 
        1.14131         325.047         53.2585         360.421 
        1.14745         322.376         52.5965         357.458 
        1.15359         320.807         51.9457         356.672 
        1.15973         318.527         51.3056         354.225 
        1.16584         315.946         50.6793          352.88 
        1.17197         315.203         50.0626          350.91 
        1.17811         311.836         49.4542         348.346 
        1.18424         309.321         48.8578          346.62 
        1.19038         307.886         48.2696         345.355 
        1.19652         305.711         47.6913          342.47 
        1.20267         304.249         47.1225         340.859 
        1.20881         301.934         46.5632         339.125 
        1.21495           299.7         46.0139         336.845 
        1.22108         297.743         45.4735         334.605 
         1.2272         295.945         44.9432         333.375 
        1.23334         294.091         44.4201         331.164 
        1.23949         291.046         43.9041         329.445 
        1.24562         289.925         43.3978         327.542 
        1.25174         288.396         42.9002         325.893 
        1.25789         285.349          42.409         323.997 
        1.26402         283.605         41.9264         322.943 
        1.27014         281.583         41.4525         320.405 
        1.27628         279.384         40.9845          319.61 
        1.28244         279.399         40.5229         318.171 
        1.28858          276.47         40.0691         316.104 
        1.29471         275.286         39.6232         313.643 
        1.30084         272.694         39.1846         311.905 
        1.30697         271.576          38.752         310.784 
        1.31312         268.493         38.3253         309.043 
        1.31925         266.985         37.9064         307.285 
        1.32537         266.179         37.4942         305.162 
        1.33151         263.633         37.0867         303.969 
        1.33765          261.38         36.6855         302.697 
        1.34378         260.652          36.291         300.609 
        1.34992         258.926         35.9021         298.943 
        1.35606         257.318          35.518         297.075 
         1.3622         255.046         35.1403         296.186 
        1.36833         253.736          34.769         295.113 
        1.37445         251.784         34.4032         292.368 
        1.38059          249.87         34.0416         291.668 
        1.38675         248.539         33.6843         290.558 
        1.39288         247.074         33.3336         288.363 
        1.39901         245.533          32.988         286.602 
        1.40515         244.119         32.6466         284.854 
         1.4113         242.214         32.3102         283.255 
        1.41742         240.322         31.9798         282.101 
        1.42355         239.378         31.6534         280.546 
         1.4297         237.435         31.3306         278.723 
        1.43585         236.015         31.0124         278.352 
        1.44198         234.902         30.6999         276.403 
        1.44809         232.467         30.3923         275.094 
        1.45423         231.275         30.0878         273.008 
        1.46036         229.928          29.788         271.964 
        1.46649         228.475         29.4922         270.867 
        1.47263         227.285         29.2002         268.995 
        1.47877         225.321         28.9123          267.39 
        1.48491         223.104         28.6279         265.831 
        1.49104          222.39         28.3478          264.73 
        1.49718         220.688         28.0713         264.278 
        1.50333          219.77         27.7981          262.47 
        1.50947         218.149         27.5291         260.965 
         1.5156         216.201          27.264         259.873 
        1.52172         215.488         27.0024         258.319 
        1.52787         213.511         26.7438         257.169 
          1.534         212.897         26.4889         255.763 
        1.54013         210.775         26.2375         254.547 
        1.54627         209.887          25.989         253.583 
        1.55241         208.459         25.7437         252.398 
        1.55855         206.397         25.5019         251.034 
        1.56467         206.127         25.2638         249.384 
         1.5708         204.516         25.0282         248.059 
        1.57695         203.067         24.7952         246.912 
        1.58308         201.784         24.5657         245.516 
        1.58922         199.799          24.339         244.301 
        1.59535         198.753         24.1152         243.388 
         1.6015         197.455         23.8939         242.497 
        1.60764         196.465         23.6755         241.114 
        1.61376          195.36         23.4605         239.532 
        1.61989         194.074         23.2479         238.412 
        1.62604           192.6         23.0376         237.189 
        1.63218         191.521         22.8299         236.039 
        1.63831         190.036         22.6253         235.007 
        1.64444         189.017         22.4231         233.824 
        1.65059         188.151         22.2229         232.831 
        1.65673         186.613         22.0254         231.706 
        1.66285         185.164         21.8308         230.378 
        1.66898         184.283         21.6386         229.107 
        1.67512          183.34         21.4482         228.167 
        1.68127         181.328           21.26         227.057 
         1.6874         180.819         21.0745         225.926 
        1.69353         179.384         20.8913         225.097 
        1.69967         178.012         20.7098         223.928 
        1.70581         177.265         20.5306         222.845 
        1.71193         175.766         20.3542         221.817 
        1.71806         175.086         20.1795         220.407 
        1.72421         173.719         20.0065         219.397 
        1.73035         172.912         19.8357         218.424 
        1.73649         171.781          19.667         217.258 
        1.74262          170.57         19.5003         216.294 
        1.74876         169.089         19.3355         215.282 
        1.75489         168.522         19.1729         214.335 
        1.76101         167.025         19.0123         213.524 
        1.76715         166.259         18.8532         212.536 
        1.77329         165.123         18.6958         211.556 
        1.77943         164.254         18.5402         210.505 
        1.78557         163.011         18.3865         209.299 
        1.79171         162.319         18.2345         208.353 
        1.79785          160.81         18.0843         207.438 
        1.80399         160.015         17.9357          206.31 
        1.81012         159.056         17.7891         205.688 
        1.81625         158.244         17.6441         204.832 
        1.82239         156.903         17.5006         203.538 
        1.82853         156.293         17.3587         202.627 
        1.83466         155.257         17.2185         201.639 
        1.84078         154.316           17.08         200.606 
        1.84692         153.132         16.9428         199.983 
        1.85306         152.305          16.807         198.926 
         1.8592         151.311         16.6728         197.761 
        1.86533         150.598         16.5402         197.209 
        1.87147         149.552         16.4089         196.455 
