# k  (h/Mpc)    Pcb(k)  (Mpc/h)^3    Pcb_linear(k) (Mpc/h)^3    Pcb_NL(k) (Mpc/h)^3   ShotnoiseSubtracted = false
     0.00783031         214.006         215.883         215.034 
       0.013688         269.573         270.527         269.425 
       0.019231         277.456         277.707         276.423 
      0.0249154         258.954         259.912         259.088 
      0.0312784         226.911         227.028         226.798 
      0.0375637         193.859         193.517          193.48 
      0.0433917         167.544          167.47         167.589 
      0.0492413         148.137         147.907         148.059 
      0.0555754         133.286         133.359          133.44 
      0.0619321         123.753         123.435         123.462 
       0.067871         115.921         116.057         115.995 
      0.0738098         108.485         108.703         108.575 
      0.0800417         99.6471         99.9758         99.8526 
      0.0862327         90.0863         90.2417         90.1699 
      0.0921407         80.6122         80.6415         80.6277 
      0.0982031         71.3273         71.4205         71.4742 
       0.104506         63.5052         63.3442          63.443 
       0.110769         57.3761         57.2437         57.3367 
       0.116806         53.0703          53.104         53.1691 
       0.122832         50.3379         50.2766         50.3255 
       0.129052         48.0537         48.1352         48.1515 
       0.135211         46.0629         46.1928         46.1867 
       0.141259          43.972         44.0234         44.0149 
       0.147318         41.4335         41.4041          41.416 
       0.153489         38.3251         38.3465         38.3607 
       0.159709         35.1313          35.128         35.1754 
       0.165845         32.2758         32.1315         32.2195 
       0.171974         29.5806         29.5648          29.657 
       0.178125         27.5912         27.5378         27.6456 
       0.184229         26.1447         26.0557          26.157 
        0.19034          24.948         24.9815         25.0683 
       0.196428         24.1682         24.1442         24.2044 
       0.202534         23.4666         23.3573         23.4118 
       0.208729         22.5039         22.4711         22.5205 
       0.214876         21.4088         21.4374         21.5072 
       0.220989         20.3586         20.2713         20.3532 
       0.227147         19.0235         19.0322         19.1212 
        0.23329         17.8366         17.8311         17.9398 
       0.239377         16.7918         16.7617         16.8804 
       0.245482          15.866         15.8605         15.9694 
       0.251667         15.1997          15.131         15.2459 
       0.257832         14.5992         14.5586          14.666 
       0.263955         14.1356         14.0892         14.1864 
       0.270079         13.7059         13.6585         13.7485 
        0.27624          13.301         13.2143         13.2975 
       0.282372         12.8122         12.7312         12.8218 
        0.28843         12.2536          12.211          12.306 
       0.294538         11.7087         11.6597         11.7605 
       0.300721         11.1956         11.1046          11.214 
        0.30691         10.6394         10.5822         10.6951 
       0.313033         10.1849         10.1204          10.231 
       0.319153         9.72751         9.72252         9.83692 
       0.325316         9.47317         9.38133         9.49676 
        0.33145         9.16118         9.08698         9.19432 
       0.337538         8.88799         8.82048         8.92254 
       0.343633          8.6098         8.56128         8.66077 
       0.349808         8.35679         8.29393         8.39705 
       0.355968         8.08532          8.0164         8.13176 
       0.362074         7.79314         7.73384         7.84401 
       0.368217         7.51237         7.44865         7.55096 
       0.374374         7.21377         7.17232         7.28264 
       0.380519         6.98104         6.91414         7.02103 
       0.386598         6.75604         6.68083         6.79059 
       0.392688         6.55991         6.47069          6.5792 
        0.39888         6.35299         6.27717         6.38445 
       0.405048         6.17948         6.09975         6.19937 
       0.411186         6.01432         5.93203         6.04052 
       0.417313         5.83311         5.76768         5.87182 
       0.423458         5.68055         5.60337         5.70876 
       0.429607          5.5007          5.4384         5.54016 
       0.435692         5.33927         5.27575         5.38136 
       0.441815         5.18178         5.11566         5.22682 
       0.447964         5.04788         4.96125         5.06848 
       0.454126         4.87888         4.81474         4.92049 
       0.460267          4.7433         4.67842         4.78678 
       0.466387         4.60717         4.55191         4.65485 
        0.47254          4.4955         4.43238         4.53585 
       0.478662         4.38834         4.31935         4.42009 
       0.484765         4.26926         4.21086         4.31148 
       0.490885         4.16541          4.1046         4.21206 
       0.497035         4.08066          3.9993         4.10791 
       0.503198          3.9656         3.89544         3.99527 
       0.509342         3.87049         3.79419         3.89629 
       0.515458          3.7624         3.69624         3.80297 
       0.521598         3.67029          3.6014         3.70004 
       0.527764         3.57042         3.51028         3.60836 
       0.533884         3.49943         3.42432         3.52204 
           0.54         3.41277         3.34255         3.43835 
       0.546137         3.33796          3.2639         3.36201 
       0.552299         3.25975         3.18778         3.27861 
       0.558452         3.17483         3.11417         3.20649 
       0.564573         3.11181         3.04294         3.14226 
       0.570708         3.04163         2.97322         3.07002 
       0.576825         2.96718         2.90523         2.99978 
       0.582926          2.9095         2.83906         2.93512 
       0.589034         2.82663         2.77473          2.8739 
       0.595184         2.76939         2.71216         2.80114 
       0.601379         2.70853         2.65146          2.7479 
       0.607522         2.65839         2.59346         2.68778 
       0.613639         2.61012         2.53768         2.63016 
       0.619772         2.54223         2.48356         2.57887 
       0.625918         2.49482           2.431         2.52224 
       0.632068         2.44955         2.37994         2.46929 
       0.638161         2.39262         2.33077          2.4201 
         0.6443         2.34363         2.28252         2.36971 
       0.650464         2.28952         2.23531         2.32637 
       0.656582         2.25166         2.18963         2.27893 
       0.662703         2.20696         2.14513          2.2326 
       0.668861          2.1692         2.10162         2.19179 
       0.675024         2.12021         2.05935         2.14722 
       0.681124         2.07476         2.01879         2.10485 
       0.687237         2.04147         1.97939         2.06182 
       0.693381         2.00356         1.94093         2.02119 
       0.699536         1.95381         1.90348         1.98484 
       0.705665         1.92019         1.86717         1.95379 
       0.711789         1.88889         1.83181         1.91658 
       0.717957         1.84958         1.79706         1.87866 
        0.72409         1.81704         1.76336         1.84537 
       0.730186         1.78327          1.7307         1.81003 
       0.736317         1.75937         1.69869         1.77679 
       0.742472         1.72595         1.66737         1.74975 
       0.748622         1.69205          1.6369         1.71941 
        0.75476         1.65681         1.60729         1.68578 
       0.760888         1.62806         1.57849         1.65726 
       0.767043         1.60887         1.55031         1.62978 
       0.773185         1.57434          1.5229          1.6032 
       0.779291         1.54932         1.49631         1.57583 
       0.785407         1.52299         1.47033         1.54821 
       0.791564         1.49827         1.44479          1.5225 
       0.797719         1.47527         1.41987         1.49434 
       0.803834         1.45156         1.39569         1.47105 
       0.809972         1.42609         1.37198         1.44966 
       0.816124         1.39986         1.34876         1.42316 
       0.822261         1.37434         1.32615         1.39952 
       0.828378         1.35591         1.30412         1.37749 
       0.834502         1.33705         1.28258         1.35413 
       0.840667         1.30932          1.2614         1.33386 
       0.846816         1.28907         1.24076         1.31612 
       0.852925         1.27393         1.22072         1.29355 
       0.859047         1.25323         1.20108         1.27609 
       0.865192         1.23129         1.18182         1.25462 
       0.871341         1.21233         1.16297          1.2346 
       0.877463         1.19778         1.14462         1.21492 
       0.883569         1.17563         1.12672         1.19836 
       0.889708         1.15769         1.10912          1.1803 
       0.895864         1.14003         1.09184         1.16172 
       0.902008         1.12149         1.07497         1.14463 
       0.908149         1.10515         1.05847         1.12819 
       0.914301         1.08406         1.04229         1.11042 
       0.920448          1.0702         1.02647         1.09385 
       0.926574         1.05389         1.01103           1.079 
       0.932687          1.0384        0.995939         1.06123 
       0.938823         1.02757        0.981106         1.04981 
       0.944975         1.01159        0.966544         1.03136 
       0.951105        0.997664        0.952331         1.01706 
       0.957225        0.986349        0.938429          1.0047 
       0.963368        0.970768         0.92476        0.989341 
       0.969511         0.95485        0.911365        0.975972 
       0.975621        0.940143        0.898309        0.959955 
       0.981748        0.931097        0.885477        0.947234 
       0.987916        0.916584        0.872816         0.93705 
        0.99406        0.902596        0.860452        0.924909 
        1.00019        0.892974        0.848354        0.912099 
        1.00632        0.877387        0.836501        0.898406 
        1.01246        0.865794        0.824858        0.886045 
        1.01859        0.855821        0.813457        0.875392 
        1.02471        0.843267        0.802288        0.863973 
        1.03085          0.8347         0.79129        0.850744 
        1.03698        0.821421        0.780523        0.839276 
        1.04314        0.811483        0.769912        0.829067 
        1.04929        0.799584        0.759524        0.818519 
        1.05541        0.790961         0.74937        0.809015 
        1.06154        0.779029        0.739378        0.798548 
        1.06769        0.768385        0.729553        0.788189 
        1.07382        0.759532        0.719941        0.778075 
        1.07993        0.747918        0.710524        0.768157 
        1.08607        0.742021        0.701238        0.759167 
        1.09222        0.730355        0.692109        0.748546 
        1.09836        0.724162        0.683154        0.740113 
        1.10449        0.714717        0.674369        0.731029 
        1.11063        0.703132         0.66573        0.720899 
        1.11677        0.693753        0.657245        0.713322 
         1.1229        0.686386        0.648924        0.704591 
        1.12903        0.677137         0.64074        0.695832 
        1.13518        0.670584        0.632691        0.687485 
        1.14131        0.660981        0.624785         0.67954 
        1.14745        0.649745        0.617019         0.67015 
        1.15359        0.644762        0.609384        0.663262 
        1.15973        0.634724        0.601876        0.655935 
        1.16584        0.631001        0.594528        0.647242 
        1.17197        0.622096        0.587293        0.640179 
        1.17811        0.615671        0.580157        0.633338 
        1.18424        0.609969        0.573161        0.624842 
        1.19038        0.600623         0.56626        0.617948 
        1.19652        0.592366        0.559476        0.611403 
        1.20267        0.588085        0.552804        0.602908 
        1.20881        0.579638        0.546242        0.597106 
        1.21495        0.574783        0.539798        0.591779 
        1.22108        0.567628        0.533459        0.583716 
         1.2272         0.56213        0.527237        0.576579 
        1.23334        0.554568          0.5211        0.570751 
        1.23949        0.548478        0.515047        0.565178 
        1.24562        0.542619        0.509108        0.558806 
        1.25174        0.536945        0.503271         0.55201 
        1.25789        0.531534        0.497509        0.546001 
        1.26402        0.523598        0.491847        0.540188 
        1.27014        0.518392        0.486287        0.534045 
        1.27628        0.514258        0.480798        0.528046 
        1.28244        0.506227        0.475383        0.522626 
        1.28858        0.501729        0.470058        0.516337 
        1.29471        0.497663        0.464828        0.511418 
        1.30084        0.490909        0.459682        0.507106 
        1.30697        0.485711        0.454607        0.501272 
        1.31312        0.478735        0.449602        0.495731 
        1.31925        0.474943        0.444687        0.491131 
        1.32537        0.470672        0.439852        0.486131 
        1.33151        0.466422        0.435071        0.481013 
        1.33765        0.461121        0.430365        0.476034 
        1.34378        0.454953        0.425737        0.471181 
        1.34992        0.451252        0.421175        0.466484 
        1.35606        0.446211        0.416669        0.461034 
         1.3622        0.441809        0.412238        0.456552 
        1.36833        0.436996        0.407882        0.452412 
        1.37445        0.431267        0.403591        0.448127 
        1.38059        0.427276        0.399349        0.443217 
        1.38675         0.42558        0.395157        0.438611 
        1.39288        0.419767        0.391043        0.434108 
        1.39901        0.415643        0.386989        0.430102 
        1.40515        0.411915        0.382984        0.425695 
         1.4113        0.406722        0.379037         0.42197 
        1.41742        0.402842        0.375161        0.418717 
        1.42355        0.400386        0.371332        0.412974 
         1.4297        0.394933        0.367546        0.410156 
        1.43585         0.39151        0.363813         0.40587 
        1.44198        0.388996        0.360147         0.40074 
        1.44809        0.383845        0.356538        0.398541 
        1.45423        0.380494        0.352966        0.393329 
        1.46036        0.376601        0.349449        0.390105 
        1.46649        0.373621        0.345979        0.387299 
        1.47263        0.369477        0.342554        0.383227 
        1.47877        0.365337        0.339176        0.379684 
        1.48491         0.36245        0.335839        0.376595 
        1.49104        0.358025        0.332554        0.372053 
        1.49718        0.355208        0.329311        0.369711 
        1.50333        0.352378        0.326105        0.365168 
        1.50947        0.348802        0.322949        0.361629 
         1.5156        0.345239         0.31984        0.359183 
        1.52172        0.342252        0.316771        0.355395 
        1.52787        0.338914        0.313737        0.352074 
          1.534        0.335758        0.310746        0.349391 
        1.54013        0.332104        0.307798        0.346147 
        1.54627        0.329834        0.304882        0.342774 
        1.55241        0.326251        0.302004        0.339702 
        1.55855        0.322903        0.299168        0.336665 
        1.56467        0.321591        0.296375        0.334012 
         1.5708        0.317779        0.293611        0.330611 
        1.57695        0.315154        0.290877        0.327349 
        1.58308        0.311962        0.288185        0.325055 
        1.58922        0.309491        0.285526        0.322377 
        1.59535        0.306445          0.2829        0.319296 
         1.6015        0.303665        0.280305         0.31613 
        1.60764         0.30128        0.277743        0.313821 
        1.61376         0.29774         0.27522        0.311892 
        1.61989        0.295837        0.272726        0.308913 
        1.62604        0.293388        0.270258        0.306061 
        1.63218         0.29097        0.267822         0.30357 
        1.63831        0.288494        0.265422        0.300996 
        1.64444        0.285709         0.26305        0.298161 
        1.65059        0.283288        0.260702        0.295608 
        1.65673        0.280914        0.258385        0.293303 
        1.66285        0.278774        0.256102        0.290909 
        1.66898        0.276477        0.253846        0.288279 
        1.67512        0.273408        0.251614        0.285847 
        1.68127        0.270959        0.249406        0.283632 
         1.6874        0.269539        0.247229        0.281528 
        1.69353        0.266577         0.24508        0.279269 
        1.69967        0.264987        0.242951        0.276534 
        1.70581        0.262004        0.240849        0.274184 
        1.71193        0.260138        0.238779        0.272201 
        1.71806        0.257646         0.23673        0.269872 
        1.72421        0.256114          0.2347        0.268006 
        1.73035        0.253524        0.232697        0.265798 
        1.73649        0.251991        0.230717        0.263081 
        1.74262        0.249643        0.228762        0.261046 
        1.74876        0.247463        0.226829        0.259428 
        1.75489        0.245732        0.224922        0.257457 
        1.76101        0.243165        0.223037        0.255114 
        1.76715        0.241417        0.221171        0.253343 
        1.77329        0.239259        0.219325        0.251557 
        1.77943        0.237308        0.217499        0.249427 
        1.78557        0.235915        0.215696        0.247185 
        1.79171        0.233936        0.213913         0.24504 
        1.79785        0.231981        0.212151        0.243268 
        1.80399        0.230078        0.210408         0.24173 
        1.81012        0.228426        0.208688        0.239311 
        1.81625        0.226478        0.206987        0.237293 
        1.82239        0.224913        0.205303         0.23614 
        1.82853        0.222557        0.203638        0.234516 
        1.83466        0.221189        0.201994        0.232463 
        1.84078        0.219303        0.200369         0.23052 
        1.84692        0.217571         0.19876        0.229063 
        1.85306        0.216362        0.197166        0.227087 
         1.8592        0.214235        0.195593        0.224976 
        1.86533         0.21294        0.194037        0.223593 
        1.87147        0.211117        0.192497        0.222085 
