# k  (h/Mpc)    Pcb(k)  (Mpc/h)^3    Pcb_linear(k) (Mpc/h)^3    Pcb_NL(k) (Mpc/h)^3   ShotnoiseSubtracted = false
     0.00783031           16213         16450.4         16379.3 
       0.013688         20790.3         20590.1         20451.5 
       0.019231         21155.1         21126.6         20934.2 
      0.0249154         19313.2         19767.7         19557.8 
      0.0312784         17028.6         17263.8         17042.4 
      0.0375637         14681.3           14714           14516 
      0.0433917         12469.1         12732.7         12527.1 
      0.0492413         11144.4         11244.8         11055.3 
      0.0555754         9797.37         10138.4         9971.08 
      0.0619321         9381.09         9383.67         9220.17 
       0.067871         8540.95         8822.62         8667.34 
      0.0738098         7991.04         8263.49         8025.52 
      0.0800417         7252.47         7599.93         7380.73 
      0.0862327         6636.51         6859.89         6733.77 
      0.0921407         6060.71         6130.06         6034.05 
      0.0982031         5361.92         5429.07         5446.35 
       0.104506         4946.46         4815.11         4927.09 
       0.110769            4498         4351.36         4436.89 
       0.116806         4188.34         4036.67         4120.62 
       0.122832         3974.57         3821.72         3914.03 
       0.129052         3708.03         3658.94         3735.98 
       0.135211         3554.67         3511.28         3569.04 
       0.141259          3439.2         3346.37         3429.15 
       0.147318         3267.64         3147.26         3264.01 
       0.153489         3004.62         2914.84         3001.79 
       0.159709         2833.62         2670.18         2821.73 
       0.165845         2704.36          2442.4         2683.05 
       0.171974         2531.52          2247.3         2508.97 
       0.178125          2393.4         2093.22         2410.11 
       0.184229         2276.56         1980.55         2277.96 
        0.19034         2158.08          1898.9         2184.51 
       0.196428         2121.03         1835.25         2093.55 
       0.202534         2048.19         1775.44         2031.79 
       0.208729         1964.83         1708.07         1936.27 
       0.214876         1891.57          1629.5         1895.72 
       0.220989         1827.86         1540.86         1836.82 
       0.227147         1748.92         1446.68         1772.09 
        0.23329         1676.38         1355.37         1715.25 
       0.239377         1646.86         1274.09         1642.66 
       0.245482         1543.47         1205.58         1565.35 
       0.251667         1533.28         1150.13         1523.04 
       0.257832         1472.39         1106.62         1468.59 
       0.263955         1425.42         1070.94         1424.39 
       0.270079         1378.36         1038.21         1385.62 
        0.27624         1363.74         1004.44         1346.04 
       0.282372         1307.62         967.721         1321.83 
        0.28843         1300.72         928.174         1293.87 
       0.294538         1237.16         886.275         1258.56 
       0.300721         1228.72         844.074         1221.22 
        0.30691         1180.96         804.368         1201.94 
       0.313033         1157.03         769.266         1161.38 
       0.319153         1138.17         739.023            1127 
       0.325316         1100.81         713.088            1106 
        0.33145         1077.14         690.715          1066.2 
       0.337538         1057.02         670.457         1048.27 
       0.343633         1034.46         650.755         1037.15 
       0.349808         1000.33         630.433         1020.97 
       0.355968         993.064         609.338         1003.84 
       0.362074         983.311          587.86         985.204 
       0.368217         952.306         566.182          960.37 
       0.374374             917         545.178          941.82 
       0.380519         918.415         525.552         921.695 
       0.386598         892.242         507.818         909.658 
       0.392688         888.946         491.845         886.985 
        0.39888         862.949         477.136         872.934 
       0.405048         852.487          463.65         858.676 
       0.411186         840.378         450.901          842.17 
       0.417313         822.751         438.408         830.876 
       0.423458          808.24         425.919         817.656 
       0.429607         797.906         413.379         803.541 
       0.435692          781.41         401.016         787.198 
       0.441815         774.493         388.847         783.548 
       0.447964         758.039          377.11         772.345 
       0.454126         751.383         365.974         750.619 
       0.460267         732.832         355.612         748.619 
       0.466387         724.117         345.996         734.864 
        0.47254         719.263         336.911         724.659 
       0.478662         711.732         328.319         713.167 
       0.484765         690.896         320.073          704.48 
       0.490885         686.692         311.995         692.106 
       0.497035         671.922         303.991         685.719 
       0.503198         667.812         296.097         677.707 
       0.509342         660.717         288.401         666.736 
       0.515458         656.613         280.956         662.284 
       0.521598         640.021         273.746         654.699 
       0.527764         628.652          266.82         647.776 
       0.533884         626.622         260.287         639.754 
           0.54         620.273         254.071         631.308 
       0.546137         614.674         248.093         623.677 
       0.552299         605.987         242.307         615.153 
       0.558452         601.234         236.711         610.339 
       0.564573         593.373         231.297         605.274 
       0.570708         586.794         225.998         598.473 
       0.576825         570.931          220.83         589.447 
       0.582926         573.136           215.8         584.822 
       0.589034         566.905          210.91         575.854 
       0.595184         562.017         206.154         570.432 
       0.601379         553.488         201.541         565.029 
       0.607522         545.952         197.132          557.09 
       0.613639         545.661         192.891         555.414 
       0.619772         534.078         188.778         553.873 
       0.625918         530.948         184.783          545.22 
       0.632068         523.551         180.902         541.743 
       0.638161         521.449         177.164         533.899 
         0.6443         512.305         173.497          529.98 
       0.650464         510.052         169.908         521.722 
       0.656582         505.624         166.436         518.725 
       0.662703         503.713         163.054         515.624 
       0.668861         495.112         159.746         512.676 
       0.675024         490.904         156.533         508.575 
       0.681124           487.3         153.451         500.345 
       0.687237         483.166         150.455         495.948 
       0.693381         476.547         147.532         491.763 
       0.699536         469.071         144.685         488.496 
       0.705665         468.525         141.926         482.396 
       0.711789         465.758         139.238         479.239 
       0.717957         461.262         136.597          478.14 
        0.72409         458.733         134.035         472.807 
       0.730186         451.691         131.553         468.096 
       0.736317         448.945         129.119         464.449 
       0.742472         446.135         126.738         460.578 
       0.748622         441.332         124.422         456.359 
        0.75476         434.804         122.172         457.196 
       0.760888         430.658         119.983         450.985 
       0.767043         431.107         117.841         446.297 
       0.773185         426.504         115.757         443.374 
       0.779291         421.564         113.736         439.494 
       0.785407         418.776         111.761         437.215 
       0.791564         413.834          109.82         434.645 
       0.797719         411.689         107.926         430.181 
       0.803834         406.908         106.088         428.288 
       0.809972         406.024         104.285         425.311 
       0.816124         404.664         102.521         419.622 
       0.822261          398.73         100.802         417.999 
       0.828378         396.808         99.1277         414.869 
       0.834502         392.006         97.4904         413.291 
       0.840667         389.074         95.8801         409.391 
       0.846816           387.2         94.3111         406.599 
       0.852925         384.376         92.7878         404.187 
       0.859047         382.403         91.2953         400.763 
       0.865192         377.461         89.8312         397.629 
       0.871341          374.35         88.3985         395.604 
       0.877463         373.904          87.004         393.039 
       0.883569         370.234         85.6433         391.347 
       0.889708         367.441         84.3049          387.42 
       0.895864         365.673         82.9919         385.252 
       0.902008         362.318         81.7097         382.497 
       0.908149          358.19         80.4554         379.109 
       0.914301         355.897         79.2256         376.193 
       0.920448         353.841         78.0227         374.598 
       0.926574         348.733         76.8491         371.809 
       0.932687         348.596         75.7022         369.074 
       0.938823         344.674         74.5748          368.53 
       0.944975         344.766         73.4679          365.23 
       0.951105         340.577         72.3875         362.508 
       0.957225         338.383         71.3309         360.584 
       0.963368         334.368         70.2919         358.484 
       0.969511         333.202         69.2737         356.122 
       0.975621         331.022         68.2813          353.67 
       0.981748         329.055         67.3059         351.717 
       0.987916         327.163         66.3435         350.023 
        0.99406         321.958         65.4038         347.683 
        1.00019         320.632         64.4842         344.439 
        1.00632         319.187         63.5832         342.375 
        1.01246         316.343         62.6982          339.87 
        1.01859         316.518         61.8316         337.738 
        1.02471         311.642         60.9826         336.319 
        1.03085         310.028         60.1467         335.036 
        1.03698         308.817         59.3283         333.643 
        1.04314         305.877         58.5217         330.987 
        1.04929         303.176         57.7321         328.122 
        1.05541         303.666         56.9603         326.175 
        1.06154         298.362         56.2008         324.627 
        1.06769         297.564          55.454         322.441 
        1.07382         295.235         54.7233         320.556 
        1.07993         293.403         54.0076         319.081 
        1.08607         292.486         53.3017         316.546 
        1.09222         289.293         52.6078          314.83 
        1.09836         287.301         51.9272         313.735 
        1.10449         284.925         51.2594         311.851 
        1.11063          281.87         50.6027         309.581 
        1.11677         281.828         49.9578         307.689 
         1.1229         279.596         49.3253         306.129 
        1.12903         277.735         48.7032         304.666 
        1.13518         275.213         48.0914          302.42 
        1.14131          273.62         47.4905         300.912 
        1.14745         272.231         46.9002          298.82 
        1.15359         270.302         46.3199         297.669 
        1.15973         268.233         45.7491          295.89 
        1.16584         266.262         45.1906         294.373 
        1.17197         266.132         44.6407         293.058 
        1.17811         262.679         44.0983         291.179 
        1.18424         260.964         43.5665         289.563 
        1.19038         260.027         43.0419         288.574 
        1.19652         257.673         42.5263         286.411 
        1.20267         256.917         42.0191         284.693 
        1.20881         254.833         41.5203         283.419 
        1.21495          252.91         41.0305         281.495 
        1.22108         251.382         40.5487         279.652 
         1.2272         249.817         40.0757         278.084 
        1.23334         248.345         39.6093          276.69 
        1.23949         246.189         39.1492         275.577 
        1.24562          245.23         38.6977         273.788 
        1.25174         243.564         38.2541         272.481 
        1.25789         241.514         37.8161           270.8 
        1.26402          239.42         37.3857         269.992 
        1.27014         237.995         36.9631         268.035 
        1.27628         236.536         36.5458          267.38 
        1.28244         236.158         36.1342         266.115 
        1.28858         233.745         35.7295         264.309 
        1.29471         232.288          35.332          262.03 
        1.30084         230.585         34.9408         260.999 
        1.30697         229.246         34.5551         260.006 
        1.31312         226.882         34.1746         258.212 
        1.31925          225.92         33.8011         256.929 
        1.32537         225.132         33.4335         255.428 
        1.33151         222.954         33.0701         254.265 
        1.33765         221.258         32.7124         253.091 
        1.34378         220.544         32.3606          251.78 
        1.34992         219.145         32.0138         250.114 
        1.35606          218.54         31.6714         248.564 
         1.3622         216.155         31.3346         247.778 
        1.36833         214.502         31.0034         246.771 
        1.37445          213.51         30.6773          244.43 
        1.38059         211.627         30.3548         243.866 
        1.38675         210.749         30.0362         242.954 
        1.39288         209.444         29.7235         240.748 
        1.39901         208.515         29.4154         239.784 
        1.40515         206.744         29.1109         238.574 
         1.4113         205.539         28.8109         237.125 
        1.41742         203.913         28.5163         236.132 
        1.42355         203.124         28.2253         234.783 
         1.4297         201.151         27.9374         233.515 
        1.43585         200.111         27.6537          232.85 
        1.44198         199.109         27.3751         231.477 
        1.44809         197.741         27.1008         230.419 
        1.45423         196.706         26.8292         228.566 
        1.46036         195.321         26.5619         227.689 
        1.46649         193.827         26.2982         226.941 
        1.47263         192.813         26.0378         225.552 
        1.47877         191.363         25.7811         224.108 
        1.48491         189.615         25.5274         222.792 
        1.49104         189.044         25.2777         222.103 
        1.49718         187.373         25.0312         221.191 
        1.50333         186.638         24.7875         219.939 
        1.50947         185.316         24.5476         218.981 
         1.5156         183.732         24.3113         217.815 
        1.52172         183.075          24.078         216.219 
        1.52787         181.331         23.8474         215.501 
          1.534         180.936         23.6201         214.471 
        1.54013         179.385          23.396         213.367 
        1.54627          178.27         23.1744         212.588 
        1.55241         177.061         22.9556         211.573 
        1.55855          175.85           22.74         210.246 
        1.56467         174.759         22.5277         209.144 
         1.5708         173.928         22.3176         208.157 
        1.57695         172.892         22.1098         207.134 
        1.58308         171.739         21.9052          206.11 
        1.58922         170.366          21.703         205.064 
        1.59535         169.089         21.5035         204.231 
         1.6015         168.316         21.3062         203.299 
        1.60764         167.247         21.1114         202.164 
        1.61376         166.316         20.9197         201.134 
        1.61989         165.295         20.7301         200.201 
        1.62604         164.149         20.5425         199.089 
        1.63218         163.157         20.3574         198.156 
        1.63831         161.859         20.1749         197.377 
        1.64444         161.138         19.9947         196.361 
        1.65059         160.118         19.8161         195.568 
        1.65673         158.927           19.64         194.541 
        1.66285         157.877         19.4665         193.434 
        1.66898          156.96         19.2951         192.562 
        1.67512         156.447         19.1253         191.712 
        1.68127          154.74         18.9575         190.887 
         1.6874         154.106         18.7921         190.039 
        1.69353         152.988         18.6287          189.08 
        1.69967         151.778         18.4669         188.111 
        1.70581         151.238         18.3071          187.34 
        1.71193         150.027         18.1498         186.493 
        1.71806         149.348          17.994         185.203 
        1.72421         148.295         17.8397         184.442 
        1.73035          147.59         17.6875         183.757 
        1.73649         146.702          17.537          182.79 
        1.74262         145.669         17.3884         181.937 
        1.74876         144.514         17.2414         181.134 
        1.75489          143.88         17.0965         180.334 
        1.76101         142.574         16.9532          179.56 
        1.76715         142.204         16.8114           178.8 
        1.77329         141.182          16.671          177.86 
        1.77943         140.457         16.5322         176.889 
        1.78557         139.593         16.3952         176.095 
        1.79171         138.768         16.2597         175.326 
        1.79785         137.766         16.1257         174.515 
        1.80399         136.926         15.9933         173.713 
        1.81012         136.058         15.8625         173.045 
        1.81625         135.505         15.7332         172.256 
        1.82239         134.367         15.6052         171.302 
        1.82853         133.811         15.4787         170.442 
        1.83466          132.74         15.3537         169.569 
        1.84078         132.149         15.2302         168.798 
        1.84692         130.931         15.1079         168.309 
        1.85306         130.611         14.9867         167.382 
         1.8592         129.658         14.8671         166.393 
        1.86533         128.906         14.7489          166.02 
        1.87147         127.879         14.6318         165.513 
