# k  (h/Mpc)    Pcb(k)  (Mpc/h)^3    Pcb_linear(k) (Mpc/h)^3    Pcb_NL(k) (Mpc/h)^3   ShotnoiseSubtracted = false
     0.00783031         1026.35         1036.14         1032.26 
       0.013688         1296.43         1297.93         1292.56 
       0.019231         1332.26         1332.21         1325.75 
      0.0249154         1239.57         1246.76         1242.43 
      0.0312784         1087.67         1088.97         1087.37 
      0.0375637         930.474         928.212         927.455 
      0.0433917         802.261         803.265         803.242 
      0.0492413         710.415         709.424         709.647 
      0.0555754         637.402         639.642         639.593 
      0.0619321         594.832         592.037         591.816 
       0.067871          554.99         556.648         556.029 
      0.0738098         519.224         521.377         520.192 
      0.0800417         476.202         479.515         478.412 
      0.0862327         431.258         432.826         432.268 
      0.0921407         386.607          386.78          386.59 
      0.0982031         341.593         342.553         343.074 
       0.104506         305.616         303.816         304.893 
       0.110769         276.158         274.556         275.446 
       0.116806         254.905         254.701         255.464 
       0.122832         242.323          241.14         241.892 
       0.129052         230.556         230.869         231.406 
       0.135211         220.956         221.553         221.969 
       0.141259         211.409         211.148         211.621 
       0.147318         199.556         198.585         199.372 
       0.153489         184.308          183.92         184.506 
       0.159709         169.358         168.483         169.477 
       0.165845         156.384         154.111         155.727 
       0.171974         143.033           141.8         143.421 
       0.178125         133.746         132.078         134.032 
       0.184229         126.962         124.969         126.878 
        0.19034          120.45         119.817          121.57 
       0.196428         117.216         115.801         117.184 
       0.202534         114.194         112.027         113.383 
       0.208729         109.234         107.777         109.057 
       0.214876         103.649         102.819         104.457 
       0.220989         99.1389          97.226         99.0195 
       0.227147          92.369         91.2832         93.1434 
        0.23329         86.8369         85.5221         87.7061 
       0.239377         82.1476         80.3931         82.7327 
       0.245482         77.3194         76.0707         78.2292 
       0.251667         74.5686         72.5719         74.8714 
       0.257832         71.7081         69.8263          72.023 
       0.263955         69.3572         67.5752         69.6239 
       0.270079         67.2551         65.5094         67.4613 
        0.27624         65.5413         63.3788         65.2142 
       0.282372         63.1353          61.062         63.0102 
        0.28843         60.3422         58.5666         60.5704 
       0.294538         57.7147         55.9228         58.0198 
       0.300721         55.5482           53.26         55.5062 
        0.30691         52.7334         50.7546         53.0573 
       0.313033         50.6084         48.5398         50.7906 
       0.319153         48.1346         46.6314         48.9524 
       0.325316         47.2321          44.995         47.3477 
        0.33145          45.571         43.5833         45.7977 
       0.337538         44.3437         42.3051         44.4349 
       0.343633         42.9123         41.0619         43.1774 
       0.349808         41.7102         39.7796         41.9525 
       0.355968         40.4278         38.4485            40.8 
       0.362074         39.0151         37.0933         39.3703 
       0.368217         37.6805         35.7254         37.8742 
       0.374374         36.2692         34.4001         36.6674 
       0.380519         35.1927         33.1618         35.3755 
       0.386598          34.115         32.0428          34.291 
       0.392688         33.2539         31.0349         33.2816 
        0.39888         32.2153         30.1068         32.3085 
       0.405048         31.4184         29.2558         31.3684 
       0.411186         30.6341         28.4514         30.6983 
       0.417313         29.6381         27.6631          29.811 
       0.423458         28.8757         26.8751         29.0546 
       0.429607         28.0098         26.0838         28.2118 
       0.435692         27.1757         25.3037         27.4819 
       0.441815         26.5109         24.5359         26.8031 
       0.447964         25.9493         23.7953         25.9931 
       0.454126         24.9603         23.0926         25.2573 
       0.460267         24.3956         22.4388         24.6543 
       0.466387         23.6372          21.832         23.9663 
        0.47254         23.2042         21.2587         23.4122 
       0.478662         22.7243         20.7166         22.8314 
       0.484765         22.0682         20.1963         22.2856 
       0.490885         21.5398         19.6866         21.8723 
       0.497035         21.1992         19.1816         21.3867 
       0.503198         20.6213         18.6834         20.7713 
       0.509342            20.1         18.1978         20.3229 
       0.515458         19.5821          17.728         19.9282 
       0.521598         19.1761         17.2731         19.3435 
       0.527764         18.7034         16.8361         18.8687 
       0.533884         18.3558         16.4238         18.4546 
           0.54          17.929         16.0316         18.0422 
       0.546137         17.5807         15.6544         17.7031 
       0.552299         17.2312         15.2893         17.2415 
       0.558452          16.706         14.9363         16.8897 
       0.564573         16.4601         14.5946         16.6318 
       0.570708         16.1276         14.2602         16.2692 
       0.576825         15.6938         13.9341         15.9182 
       0.582926         15.4124         13.6168         15.6163 
       0.589034         14.9565         13.3082          15.339 
       0.595184         14.7222         13.0082         14.9194 
       0.601379         14.4012          12.717         14.7152 
       0.607522         14.1653         12.4388         14.3903 
       0.613639         13.9643         12.1713         14.0996 
       0.619772         13.5851         11.9117           13.87 
       0.625918         13.4458         11.6596         13.5832 
       0.632068         13.2173         11.4147         13.3048 
       0.638161          12.883         11.1789         13.0584 
         0.6443         12.6159         10.9475         12.7987 
       0.650464         12.3474         10.7211          12.619 
       0.656582         12.2348          10.502         12.3768 
       0.662703         11.9951         10.2885         12.1367 
       0.668861         11.7628         10.0798         11.9593 
       0.675024         11.5154         9.87711         11.7044 
       0.681124         11.3093          9.6826         11.4976 
       0.687237         11.1214         9.49358          11.263 
       0.693381          10.959         9.30914         11.0623 
       0.699536         10.6591          9.1295          10.887 
       0.705665         10.5319         8.95539         10.7624 
       0.711789         10.3423         8.78577         10.5518 
       0.717957         10.1601         8.61913         10.3531 
        0.72409         9.97955         8.45749         10.2031 
       0.730186         9.84259         8.30085         10.0121 
       0.736317         9.71952         8.14728         9.84306 
       0.742472           9.555         7.99707         9.74049 
       0.748622         9.38973         7.85093         9.56642 
        0.75476         9.17757         7.70892         9.39062 
       0.760888         9.06241         7.57081         9.25744 
       0.767043         8.94324         7.43566         9.13047 
       0.773185         8.75034         7.30417          8.9946 
       0.779291         8.66933         7.17666         8.86062 
       0.785407         8.52726         7.05204         8.71006 
       0.791564         8.38118         6.92957         8.58487 
       0.797719         8.23232         6.81003         8.43108 
       0.803834         8.16153         6.69404         8.30864 
       0.809972         8.06004         6.58031         8.22792 
       0.816124         7.87707         6.46897         8.07528 
       0.822261         7.75388         6.36051         7.95502 
       0.828378         7.66146         6.25487         7.84513 
       0.834502         7.58026         6.15156         7.73218 
       0.840667         7.43272         6.04995         7.61909 
       0.846816         7.30131         5.95095          7.5282 
       0.852925         7.23138         5.85483         7.43261 
       0.859047         7.12669         5.76065         7.33147 
       0.865192         7.05062         5.66827          7.2222 
       0.871341         6.96213         5.57787         7.13449 
       0.877463         6.84777         5.48988         7.02132 
       0.883569         6.72783         5.40402         6.93796 
       0.889708         6.61405         5.31957         6.84591 
       0.895864         6.54968         5.23672         6.74411 
       0.902008         6.46743         5.15581         6.66718 
       0.908149         6.38934         5.07667         6.57403 
       0.914301         6.28466         4.99907         6.50219 
       0.920448         6.18814         4.92316         6.39354 
       0.926574         6.10568         4.84911         6.32901 
       0.932687         6.04254         4.77675         6.20918 
       0.938823          5.9577         4.70561         6.16636 
       0.944975         5.87341         4.63576         6.07564 
       0.951105          5.8098         4.56759         5.99052 
       0.957225         5.77381         4.50092         5.94279 
       0.963368         5.68199         4.43536         5.85629 
       0.969511         5.60716         4.37111         5.79186 
       0.975621         5.52905         4.30849          5.6986 
       0.981748         5.46736         4.24695         5.63379 
       0.987916         5.40251         4.18622         5.58155 
        0.99406         5.31158         4.12692         5.51709 
        1.00019         5.23582          4.0689          5.4624 
        1.00632         5.20013         4.01205          5.3871 
        1.01246         5.13803         3.95621         5.33293 
        1.01859         5.06518         3.90153         5.25792 
        1.02471         5.00988         3.84795         5.18229 
        1.03085         4.94968         3.79521         5.12819 
        1.03698         4.87806         3.74357         5.07909 
        1.04314         4.83347         3.69267          5.0173 
        1.04929         4.76817         3.64285         4.96393 
        1.05541          4.7095         3.59415         4.91516 
        1.06154         4.66367         3.54622         4.85948 
        1.06769         4.63094          3.4991         4.81231 
        1.07382         4.55393           3.453         4.75541 
        1.07993         4.49582         3.40783         4.69858 
        1.08607         4.46649         3.36329         4.64797 
        1.09222          4.4097         3.31951         4.59202 
        1.09836         4.36438         3.27656         4.53952 
        1.10449         4.31381         3.23443         4.49727 
        1.11063         4.26236         3.19299         4.44453 
        1.11677         4.22254          3.1523         4.40361 
         1.1229         4.17511         3.11239         4.36326 
        1.12903         4.12474         3.07313         4.32098 
        1.13518         4.08277         3.03453         4.27521 
        1.14131         4.02392         2.99661         4.22016 
        1.14745         3.97043         2.95936          4.1699 
        1.15359         3.94847         2.92275         4.14151 
        1.15973         3.89567         2.88673         4.09595 
        1.16584         3.85767         2.85149         4.06125 
        1.17197         3.81813         2.81679         4.01538 
        1.17811          3.7852         2.78257         3.97315 
        1.18424         3.75043         2.74901          3.9312 
        1.19038         3.71522         2.71591         3.89373 
        1.19652         3.67431         2.68337         3.86454 
        1.20267         3.63276         2.65137         3.81197 
        1.20881         3.59816          2.6199         3.78267 
        1.21495          3.5668         2.58899         3.75229 
        1.22108         3.52597         2.55859         3.71471 
         1.2272         3.50065         2.52875         3.66874 
        1.23334         3.44984         2.49932         3.64192 
        1.23949         3.41538         2.47028         3.61702 
        1.24562         3.39431          2.4418         3.58017 
        1.25174         3.34931          2.4138         3.53684 
        1.25789         3.32374         2.38616         3.50353 
        1.26402         3.28813         2.35901          3.4662 
        1.27014         3.25518         2.33234         3.44413 
        1.27628         3.23087         2.30601         3.41637 
        1.28244          3.1864         2.28004         3.37951 
        1.28858         3.17009         2.25451         3.34727 
        1.29471          3.1313         2.22942         3.31654 
        1.30084         3.09858         2.20474           3.295 
        1.30697          3.0887          2.1804          3.2613 
        1.31312         3.02839         2.15639         3.23178 
        1.31925         3.01415         2.13282         3.21033 
        1.32537         2.98387         2.10963         3.18124 
        1.33151         2.96896          2.0867         3.15228 
        1.33765         2.92629         2.06413         3.12278 
        1.34378         2.90242         2.04193         3.10076 
        1.34992          2.8874         2.02005         3.07182 
        1.35606         2.84383         1.99844         3.03684 
         1.3622         2.83017         1.97719         3.01408 
        1.36833         2.80188         1.95629         2.99981 
        1.37445         2.77554         1.93571         2.97161 
        1.38059         2.76066         1.91537         2.94436 
        1.38675         2.73853         1.89526         2.91391 
        1.39288         2.70662         1.87553         2.89792 
        1.39901         2.67727         1.85609         2.87405 
        1.40515         2.65744         1.83688         2.84693 
         1.4113         2.63584         1.81795         2.82628 
        1.41742         2.61499         1.79936         2.80683 
        1.42355         2.59322         1.78099         2.77246 
         1.4297         2.56476         1.76283         2.76222 
        1.43585         2.55236         1.74493         2.74371 
        1.44198         2.53303         1.72735         2.71044 
        1.44809         2.50151         1.71004         2.69655 
        1.45423         2.48097         1.69291         2.66859 
        1.46036         2.45846         1.67604         2.64861 
        1.46649         2.43775          1.6594         2.63303 
        1.47263         2.41547         1.64297         2.61185 
        1.47877         2.39227         1.62677         2.58729 
        1.48491         2.37598         1.61076         2.57084 
        1.49104         2.36046           1.595         2.54723 
        1.49718         2.33981         1.57945         2.53019 
        1.50333         2.32118         1.56407         2.51229 
        1.50947         2.30174         1.54894         2.49139 
         1.5156         2.28323         1.53402         2.47422 
        1.52172         2.26576         1.51931         2.45907 
        1.52787         2.24766         1.50475         2.43314 
          1.534         2.22837         1.49041         2.41596 
        1.54013         2.21117         1.47627         2.39923 
        1.54627         2.18815         1.46229         2.37995 
        1.55241         2.17127         1.44848         2.36292 
        1.55855            2.16         1.43488         2.34342 
        1.56467          2.1423         1.42148         2.33037 
         1.5708          2.1198         1.40822         2.31174 
        1.57695         2.10629         1.39511         2.29393 
        1.58308         2.08776          1.3822         2.28255 
        1.58922          2.0761         1.36944         2.26515 
        1.59535         2.05918         1.35685         2.24896 
         1.6015         2.04359          1.3444          2.2316 
        1.60764         2.02969         1.33212         2.21699 
        1.61376          2.0147         1.32002         2.20516 
        1.61989         1.99625         1.30806         2.18742 
        1.62604         1.98008         1.29622         2.17184 
        1.63218         1.97234         1.28454         2.15833 
        1.63831         1.95107         1.27302         2.14297 
        1.64444         1.93577         1.26165         2.12616 
        1.65059         1.92355         1.25038         2.11194 
        1.65673         1.91043         1.23927         2.09829 
        1.66285         1.89187         1.22832         2.08322 
        1.66898          1.8819         1.21751         2.06742 
        1.67512          1.8629          1.2068         2.05498 
        1.68127         1.85173         1.19621         2.04484 
         1.6874         1.84374         1.18577         2.03268 
        1.69353         1.81992         1.17546         2.01555 
        1.69967         1.80962         1.16525         1.99973 
        1.70581         1.80289         1.15517         1.98959 
        1.71193         1.78629         1.14524         1.97999 
        1.71806         1.77633         1.13541         1.96271 
        1.72421         1.76302         1.12568         1.94877 
        1.73035         1.74912         1.11607         1.93749 
        1.73649         1.73636         1.10657         1.92514 
        1.74262         1.72386          1.0972         1.91198 
        1.74876         1.71471         1.08792         1.90209 
        1.75489          1.6987         1.07877         1.89027 
        1.76101         1.68594         1.06974         1.87418 
        1.76715         1.67643         1.06079         1.86186 
        1.77329         1.66617         1.05193         1.85146 
        1.77943         1.64986         1.04317         1.84013 
        1.78557           1.641         1.03453         1.82811 
        1.79171          1.6334         1.02598         1.81694 
        1.79785         1.61698         1.01752         1.80609 
        1.80399         1.60805         1.00916         1.79442 
        1.81012         1.59942         1.00091         1.78283 
        1.81625         1.58587        0.992756         1.77164 
        1.82239         1.57438        0.984678         1.76208 
        1.82853         1.56021        0.976695         1.75498 
        1.83466         1.55517        0.968807         1.74551 
        1.84078         1.54398        0.961015         1.73286 
        1.84692         1.53487        0.953297         1.72039 
        1.85306         1.52122        0.945654         1.70857 
         1.8592         1.51204        0.938106         1.69887 
        1.86533         1.50131        0.930646         1.69096 
        1.87147         1.49428        0.923258         1.68087 
