# k  (h/Mpc)    Pcb(k)  (Mpc/h)^3    Pcb_linear(k) (Mpc/h)^3    Pcb_NL(k) (Mpc/h)^3   ShotnoiseSubtracted = false
     0.00783031         3901.79         3932.63         3896.66 
       0.013688         4317.26         4382.18         4354.15 
       0.019231          4019.7         4046.45         4023.86 
      0.0249154         3422.37         3406.96         3395.31 
      0.0312784         2677.23         2673.15         2673.85 
      0.0375637         2101.17         2104.71         2107.45 
      0.0433917         1759.82         1751.62         1754.26 
      0.0492413         1536.82         1535.54         1538.13 
      0.0555754         1406.47         1398.67         1399.18 
      0.0619321         1286.48          1299.8         1299.22 
       0.067871          1198.7         1200.39         1199.42 
      0.0738098         1079.63         1077.85         1075.67 
      0.0800417         937.685         931.392         931.578 
      0.0862327         793.215          788.68         792.549 
      0.0921407         679.313         673.833          678.93 
      0.0982031         597.844         587.371         594.766 
       0.104506         534.063         530.533         538.932 
       0.110769         502.929         498.732         504.553 
       0.116806         487.085         479.671         483.927 
       0.122832         463.946         461.048         464.887 
       0.129052         438.849         434.652         437.889 
       0.135211         407.113         399.533         403.519 
       0.141259         365.401         359.781         365.318 
       0.147318         324.943         320.499          328.41 
       0.153489         292.749         286.314         293.328 
       0.159709         269.564         260.622         268.469 
       0.165845         248.532         243.797         252.909 
       0.171974         242.268         233.235         240.964 
       0.178125         233.419         225.669         233.703 
       0.184229         222.785         218.068         225.334 
        0.19034         214.956         208.329         214.968 
       0.196428         203.013         196.018         201.947 
       0.202534         185.931         181.957         188.613 
       0.208729         175.414         167.606         174.654 
       0.214876         164.081         154.868         163.526 
       0.220989         151.314         144.624         153.632 
       0.227147         145.827         136.886         145.609 
        0.23329         139.957         131.226           140.2 
       0.239377         136.041         126.765         135.324 
       0.245482         130.325          122.52         129.967 
       0.251667         124.433         117.785         125.642 
       0.257832         121.121         112.385         119.886 
       0.263955         113.494         106.507         113.885 
       0.270079         107.448         100.538         108.093 
        0.27624         101.628         94.9072         102.341 
       0.282372         97.1876         90.0029         97.9081 
        0.28843         94.8767         85.9617         93.9008 
       0.294538         90.5538          82.596         90.4267 
       0.300721         86.6845         79.6923         87.5903 
        0.30691         84.8515          77.004         84.8457 
       0.313033          81.264         74.3441         81.7506 
       0.319153         79.4195         71.5616         78.9198 
       0.325316         75.7044         68.6479         76.1594 
        0.33145         72.6448         65.7204         72.9594 
       0.337538         69.8276         62.9206         70.0408 
       0.343633         67.4076         60.3241         67.6037 
       0.349808         64.8425         57.9672         65.4569 
       0.355968         62.7192         55.8819         63.6465 
       0.362074         61.3283         54.0265         61.4832 
       0.368217         59.4601         52.2979         59.3073 
       0.374374         57.8478         50.6262         57.6681 
       0.380519         55.3961         48.9758         55.7951 
       0.386598         53.6706         47.3412         54.1948 
       0.392688         51.7613         45.7156         52.5714 
        0.39888         50.6618         44.1085         50.8783 
       0.405048         49.2047         42.5826         49.2535 
       0.411186         47.7264         41.1613         48.0332 
       0.417313         46.2411         39.8483         46.4842 
       0.423458         44.8662         38.6239         45.2997 
       0.429607         43.9244         37.4729         44.0203 
       0.435692         43.0938         36.3877         42.8998 
       0.441815         41.4131         35.3286         41.9561 
       0.447964         39.9157         34.2875         40.6963 
       0.454126         39.1908         33.2684          39.509 
       0.460267         38.6226         32.2809         38.7142 
       0.466387         37.4396         31.3307         37.5534 
        0.47254         36.7875         30.4173         36.6913 
       0.478662         35.4521         29.5552         35.7685 
       0.484765         34.6485         28.7399         34.7571 
       0.490885         33.5937         27.9608         34.1455 
       0.497035          33.019         27.2111         33.4468 
       0.503198         32.2808         26.4883         32.4983 
       0.509342         31.2893         25.7909         31.8286 
       0.515458         30.7281         25.1159         31.2679 
       0.521598           29.96         24.4574         30.3029 
       0.527764         29.4626         23.8176         29.4984 
       0.533884          28.805         23.2057           28.89 
           0.54         28.1172         22.6178          28.292 
       0.546137         27.2266         22.0503         27.7722 
       0.552299         26.6817         21.5023         27.0027 
       0.558452         26.0509         20.9758         26.4289 
       0.564573         25.7272         20.4707          26.032 
       0.570708         25.0248         19.9813         25.4955 
       0.576825         24.6614         19.5086          24.948 
       0.582926         24.1773          19.051         24.4509 
       0.589034         23.6186         18.6061         24.0768 
       0.595184         23.2626         18.1721          23.449 
       0.601379          22.613         17.7492         23.1269 
       0.607522         22.1492         17.3439         22.5431 
       0.613639         21.8017         16.9539         22.1438 
       0.619772         21.3295         16.5755         21.7732 
       0.625918         20.9164         16.2084         21.3828 
       0.632068         20.6661         15.8522         20.9275 
       0.638161         20.1804         15.5096         20.5541 
         0.6443         19.8619         15.1745         20.1331 
       0.650464         19.3264          14.848         19.8298 
       0.656582         19.1606         14.5334         19.4894 
       0.662703          18.834         14.2279         19.0893 
       0.668861         18.3453         13.9295         18.8494 
       0.675024         18.0626         13.6397         18.4143 
       0.681124          17.933         13.3612         18.1078 
       0.687237         17.5299         13.0899         17.7808 
       0.693381         17.1445          12.825         17.4513 
       0.699536         16.9961          12.567          17.235 
       0.705665         16.6219         12.3173         16.9967 
       0.711789         16.3312         12.0745         16.6082 
       0.717957         15.9567         11.8367         16.3807 
        0.72409         15.7862         11.6066         16.1498 
       0.730186         15.6661          11.384         15.8607 
       0.736317         15.3036         11.1661         15.5913 
       0.742472         15.1128         10.9532          15.392 
       0.748622         14.8187          10.746         15.1224 
        0.75476         14.4406         10.5447         14.9001 
       0.760888         14.3784          10.349         14.6968 
       0.767043         14.0768         10.1574         14.4867 
       0.773185         13.8758         9.97117         14.2532 
       0.779291         13.7024         9.79068          14.069 
       0.785407         13.4852         9.61442         13.8305 
       0.791564         13.3546         9.44141         13.6391 
       0.797719         13.0087         9.27276         13.4552 
       0.803834         12.9561         9.10931         13.2304 
       0.809972         12.6772         8.94923         13.0699 
       0.816124         12.5205         8.79267         12.8668 
       0.822261         12.3484         8.64029         12.6797 
       0.828378         12.2004           8.492         12.4894 
       0.834502         12.0397         8.34708         12.3513 
       0.840667         11.8898         8.20461         12.1647 
       0.846816           11.62         8.06589         12.0046 
       0.852925         11.5549         7.93126         11.8947 
       0.859047         11.3811         7.79944          11.713 
       0.865192         11.2061         7.67019         11.5447 
       0.871341         11.0565          7.5438         11.4167 
       0.877463          10.893         7.42084         11.2599 
       0.883569         10.7963         7.30095         11.1047 
       0.889708         10.6095          7.1831         10.9684 
       0.895864         10.4558         7.06757         10.8103 
       0.902008          10.339         6.95483         10.6935 
       0.908149          10.163         6.84462         10.5625 
       0.914301         10.0808         6.73664         10.4783 
       0.920448         9.93155         6.63109         10.2946 
       0.926574         9.83824         6.52818         10.1682 
       0.932687         9.67356         6.42768         10.0117 
       0.938823         9.52894         6.32895         9.90557 
       0.944975         9.46293         6.23208         9.80672 
       0.951105         9.33456         6.13758         9.65119 
       0.957225          9.2519         6.04522         9.57282 
       0.963368         9.08548         5.95445         9.44588 
       0.969511         8.98173         5.86556         9.33717 
       0.975621         8.89045         5.77896          9.2312 
       0.981748         8.75827          5.6939         9.12737 
       0.987916         8.69075         5.61002         9.00927 
        0.99406         8.55794         5.52815         8.91854 
        1.00019         8.48621         5.44809         8.82913 
        1.00632         8.41127         5.36968         8.72888 
        1.01246         8.28368         5.29271         8.65776 
        1.01859         8.18883         5.21738         8.54793 
        1.02471         8.08317         5.14362         8.42255 
        1.03085         8.02998         5.07103         8.33995 
        1.03698         7.94534               5         8.26045 
        1.04314         7.82409         4.93004         8.16255 
        1.04929         7.71295         4.86158          8.0919 
        1.05541         7.65298          4.7947         8.02297 
        1.06154         7.57503         4.72892         7.91231 
        1.06769         7.49686         4.66428         7.81887 
        1.07382         7.37852         4.60106         7.75196 
        1.07993         7.31514         4.53916         7.66885 
        1.08607         7.25305         4.47814         7.59733 
        1.09222         7.15731         4.41819         7.52644 
        1.09836         7.09755          4.3594          7.4275 
        1.10449         7.01214         4.30175         7.35388 
        1.11063         6.96717         4.24508         7.28762 
        1.11677         6.89613         4.18946         7.20593 
         1.1229         6.81912         4.13493         7.14972 
        1.12903         6.74155         4.08133         7.08889 
        1.13518         6.66655         4.02863         7.00834 
        1.14131         6.60731          3.9769         6.93546 
        1.14745         6.49849         3.92611         6.87008 
        1.15359         6.42893         3.87619         6.79713 
        1.15973         6.38372         3.82713           6.734 
        1.16584         6.31573         3.77914          6.6803 
        1.17197         6.23961          3.7319         6.63254 
        1.17811         6.18881         3.68533         6.53961 
        1.18424         6.13724         3.63969         6.48623 
        1.19038          6.0963          3.5947         6.43162 
        1.19652         6.01707         3.55048         6.36344 
        1.20267         5.97865         3.50701         6.31242 
        1.20881         5.88235         3.46428         6.25884 
        1.21495         5.84672         3.42233         6.20079 
        1.22108         5.78798         3.38108         6.14865 
         1.2272          5.7302         3.34061         6.08298 
        1.23334           5.699         3.30071         6.03806 
        1.23949          5.6352         3.26137         5.98443 
        1.24562         5.56989         3.22279         5.92799 
        1.25174         5.54219         3.18488         5.87832 
        1.25789         5.46639         3.14748          5.8196 
        1.26402         5.42374         3.11074         5.77023 
        1.27014         5.39478         3.07468         5.72437 
        1.27628         5.32162         3.03908         5.66541 
        1.28244         5.29436         3.00398         5.62938 
        1.28858         5.23482         2.96948         5.57889 
        1.29471         5.17343          2.9356         5.53808 
        1.30084         5.12796         2.90228         5.50337 
        1.30697         5.10292         2.86942         5.43996 
        1.31312         5.04939         2.83703         5.39718 
        1.31925         5.00946         2.80524         5.36651 
        1.32537         4.95942         2.77397         5.32391 
        1.33151         4.91667         2.74306          5.2759 
        1.33765         4.87385         2.71265         5.22393 
        1.34378         4.85329         2.68275         5.18219 
        1.34992         4.79723         2.65329         5.14821 
        1.35606         4.74941          2.6242         5.10145 
         1.3622         4.70599          2.5956         5.05522 
        1.36833         4.68072          2.5675         5.03653 
        1.37445         4.63707         2.53983          4.9874 
        1.38059         4.58553         2.51248         4.93896 
        1.38675         4.55972         2.48547         4.91232 
        1.39288         4.51854         2.45897         4.87553 
        1.39901         4.47094         2.43286         4.83541 
        1.40515         4.43828         2.40708         4.79631 
         1.4113         4.40308         2.38168         4.76091 
        1.41742         4.37733         2.35674         4.72918 
        1.42355         4.32739         2.33211         4.69302 
         1.4297         4.29469         2.30777         4.65183 
        1.43585         4.26758         2.28377         4.62471 
        1.44198         4.23382         2.26022         4.58635 
        1.44809         4.19655         2.23704         4.55325 
        1.45423         4.16019          2.2141         4.52045 
        1.46036         4.13093         2.19152         4.48637 
        1.46649           4.102         2.16925         4.45813 
        1.47263         4.06852         2.14727         4.42991 
        1.47877         4.03292         2.12561          4.3872 
        1.48491         4.01062         2.10421         4.35866 
        1.49104         3.97548         2.08315          4.3323 
        1.49718         3.95115         2.06236         4.30003 
        1.50333         3.91723         2.04183          4.2692 
        1.50947         3.88459         2.02162         4.24167 
         1.5156          3.8605         2.00171         4.21465 
        1.52172          3.8218         1.98207           4.184 
        1.52787         3.80779         1.96265         4.14618 
          1.534         3.76982         1.94352         4.12018 
        1.54013          3.7528         1.92466         4.09123 
        1.54627          3.7168         1.90602         4.06259 
        1.55241          3.6789         1.88762         4.03786 
        1.55855         3.66653         1.86949         4.00504 
        1.56467          3.6475         1.85165         3.98442 
         1.5708         3.60382         1.83399         3.96388 
        1.57695         3.57952         1.81654         3.93041 
        1.58308         3.55072         1.79935         3.90371 
        1.58922         3.53678         1.78237         3.88651 
        1.59535         3.51131         1.76562         3.86375 
         1.6015         3.46703         1.74906          3.8325 
        1.60764         3.44934         1.73271         3.80374 
        1.61376         3.43119         1.71663         3.78372 
        1.61989          3.3988         1.70073         3.76152 
        1.62604         3.38596           1.685         3.73607 
        1.63218         3.36039         1.66948          3.7149 
        1.63831          3.3347         1.65419         3.69364 
        1.64444         3.30797         1.63909         3.66344 
        1.65059         3.28312         1.62414         3.64138 
        1.65673         3.27004         1.60939         3.62088 
        1.66285         3.24247         1.59486         3.59746 
        1.66898         3.22589         1.58051         3.57235 
        1.67512          3.2041         1.56631         3.55054 
        1.68127         3.16812         1.55227         3.53114 
         1.6874         3.15607         1.53844         3.51332 
        1.69353         3.12694         1.52478         3.49372 
        1.69967         3.11215         1.51125         3.46532 
        1.70581         3.08685          1.4979           3.444 
        1.71193         3.07056         1.48475         3.42982 
        1.71806         3.04722         1.47174         3.40787 
        1.72421         3.02647         1.45886         3.38615 
        1.73035         3.01137         1.44614         3.36664 
        1.73649         2.99246         1.43358         3.34703 
        1.74262         2.96307         1.42118         3.32591 
        1.74876         2.95327         1.40891          3.3068 
        1.75489          2.9337         1.39682         3.28596 
        1.76101         2.90501         1.38487         3.26356 
        1.76715         2.90217         1.37305         3.24917 
        1.77329         2.87472         1.36135         3.23157 
        1.77943         2.84754         1.34978            3.21 
        1.78557         2.84717         1.33836         3.19064 
        1.79171         2.82079         1.32707          3.1709 
        1.79785         2.80848         1.31591         3.15232 
        1.80399         2.78652         1.30488          3.1374 
        1.81012         2.76882           1.294         3.12293 
        1.81625         2.74983         1.28324         3.10574 
        1.82239         2.73496         1.27258          3.0883 
        1.82853         2.71171         1.26206         3.07438 
        1.83466         2.68963         1.25166         3.05848 
        1.84078         2.67498         1.24139         3.03938 
        1.84692         2.66156         1.23122         3.02057 
        1.85306         2.64366         1.22115         3.00046 
         1.8592          2.6324         1.21121         2.98334 
        1.86533         2.61525         1.20139         2.97091 
        1.87147         2.60402         1.19166         2.95391 
