# k  (h/Mpc)    P(k)  (Mpc/h)^3    P_linear(k)  (Mpc/h)^3     P_NL(k)  ShotnoiseSubtracted = false
     0.00783031         308.613         311.469         308.552 
       0.013688         344.438          347.34         345.184 
       0.019231         319.923         320.817         319.147 
      0.0249154         270.489         270.154          269.37 
      0.0312784         212.508         211.986         212.202 
      0.0375637         167.207         166.916         167.244 
      0.0433917          139.43         138.918         139.238 
      0.0492413         121.989         121.784         122.057 
      0.0555754         111.217          110.93         110.991 
      0.0619321         102.759          103.09         103.033 
       0.067871         95.1292         95.2057         95.0831 
      0.0738098         85.4656         85.4873         85.3692 
      0.0800417         73.9958         73.8721         73.8411 
      0.0862327         62.6581         62.5535         62.6171 
      0.0921407         53.5287         53.4447          53.553 
      0.0982031         46.7963         46.5871         46.7257 
       0.104506         42.0957         42.0792         42.2047 
       0.110769         39.5666         39.5569         39.6344 
       0.116806         38.1097         38.0451         38.0671 
       0.122832         36.5174         36.5681         36.5645 
       0.129052         34.4792         34.4745          34.457 
       0.135211         31.7451          31.689         31.6854 
       0.141259         28.5526         28.5362         28.5629 
       0.147318         25.4118         25.4206         25.4848 
       0.153489         22.7505         22.7092         22.7769 
       0.159709         20.7372         20.6715         20.7486 
       0.165845         19.3139          19.337         19.4182 
       0.171974         18.5683         18.4992           18.56 
       0.178125         17.9314         17.8991         17.9542 
       0.184229         17.2848         17.2963         17.3384 
        0.19034         16.5675         16.5238         16.5585 
       0.196428         15.5748         15.5474         15.5773 
       0.202534         14.3962         14.4321         14.4722 
       0.208729         13.3277         13.2938         13.3439 
       0.214876         12.3547         12.2836         12.3496 
       0.220989         11.4843          11.471         11.5412 
       0.227147         10.9221         10.8573         10.9229 
        0.23329         10.4695         10.4083         10.4742 
       0.239377         10.1156         10.0545         10.1151 
       0.245482         9.76968         9.71782         9.76641 
       0.251667         9.36268         9.34228         9.39386 
       0.257832         8.97007         8.91399         8.96281 
       0.263955         8.48005         8.44775         8.49608 
       0.270079         8.00487         7.97429         8.02493 
        0.27624         7.54486         7.52767         7.57833 
       0.282372         7.16023         7.13864         7.19543 
        0.28843         6.86965         6.81817          6.8755 
       0.294538         6.59637         6.55122         6.60599 
       0.300721         6.34172         6.32089         6.37575 
        0.30691         6.14986         6.10766         6.16148 
       0.313033         5.93239         5.89674         5.94642 
       0.319153         5.74137           5.676         5.72574 
       0.325316         5.46734         5.44491         5.49629 
        0.33145         5.23565         5.21271         5.26215 
       0.337538         5.02071         4.99064         5.03928 
       0.343633          4.8276         4.78467         4.83282 
       0.349808         4.63092         4.59775         4.64877 
       0.355968         4.45941         4.43235         4.48818 
       0.362074          4.3269         4.28519         4.33645 
       0.368217         4.18476         4.14809         4.19406 
       0.374374         4.06522         4.01548         4.06347 
       0.380519         3.91812         3.88458         3.92965 
       0.386598          3.7811         3.75493         3.80087 
       0.392688         3.64555           3.626         3.67172 
        0.39888         3.52924         3.49853         3.54514 
       0.405048         3.41081          3.3775         3.42017 
       0.411186         3.29455         3.26475         3.31141 
       0.417313         3.19116         3.16063         3.20617 
       0.423458         3.08406          3.0635           3.109 
       0.429607         3.00607         2.97222         3.01544 
       0.435692         2.92184         2.88614         2.93009 
       0.441815         2.83156         2.80215         2.84766 
       0.447964         2.73756         2.71956         2.76242 
       0.454126           2.668         2.63873         2.68109 
       0.460267         2.59566         2.56041         2.60442 
       0.466387         2.51746         2.48504         2.52618 
        0.47254         2.44892         2.41258         2.45401 
       0.478662         2.37592         2.34421          2.3843 
       0.484765         2.31284         2.27955         2.31916 
       0.490885         2.24449         2.21775         2.26064 
       0.497035         2.17922         2.15829         2.20183 
       0.503198         2.13029         2.10096         2.14018 
       0.509342         2.06617         2.04565         2.08532 
       0.515458         2.01872          1.9921         2.03346 
       0.521598         1.96797         1.93988         1.97746 
       0.527764         1.92281         1.88913         1.92654 
       0.533884         1.86197         1.84059          1.8773 
           0.54         1.81964         1.79396            1.83 
       0.546137         1.77009         1.74896         1.78636 
       0.552299         1.72908         1.70549         1.73912 
       0.558452         1.68655         1.66372         1.69827 
       0.564573         1.64682         1.62366         1.66104 
       0.570708         1.60882         1.58485          1.6208 
       0.576825         1.57167         1.54736         1.58201 
       0.582926         1.53135         1.51105         1.54628 
       0.589034         1.50108         1.47577         1.51262 
       0.595184           1.469         1.44135         1.47306 
       0.601379         1.43079          1.4078          1.4435 
       0.607522         1.39673         1.37566         1.41005 
       0.613639         1.36319         1.34472         1.37809 
       0.619772         1.33746         1.31471         1.34946 
       0.625918         1.30781         1.28559         1.31829 
       0.632068         1.27975         1.25734         1.28893 
       0.638161         1.25096         1.23017         1.26216 
         0.6443         1.22349         1.20359         1.23432 
       0.650464         1.19908         1.17769         1.21029 
       0.656582         1.17598         1.15274         1.18437 
       0.662703         1.15038          1.1285         1.15907 
       0.668861         1.12185         1.10484          1.1365 
       0.675024         1.10041         1.08185          1.1128 
       0.681124         1.08568         1.05976         1.08958 
       0.687237         1.05959         1.03825         1.06644 
       0.693381         1.03428         1.01724         1.04457 
       0.699536         1.01836        0.996774         1.02459 
       0.705665        0.998407        0.976962         1.00715 
       0.711789        0.974712        0.957708        0.986723 
       0.717957        0.957072        0.938842         0.96647 
        0.72409        0.938742        0.920591        0.948693 
       0.730186        0.925015        0.902938        0.929942 
       0.736317         0.90279        0.885656         0.91174 
       0.742472        0.888931        0.868766        0.896376 
       0.748622        0.872845        0.852337        0.880461 
        0.75476        0.853804        0.836372        0.862761 
       0.760888        0.840794        0.820844        0.847072 
       0.767043        0.818577        0.805652        0.832216 
       0.773185        0.807085        0.790879        0.817784 
       0.779291        0.796504        0.776563        0.803051 
       0.785407         0.78031        0.762582        0.788285 
       0.791564        0.765414         0.74886        0.774504 
       0.797719        0.751969        0.735483        0.759903 
       0.803834        0.738828        0.722519        0.747204 
       0.809972        0.726142        0.709822        0.735537 
       0.816124        0.713247        0.697404        0.721672 
       0.822261         0.70196        0.685318        0.708915 
       0.828378        0.689456        0.673556        0.697411 
       0.834502        0.677111        0.662061        0.685067 
       0.840667        0.667418        0.650762        0.674201 
       0.846816        0.655257        0.639759        0.664423 
       0.852925        0.643352         0.62908        0.652425 
       0.859047        0.632931        0.618625        0.643051 
       0.865192        0.622948        0.608373        0.631702 
       0.871341        0.614085        0.598348        0.621241 
       0.877463         0.60179        0.588595        0.610798 
       0.883569        0.592943        0.579086        0.602038 
       0.889708          0.5844        0.569739        0.592483 
       0.895864        0.575094        0.560575        0.582621 
       0.902008        0.564526        0.551633        0.573688 
       0.908149         0.55684        0.542892        0.564724 
       0.914301        0.549136        0.534327        0.555754 
       0.920448        0.540932        0.525955        0.547156 
       0.926574        0.533393        0.517793         0.53929 
       0.932687        0.525171        0.509822        0.530053 
       0.938823        0.514877        0.501991         0.52357 
       0.944975         0.50847        0.494307        0.514435 
       0.951105        0.498701        0.486812        0.506911 
       0.957225        0.492088        0.479486         0.49996 
       0.963368        0.485857        0.472287        0.492195 
       0.969511        0.479301        0.465236        0.485241 
       0.975621        0.470562        0.458367        0.477244 
       0.981748        0.462347         0.45162        0.470276 
       0.987916        0.456617        0.444967         0.46474 
        0.99406        0.451024        0.438474         0.45849 
        1.00019        0.444209        0.432123         0.45169 
        1.00632        0.439165        0.425905        0.444613 
        1.01246        0.432588          0.4198        0.438312 
        1.01859        0.426534        0.413825         0.43287 
        1.02471         0.41932        0.407974        0.426727 
        1.03085        0.412875        0.402217        0.420051 
        1.03698        0.408439        0.396583         0.41414 
        1.04314        0.402312        0.391034        0.408638 
        1.04929        0.398153        0.385604         0.40327 
        1.05541        0.391013        0.380299        0.398228 
        1.06154        0.386479        0.375082        0.392786 
        1.06769         0.38161        0.369955        0.387589 
        1.07382        0.376254         0.36494        0.382266 
        1.07993        0.371402        0.360031        0.377141 
        1.08607        0.366443        0.355191         0.37265 
        1.09222        0.361275        0.350435        0.367083 
        1.09836        0.356878        0.345773        0.362646 
        1.10449        0.351416          0.3412        0.358023 
        1.11063        0.346849        0.336706        0.352876 
        1.11677        0.343105        0.332294        0.348922 
         1.1229         0.33754        0.327969        0.344338 
        1.12903        0.333983        0.323717        0.339886 
        1.13518        0.329565        0.319537        0.335484 
        1.14131         0.32568        0.315434        0.331431 
        1.14745        0.322675        0.311405        0.326636 
        1.15359        0.317538        0.307446        0.323229 
        1.15973        0.314083        0.303555        0.319339 
        1.16584        0.309807        0.299748        0.314844 
        1.17197        0.305393        0.296002        0.311457 
        1.17811        0.301539        0.292308        0.307784 
        1.18424        0.298081        0.288688        0.303575 
        1.19038        0.293838        0.285119        0.299931 
        1.19652        0.291413        0.281612        0.296654 
        1.20267        0.288031        0.278164        0.292494 
        1.20881        0.283123        0.274775        0.289344 
        1.21495        0.280407        0.271447         0.28652 
        1.22108        0.277324        0.268176        0.282453 
         1.2272         0.27336        0.264966        0.278993 
        1.23334        0.270421        0.261801        0.275913 
        1.23949         0.26772        0.258681        0.272894 
        1.24562          0.2644         0.25562        0.269727 
        1.25174        0.261564        0.252614        0.266448 
        1.25789        0.257509        0.249647        0.263468 
        1.26402        0.255381        0.246733        0.260481 
        1.27014        0.251485        0.243873        0.257248 
        1.27628         0.24933        0.241049        0.254178 
        1.28244        0.246337        0.238265        0.251499 
        1.28858        0.243097        0.235529        0.248463 
        1.29471        0.240635        0.232842        0.245844 
        1.30084        0.237817        0.230199        0.243537 
        1.30697        0.235934        0.227593        0.240653 
        1.31312        0.233081        0.225024        0.237822 
        1.31925        0.230229        0.222502        0.235433 
        1.32537         0.22778        0.220022        0.232935 
        1.33151        0.225217         0.21757        0.230377 
        1.33765        0.222629        0.215158        0.227842 
        1.34378        0.219961        0.212787        0.225315 
        1.34992        0.218284         0.21045         0.22293 
        1.35606        0.215409        0.208143        0.220339 
         1.3622        0.213248        0.205874         0.21808 
        1.36833        0.211342        0.203645        0.215951 
        1.37445        0.209049        0.201451        0.213742 
        1.38059        0.206767        0.199282         0.21135 
        1.38675        0.204182        0.197139        0.208952 
        1.39288        0.201698        0.195037        0.206736 
        1.39901        0.200134        0.192966        0.204682 
        1.40515        0.197873        0.190921        0.202525 
         1.4113        0.196269        0.188907        0.200671 
        1.41742        0.194169        0.186929        0.198909 
        1.42355         0.19122        0.184975        0.196132 
         1.4297        0.190112        0.183044        0.194727 
        1.43585        0.187697        0.181141        0.192452 
        1.44198        0.186162        0.179273        0.190087 
        1.44809        0.184059        0.177434        0.188853 
        1.45423        0.182118        0.175615        0.186403 
        1.46036        0.180321        0.173824        0.184729 
        1.46649         0.17851        0.172057        0.183198 
        1.47263        0.176096        0.170314        0.181203 
        1.47877        0.175545        0.168596        0.179526 
        1.48491        0.172799        0.166899        0.177904 
        1.49104        0.172056        0.165228        0.175616 
        1.49718        0.169757         0.16358        0.174477 
        1.50333         0.16828        0.161951        0.172339 
        1.50947        0.166672        0.160348        0.170564 
         1.5156        0.164986        0.158769        0.169275 
        1.52172        0.163408        0.157211        0.167428 
        1.52787        0.161382        0.155671        0.165783 
          1.534        0.160277        0.154153        0.164428 
        1.54013        0.158595        0.152658          0.1628 
        1.54627        0.157321        0.151179         0.16113 
        1.55241        0.155707         0.14972        0.159618 
        1.55855        0.154195        0.148282        0.158084 
        1.56467        0.152872        0.146867        0.156712 
         1.5708        0.151257        0.145466        0.155104 
        1.57695        0.149833        0.144082        0.153511 
        1.58308        0.147987        0.142718        0.152301 
        1.58922        0.147095        0.141372        0.151014 
        1.59535        0.145522        0.140043        0.149508 
         1.6015        0.144321        0.138729        0.147952 
        1.60764        0.142795        0.137433        0.146784 
        1.61376        0.141606        0.136157        0.145781 
        1.61989        0.140187        0.134896        0.144321 
        1.62604        0.138859        0.133649        0.142912 
        1.63218        0.137815        0.132418        0.141678 
        1.63831        0.136405        0.131205        0.140393 
        1.64444        0.135366        0.130007         0.13898 
        1.65059        0.133708        0.128821        0.137797 
        1.65673        0.132743        0.127651        0.136671 
        1.66285        0.131685        0.126499        0.135458 
        1.66898        0.130294        0.125361        0.134174 
        1.67512        0.129114        0.124235        0.132988 
        1.68127        0.127913        0.123121        0.131846 
         1.6874        0.126998        0.122024        0.130807 
        1.69353        0.125678         0.12094        0.129818 
        1.69967         0.12451        0.119868        0.128426 
        1.70581        0.123773        0.118808        0.127186 
        1.71193        0.122756        0.117766        0.126203 
        1.71806        0.121456        0.116734         0.12509 
        1.72421        0.120288        0.115712        0.124174 
        1.73035        0.119324        0.114703        0.123098 
        1.73649        0.118401        0.113707        0.121807 
        1.74262        0.117205        0.112723        0.120839 
        1.74876        0.116448         0.11175        0.120009 
        1.75489        0.115362        0.110791        0.119008 
        1.76101        0.114393        0.109844        0.117877 
        1.76715        0.113407        0.108906        0.117022 
        1.77329        0.112313        0.107978        0.116117 
        1.77943        0.111353         0.10706        0.115062 
        1.78557        0.110713        0.106154        0.114016 
        1.79171        0.109705        0.105259         0.11299 
        1.79785        0.108596        0.104374        0.112101 
        1.80399        0.107512        0.103499        0.111333 
        1.81012        0.106945        0.102635        0.110213 
        1.81625        0.106126        0.101782        0.109242 
        1.82239        0.105428        0.100937        0.108612 
        1.82853        0.104254        0.100102        0.107795 
        1.83466        0.103378       0.0992776        0.106812 
        1.84078        0.102606       0.0984631        0.105884 
        1.84692        0.101821       0.0976564        0.105157 
        1.85306        0.101001       0.0968578        0.104196 
         1.8592        0.100231       0.0960693        0.103184 
        1.86533        0.099471       0.0952901        0.102505 
        1.87147       0.0984963       0.0945185        0.101765 
        1.87761       0.0976657       0.0937552        0.101019 
