# k  (h/Mpc)    P(k)  (Mpc/h)^3    P_linear(k)  (Mpc/h)^3     P_NL(k)  ShotnoiseSubtracted = false
     0.00783031         21202.8         21328.1         21122.5 
       0.013688         23083.8         23749.2         23560.4 
       0.019231         21579.3         21923.2         21753.2 
      0.0249154         18599.6         18455.5         18330.8 
      0.0312784         14420.8         14478.9         14409.5 
      0.0375637         11288.1         11399.3         11371.2 
      0.0433917         9520.75         9486.52         9454.27 
      0.0492413         8301.83         8316.02          8291.3 
      0.0555754         7618.13         7574.58         7554.78 
      0.0619321          6862.1         7039.03         7018.49 
       0.067871         6435.68         6500.56         6491.62 
      0.0738098         5852.11          5836.9         5787.63 
      0.0800417         5108.53         5043.75         5041.45 
      0.0862327         4341.62          4270.9         4351.43 
      0.0921407         3779.01         3648.95         3752.93 
      0.0982031         3373.37         3180.72         3343.11 
       0.104506         2999.92         2872.93         3067.05 
       0.110769         2832.05         2700.71         2841.83 
       0.116806         2744.18         2597.48         2708.54 
       0.122832         2605.49         2496.63         2598.05 
       0.129052         2439.47         2353.68         2444.32 
       0.135211         2321.51         2163.51          2265.8 
       0.141259         2085.63         1948.24         2089.43 
       0.147318         1885.09         1735.53         1922.76 
       0.153489         1726.58         1550.41         1723.12 
       0.159709         1636.08         1411.29         1606.09 
       0.165845         1502.44         1320.17          1539.6 
       0.171974         1469.79         1262.98         1461.12 
       0.178125         1424.44         1222.01         1425.35 
       0.184229         1320.98         1180.85         1362.37 
        0.19034         1293.12         1128.11         1298.14 
       0.196428         1242.37         1061.45         1227.55 
       0.202534         1146.55         985.305         1165.54 
       0.208729         1114.36          907.59         1085.79 
       0.214876         1048.26         838.617         1045.72 
       0.220989         986.484         783.141         1001.05 
       0.227147         956.308         741.242          961.98 
        0.23329         917.489          710.59         934.508 
       0.239377         910.649         686.436         898.465 
       0.245482         863.978         663.448         860.522 
       0.251667          831.56          637.81         838.668 
       0.257832         813.751         608.569         802.664 
       0.263955         770.099         576.738         770.666 
       0.270079         741.156         544.414         741.812 
        0.27624         708.299         513.922         711.269 
       0.282372         694.357         487.362           691.3 
        0.28843         681.458         465.484         672.464 
       0.294538         647.304         447.259         651.244 
       0.300721          632.28         431.534         632.659 
        0.30691          616.31         416.976         621.806 
       0.313033         588.466         402.576         599.627 
       0.319153         580.416         387.506         581.684 
       0.325316         569.748         371.729         566.659 
        0.33145         554.281         355.876         544.212 
       0.337538         533.238         340.715         530.163 
       0.343633         519.365         326.654         522.118 
       0.349808         506.349         313.892         510.925 
       0.355968         496.239           302.6         499.465 
       0.362074         476.713         292.553          488.37 
       0.368217         473.726         283.194         474.121 
       0.374374         465.937          274.14         463.071 
       0.380519         446.765         265.203          451.36 
       0.386598         441.868         256.352         446.256 
       0.392688         429.369          247.55         432.702 
        0.39888         419.555         238.847         423.556 
       0.405048          408.58         230.584         415.106 
       0.411186           408.3         222.887         404.804 
       0.417313         401.311         215.779         396.882 
       0.423458         391.424         209.148         389.964 
       0.429607         378.657         202.916         382.944 
       0.435692         372.999         197.039         372.463 
       0.441815         366.235         191.305         369.018 
       0.447964         358.292         185.666         363.037 
       0.454126         354.091         180.148         352.338 
       0.460267         348.025         174.801         349.854 
       0.466387         339.487         169.656          343.51 
        0.47254         336.161         164.708         337.055 
       0.478662         328.509         160.041         330.112 
       0.484765         323.139         155.626         324.436 
       0.490885         320.581         151.407         318.736 
       0.497035         312.296         147.348         314.565 
       0.503198         311.336         143.434         310.116 
       0.509342          304.88         139.658         305.072 
       0.515458         298.665         136.002         301.289 
       0.521598         295.056         132.437          296.34 
       0.527764         290.008         128.972         293.364 
       0.533884         286.583         125.658         289.054 
           0.54         283.078         122.475         283.739 
       0.546137         277.035         119.402         280.322 
       0.552299         275.334         116.435         275.871 
       0.558452         270.397         113.583         272.391 
       0.564573          269.14         110.848         269.997 
       0.570708          263.55         108.199         266.629 
       0.576825         259.105         105.639         261.334 
       0.582926         258.021         103.161         258.981 
       0.589034         252.524         100.752         255.737 
       0.595184         250.861         98.4016         251.135 
       0.601379         246.569         96.1114         248.323 
       0.607522         241.123         93.9168         244.492 
       0.613639         240.274         91.8049         243.796 
       0.619772         239.062         89.7563         241.726 
       0.625918         233.969         87.7681          237.17 
       0.632068         232.265         85.8392         234.554 
       0.638161         230.039         83.9842         233.167 
         0.6443         226.238         82.1697         229.961 
       0.650464          224.03         80.4016         225.514 
       0.656582         221.078          78.698         224.009 
       0.662703         220.462         77.0436         221.871 
       0.668861         215.519         75.4282          220.26 
       0.675024         214.706         73.8587         217.978 
       0.681124         211.129         72.3504          214.49 
       0.687237          210.12         70.8817          212.31 
       0.693381          206.23         69.4473         209.962 
       0.699536         205.865         68.0503          208.34 
       0.705665         202.967         66.6977         205.457 
       0.711789         200.157         65.3832         204.419 
       0.717957         199.129         64.0952         203.027 
        0.72409         196.196         62.8492         200.566 
       0.730186         196.711         61.6441         198.261 
       0.736317         193.383         60.4642         196.557 
       0.742472         191.673         59.3111         194.579 
       0.748622         189.753         58.1895         192.482 
        0.75476          188.72         57.0995         192.116 
       0.760888         186.574         56.0394         189.218 
       0.767043          183.68         55.0022          187.69 
       0.773185         181.683         53.9937         186.313 
       0.779291         180.774         53.0163         184.089 
       0.785407          179.23         52.0619         182.496 
       0.791564         177.899          51.125         180.904 
       0.797719         175.025         50.2118         179.592 
       0.803834         174.983         49.3267         178.407 
       0.809972         172.493         48.4599          176.78 
       0.816124         170.248         47.6121         175.216 
       0.822261         168.936          46.787         174.169 
       0.828378         168.227          45.984         172.304 
       0.834502         166.136         45.1992          170.84 
       0.840667         165.869         44.4278         169.281 
       0.846816         163.084         43.6766         168.269 
       0.852925         162.828         42.9476         167.013 
       0.859047         160.697         42.2338         165.719 
       0.865192         160.006         41.5339         163.996 
       0.871341         158.615         40.8495          162.83 
       0.877463         157.139         40.1837         161.981 
       0.883569         156.579         39.5345         161.474 
       0.889708         155.309         38.8963         159.405 
       0.895864         152.994         38.2707         158.493 
       0.902008         151.927         37.6602         156.945 
       0.908149         150.406         37.0635         155.803 
       0.914301         149.439         36.4787         154.515 
       0.920448          148.65         35.9072         153.659 
       0.926574         147.072         35.3499         152.381 
       0.932687          146.78         34.8057         151.408 
       0.938823          145.39         34.2711         150.597 
       0.944975         144.978         33.7465          149.38 
       0.951105         143.074         33.2349          148.35 
       0.957225          142.04         32.7347         147.167 
       0.963368         141.712         32.2432         146.155 
       0.969511         139.902         31.7618         145.072 
       0.975621         137.938         31.2929         144.486 
       0.981748         137.876         30.8323         143.646 
       0.987916         137.001         30.3781         142.453 
        0.99406          135.73         29.9348         141.423 
        1.00019         135.195         29.5012         140.459 
        1.00632         134.059         29.0767         139.416 
        1.01246         132.984         28.6599         138.165 
        1.01859         131.666          28.252         137.687 
        1.02471         130.721         27.8526         136.937 
        1.03085          130.12         27.4595          136.13 
        1.03698         129.396         27.0749          135.59 
        1.04314         128.602          26.696         134.413 
        1.04929         127.692         26.3253           133.5 
        1.05541         127.374         25.9632         132.872 
        1.06154         125.948          25.607         132.172 
        1.06769         125.179          25.257          131.39 
        1.07382         123.819         24.9146         130.627 
        1.07993         123.402         24.5794         129.777 
        1.08607          123.14          24.249         128.839 
        1.09222         121.593         23.9244         128.234 
        1.09836         120.923          23.606         127.378 
        1.10449         120.415         23.2939         126.993 
        1.11063         119.131          22.987         125.962 
        1.11677         118.586         22.6858         125.056 
         1.1229         117.896         22.3905         124.388 
        1.12903         116.532         22.1003         123.657 
        1.13518         116.029         21.8149         123.064 
        1.14131         115.677         21.5348         122.156 
        1.14745         114.491         21.2598         121.468 
        1.15359         113.923         20.9895         120.936 
        1.15973         113.279         20.7238         120.302 
        1.16584          112.51         20.4639         119.533 
        1.17197          111.98         20.2081         119.081 
        1.17811          110.96          19.956         118.237 
        1.18424         110.349         19.7088         117.371 
        1.19038         109.765         19.4652         117.227 
        1.19652         108.641         19.2257         116.245 
        1.20267         108.045         18.9904         115.826 
        1.20881         107.339          18.759         114.991 
        1.21495         107.119         18.5318         114.535 
        1.22108         106.111         18.3084         113.885 
         1.2272         106.025         18.0893         113.201 
        1.23334         104.904         17.8733         112.894 
        1.23949         104.319         17.6602         112.108 
        1.24562         103.539         17.4513         111.169 
        1.25174          103.42          17.246          110.65 
        1.25789          102.53         17.0435         110.007 
        1.26402         101.835         16.8446         109.729 
        1.27014         101.276         16.6493         109.238 
        1.27628         100.936         16.4565         108.939 
        1.28244         100.014         16.2665          108.09 
        1.28858         99.5445         16.0796         107.543 
        1.29471         98.7597         15.8962         107.029 
        1.30084         98.3011         15.7157         106.242 
        1.30697         97.6152         15.5378         105.734 
        1.31312         97.2727         15.3624         105.132 
        1.31925         96.1987         15.1903          104.81 
        1.32537         95.9147          15.021          104.44 
        1.33151         95.2054         14.8536         103.816 
        1.33765          94.941         14.6889         103.345 
        1.34378          94.423          14.527         102.869 
        1.34992         93.6865         14.3675          102.24 
        1.35606         93.3752           14.21         101.673 
         1.3622         92.7718         14.0551         101.333 
        1.36833         92.1794         13.9029         100.637 
        1.37445         91.5621         13.7531         100.228 
        1.38059         91.0381          13.605         99.5382 
        1.38675         90.6046         13.4588         99.0872 
        1.39288         89.9768         13.3152         98.5955 
        1.39901         89.3769         13.1739         98.2715 
        1.40515         89.0025         13.0342         97.9192 
         1.4113         88.4644         12.8967         97.5033 
        1.41742         88.2777         12.7617         97.0037 
        1.42355         87.5227         12.6283         96.3889 
         1.4297         86.9821         12.4965         96.0665 
        1.43585         86.7203         12.3666         95.4512 
        1.44198         86.1553          12.239         95.2975 
        1.44809          85.527         12.1135          94.693 
        1.45423         85.2663         11.9893         94.1008 
        1.46036           84.54          11.867         93.7293 
        1.46649         84.0191         11.7464         93.4471 
        1.47263         83.6994         11.6274         93.0528 
        1.47877         83.2805         11.5101          92.419 
        1.48491         82.6713         11.3942         91.9923 
        1.49104         82.2859         11.2802         91.8068 
        1.49718         81.7458         11.1676         91.1591 
        1.50333         81.1592         11.0564         90.6617 
        1.50947          81.096          10.947         90.3612 
         1.5156         80.4142         10.8392              90 
        1.52172         79.8078         10.7328         89.5526 
        1.52787         79.6047         10.6277         89.1262 
          1.534         79.2218         10.5241         88.7898 
        1.54013         78.7127          10.422         88.4558 
        1.54627         78.2767          10.321         88.0596 
        1.55241         77.9223         10.2214         87.6053 
        1.55855         77.2746         10.1232          87.142 
        1.56467         76.8929         10.0266         86.8496 
         1.5708         76.4088         9.93101         86.4606 
        1.57695           76.12         9.83648         86.0394 
        1.58308          75.565         9.74341         85.7419 
        1.58922         75.2549         9.65147         85.3766 
        1.59535         75.0369         9.56075         85.0193 
         1.6015         74.3846         9.47108         84.6037 
        1.60764         74.0304         9.38259         84.2342 
        1.61376          73.925         9.29548         83.9988 
        1.61989         73.3262          9.2094         83.6325 
        1.62604         73.0502         9.12423         83.0034 
        1.63218          72.405         9.04018         82.6012 
        1.63831         72.2298         8.95739         82.4851 
        1.64444         71.6459          8.8756         82.1024 
        1.65059         71.2368         8.79464         81.7206 
        1.65673          71.033         8.71477         81.3265 
        1.66285         70.7641         8.63613         81.0052 
        1.66898         70.1112         8.55842          80.756 
        1.67512         69.6314         8.48153         80.3609 
        1.68127         69.4299         8.40551         80.0636 
         1.6874         69.2588         8.33059         79.7749 
        1.69353         68.5971         8.25662         79.3118 
        1.69967         68.3042         8.18338         79.0269 
        1.70581          67.939         8.11106         78.7294 
        1.71193         67.6421         8.03989         78.3579 
        1.71806         67.0756         7.96942         78.0628 
        1.72421         66.7697         7.89965         77.7607 
        1.73035         66.4585          7.8308         77.4338 
        1.73649         66.1372         7.76278         77.0774 
        1.74262         65.7055         7.69562         76.6835 
        1.74876         65.3123         7.62922         76.3844 
        1.75489         65.2774         7.56373         76.1234 
        1.76101         64.8513         7.49903         75.8225 
        1.76715         64.4494           7.435         75.5183 
        1.77329         64.0743         7.37164          75.173 
        1.77943         63.6778           7.309         74.8519 
        1.78557         63.4636         7.24717         74.6034 
        1.79171          63.018         7.18604         74.2926 
        1.79785         62.8044         7.12561         73.9411 
        1.80399         62.3468         7.06589         73.6359 
        1.81012         62.0098         7.00694         73.3484 
        1.81625         61.6969         6.94868         73.0495 
        1.82239         61.3906           6.891         72.7559 
        1.82853         61.0809           6.834         72.4852 
        1.83466         60.7618          6.7777         72.1674 
        1.84078         60.4062         6.72209          71.867 
        1.84692         60.1566         6.66702         71.6939 
        1.85306         59.9741         6.61249         71.3458 
         1.8592         59.6664         6.55866         70.9411 
        1.86533         59.1904         6.50546          70.739 
        1.87147          58.882         6.45279         70.4747 
        1.87761         58.5429         6.40068         70.1749 
