# k  (h/Mpc)    Pcb(k)  (Mpc/h)^3    Pcb_linear(k) (Mpc/h)^3    Pcb_NL(k) (Mpc/h)^3   ShotnoiseSubtracted = false
     0.00783031         14869.5         14964.9         14824.2 
       0.013688         16266.4         16666.6         16544.1 
       0.019231         15189.7         15386.3         15279.8 
      0.0249154           13047         12953.1         12882.1 
      0.0312784         10143.4         10162.4         10133.2 
      0.0375637         7943.81            8001         7992.75 
      0.0433917         6687.68         6658.54         6648.32 
      0.0492413         5832.56         5837.02         5830.28 
      0.0555754         5351.49         5316.64         5309.25 
      0.0619321         4839.36         4940.76          4931.6 
       0.067871         4533.97         4562.82         4558.61 
      0.0738098         4108.57            4097          4073.3 
      0.0800417         3582.25         3540.29         3540.51 
      0.0862327         3037.85         2997.82         3040.27 
      0.0921407         2628.61         2561.27         2615.75 
      0.0982031         2336.59         2232.61         2316.88 
       0.104506         2078.41         2016.56         2116.77 
       0.110769         1960.97         1895.68         1967.27 
       0.116806         1903.07         1823.23         1879.12 
       0.122832         1805.77         1752.44         1804.04 
       0.129052         1698.84          1652.1         1697.63 
       0.135211         1603.51         1518.62         1571.13 
       0.141259          1439.5         1367.52          1439.5 
       0.147318         1291.69         1218.21         1315.81 
       0.153489          1177.2         1088.27         1176.61 
       0.159709         1106.58         990.614         1090.19 
       0.165845         1014.44         926.663         1040.45 
       0.171974         995.187         886.515         987.208 
       0.178125         961.626         857.756         962.018 
       0.184229         899.057         828.866         922.153 
        0.19034         875.696         791.848         878.583 
       0.196428         837.783         745.054          827.48 
       0.202534         767.926          691.61         782.124 
       0.208729         743.006         637.059          727.61 
       0.214876          698.66         588.645          696.39 
       0.220989         650.726         549.706         662.773 
       0.227147         631.628         520.297         633.397 
        0.23329         606.206         498.782         614.212 
       0.239377         598.321         481.826         590.875 
       0.245482         567.666         465.692         565.277 
       0.251667         544.783         447.695         550.376 
       0.257832         534.229         427.169         525.738 
       0.263955         502.439         404.826         503.008 
       0.270079         480.279         382.138         482.628 
        0.27624         458.168         360.736         460.752 
       0.282372         445.867         342.095         445.381 
        0.28843         439.673         326.735         430.945 
       0.294538         416.363         313.942         417.364 
       0.300721         404.077         302.905         405.662 
        0.30691         395.805         292.687         396.492 
       0.313033         376.386         282.577         382.015 
       0.319153          369.78         272.001         370.104 
       0.325316          361.46         260.926          359.55 
        0.33145         350.888         249.799         344.914 
       0.337538         336.811         239.157         334.315 
       0.343633          326.32         229.287         328.369 
       0.349808         317.021         220.329         320.314 
       0.355968         310.426         212.403         312.923 
       0.362074         298.706         205.351          304.53 
       0.368217         295.689          198.78         294.645 
       0.374374         289.062         192.427         287.254 
       0.380519         276.829         186.154         279.339 
       0.386598         272.637          179.94          275.23 
       0.392688         264.417         173.762         266.237 
        0.39888         258.092         167.653         260.073 
       0.405048          251.37         161.853         255.102 
       0.411186         249.968         156.451         247.702 
       0.417313         244.886         151.461          241.69 
       0.423458         238.515         146.807         237.156 
       0.429607         230.873         142.432         232.403 
       0.435692         227.024         138.307         226.233 
       0.441815         222.503         134.281          223.45 
       0.447964         216.115         130.324         218.912 
       0.454126         213.149         126.451         212.234 
       0.460267         209.785         122.697         210.278 
       0.466387         204.281         119.086         205.805 
        0.47254         201.843         115.614         201.639 
       0.478662         196.361         112.337         197.509 
       0.484765         193.057         109.238         192.859 
       0.490885         190.341         106.277         189.844 
       0.497035         186.682         103.427         186.949 
       0.503198         185.069          100.68         183.803 
       0.509342         180.509         98.0293         180.874 
       0.515458         177.132         95.4637         178.376 
       0.521598         173.148         92.9608         174.485 
       0.527764         171.481          90.529         172.158 
       0.533884         169.637          88.203         169.506 
           0.54         166.203         85.9684         166.121 
       0.546137         162.168         83.8117         164.084 
       0.552299         160.371         81.7286         160.743 
       0.558452           157.6         79.7272         158.197 
       0.564573         156.734         77.8074         156.667 
       0.570708         152.656         75.9475         154.571 
       0.576825         150.342         74.1508         151.238 
       0.582926         148.987         72.4112          149.36 
       0.589034         146.119         70.7205          147.74 
       0.595184         144.628         69.0708          144.61 
       0.601379         142.215         67.4632         143.117 
       0.607522         138.625         65.9227         140.592 
       0.613639         137.828         64.4403         139.625 
       0.619772         136.438         63.0024          137.84 
       0.625918         134.562         61.6068         135.408 
       0.632068         131.753         60.2528          133.39 
       0.638161         130.944         58.9508          132.53 
         0.6443         129.206         57.6772         130.635 
       0.650464         126.797         56.4361          127.84 
       0.656582         125.582         55.2403         126.876 
       0.662703         124.613          54.079         125.154 
       0.668861         121.794         52.9451         123.918 
       0.675024         121.477         51.8434         122.318 
       0.681124         119.576         50.7847         120.598 
       0.687237         118.415         49.7538         119.161 
       0.693381         116.141         48.7469         117.504 
       0.699536         115.554         47.7663          116.32 
       0.705665         114.052         46.8169         115.297 
       0.711789         112.168         45.8942         113.931 
       0.717957         111.132         44.9902         112.655 
        0.72409         109.576         44.1156         111.686 
       0.730186         109.649         43.2696         110.469 
       0.736317         108.098         42.4414         108.924 
       0.742472         106.229         41.6321         107.809 
       0.748622          104.64         40.8448         106.525 
        0.75476         104.867         40.0797         105.567 
       0.760888         103.383         39.3356         103.973 
       0.767043         101.477         38.6076         103.289 
       0.773185         100.193         37.8996         102.523 
       0.779291         99.4572         37.2136         101.188 
       0.785407         98.5622         36.5436          99.956 
       0.791564         97.5692          35.886         99.1876 
       0.797719         95.9476          35.245         98.5419 
       0.803834         95.9783         34.6238         97.3138 
       0.809972         94.8253         34.0153         96.3921 
       0.816124         93.0604         33.4202         95.6003 
       0.822261         92.4682         32.8411         94.6373 
       0.828378         91.9845         32.2774         93.4516 
       0.834502         91.1341         31.7266         92.5597 
       0.840667         90.4675         31.1851         92.0061 
       0.846816         89.0164         30.6578         91.2032 
       0.852925         88.4104         30.1461         90.4191 
       0.859047         87.4453          29.645         89.5563 
       0.865192         86.7768         29.1538          88.624 
       0.871341         86.0638         28.6734         87.7604 
       0.877463         85.2106          28.206         87.1504 
       0.883569         85.0203         27.7503          86.683 
       0.889708         84.1579         27.3024         85.7184 
       0.895864         83.2092         26.8632         85.1831 
       0.902008         82.1289         26.4347         84.2513 
       0.908149         81.2935         26.0158         83.5645 
       0.914301         80.7796         25.6054         82.8389 
       0.920448         80.7996         25.2042            82.3 
       0.926574         79.1726         24.8131         81.4921 
       0.932687         78.9718         24.4311         80.9857 
       0.938823         78.4401         24.0558         80.1764 
       0.944975         77.7079         23.6876         79.5269 
       0.951105         76.8997         23.3284         78.8564 
       0.957225         76.4691         22.9774         78.3225 
       0.963368         75.7194         22.6324         77.6198 
       0.969511         75.1802         22.2945         76.9797 
       0.975621         74.0213         21.9654         76.8472 
       0.981748         73.8293          21.642         76.2168 
       0.987916         73.1888         21.3232         75.5943 
        0.99406         72.8214          21.012         74.8526 
        1.00019         72.1514         20.7077         74.2092 
        1.00632         71.4117         20.4097         73.6889 
        1.01246         70.9604         20.1172         72.9938 
        1.01859         70.5337         19.8308         72.7771 
        1.02471         70.0947         19.5505         72.4313 
        1.03085          69.399         19.2746         71.7976 
        1.03698         68.7864         19.0046         71.2706 
        1.04314         68.3963         18.7387         70.6809 
        1.04929         67.9731         18.4785         70.3598 
        1.05541         67.3358         18.2243         69.9836 
        1.06154          66.659         17.9742         69.4317 
        1.06769         66.3085         17.7285         68.9812 
        1.07382         65.8664         17.4883         68.5552 
        1.07993         65.5451          17.253         68.0719 
        1.08607          65.097          17.021         67.5714 
        1.09222         64.5189         16.7932          67.147 
        1.09836         64.0501         16.5697         66.6135 
        1.10449         63.6251         16.3506         66.2979 
        1.11063         63.1029         16.1352         65.6239 
        1.11677         62.8847         15.9238         65.2307 
         1.1229         62.0746         15.7165          65.007 
        1.12903         61.7202         15.5128         64.4634 
        1.13518         61.1952         15.3125         64.0721 
        1.14131         60.9547         15.1159         63.5813 
        1.14745         60.6487         14.9228         63.3025 
        1.15359         60.0045         14.7331         62.8969 
        1.15973         59.8002         14.5466         62.6734 
        1.16584         59.3354         14.3642         61.9972 
        1.17197         58.9701         14.1846         61.8743 
        1.17811         58.5586         14.0076         61.3924 
        1.18424         58.0266         13.8342         61.0438 
        1.19038         57.7901         13.6631         60.6972 
        1.19652         57.4867         13.4951         60.2877 
        1.20267         56.9749         13.3298         59.9852 
        1.20881         56.5167         13.1674         59.5381 
        1.21495         56.2493          13.008         59.2368 
        1.22108         55.9621         12.8512         58.9437 
         1.2272         55.6654         12.6974         58.5623 
        1.23334         55.3844         12.5457         58.3623 
        1.23949         54.8434         12.3962         57.8441 
        1.24562         54.3935         12.2495         57.4291 
        1.25174         54.3874         12.1055         57.1897 
        1.25789         53.9136         11.9633          56.862 
        1.26402         53.5365         11.8237         56.6508 
        1.27014         53.1176         11.6866         56.4112 
        1.27628         52.8995         11.5513         56.0623 
        1.28244         52.7897         11.4179         55.6151 
        1.28858         52.3336         11.2867         55.2987 
        1.29471         51.9104          11.158          55.061 
        1.30084         51.5055         11.0313          54.619 
        1.30697         51.3081         10.9064         54.4519 
        1.31312          51.116         10.7833         54.2367 
        1.31925         50.5839         10.6625         53.8629 
        1.32537         50.3545         10.5436          53.654 
        1.33151         50.2116         10.4261         53.3113 
        1.33765         49.7904         10.3105         53.0363 
        1.34378         49.4978         10.1969         52.7948 
        1.34992         49.2372         10.0849         52.4408 
        1.35606         48.9838         9.97436         52.1929 
         1.3622         48.6871         9.86566         51.9681 
        1.36833         48.3951         9.75885         51.6649 
        1.37445         48.1021         9.65367         51.4658 
        1.38059           47.81         9.54973          51.133 
        1.38675         47.5074         9.44707          50.852 
        1.39288         47.2463         9.34632         50.5574 
        1.39901         46.9879          9.2471         50.3669 
        1.40515         46.6268          9.1491         50.2381 
         1.4113         46.4589         9.05255         50.0089 
        1.41742         46.2056         8.95777         49.6213 
        1.42355         46.0025         8.86416         49.3574 
         1.4297          45.713         8.77162         49.1695 
        1.43585         45.5774         8.68043         48.8563 
        1.44198         45.1114         8.59089         48.6879 
        1.44809         44.7884         8.50278         48.4218 
        1.45423         44.7981         8.41558         48.1549 
        1.46036         44.4978         8.32977         47.9477 
        1.46649         44.1272         8.24512          47.787 
        1.47263         43.8432         8.16159         47.5725 
        1.47877         43.6618         8.07924         47.2061 
        1.48491         43.3136         7.99791         47.0393 
        1.49104         43.2194         7.91787         46.8879 
        1.49718         42.9093         7.83887         46.6248 
        1.50333         42.7604         7.76082         46.3837 
        1.50947         42.4834         7.68399         46.1804 
         1.5156         42.3632         7.60832         45.9608 
        1.52172         41.9941         7.53367         45.7264 
        1.52787         41.8444         7.45987         45.5588 
          1.534         41.5426         7.38715         45.3677 
        1.54013         41.4729         7.31547         45.1251 
        1.54627         41.0531         7.24462         44.8975 
        1.55241         41.0191         7.17469         44.6995 
        1.55855         40.6601         7.10578         44.5184 
        1.56467          40.318         7.03797         44.3486 
         1.5708         40.3483         6.97085         44.1245 
        1.57695         40.0151          6.9045         43.9492 
        1.58308         39.8837         6.83917         43.7829 
        1.58922         39.6002         6.77463         43.5323 
        1.59535         39.6086         6.71095         43.3664 
         1.6015         39.3243         6.64801         43.1315 
        1.60764         39.1077          6.5859         42.9246 
        1.61376         38.8992         6.52475         42.8431 
        1.61989         38.5459         6.46433         42.6302 
        1.62604          38.465         6.40454          42.371 
        1.63218           38.21         6.34555         42.1804 
        1.63831         38.0522         6.28743          42.059 
        1.64444         37.9025         6.23002         41.8801 
        1.65059         37.6576          6.1732         41.6579 
        1.65673          37.471         6.11714         41.4692 
        1.66285         37.2428         6.06193         41.3309 
        1.66898         37.0308         6.00739         41.1894 
        1.67512         36.8023         5.95342         40.9741 
        1.68127         36.7472         5.90006         40.7625 
         1.6874         36.5743         5.84747         40.6072 
        1.69353         36.3256         5.79555         40.4852 
        1.69967          36.158         5.74414         40.3072 
        1.70581         35.9956         5.69338         40.1385 
        1.71193          35.714         5.64342         39.9913 
        1.71806         35.6195         5.59395         39.8124 
        1.72421         35.3674         5.54498         39.6457 
        1.73035         35.2776         5.49665         39.4773 
        1.73649         35.0339         5.44891         39.3027 
        1.74262         34.8581         5.40177         39.1521 
        1.74876          34.812         5.35516         38.9927 
        1.75489         34.5507         5.30919         38.8288 
        1.76101         34.4616         5.26378         38.6664 
        1.76715         34.2369         5.21883         38.4868 
        1.77329         34.0664         5.17436         38.3477 
        1.77943         33.9149         5.13039         38.2179 
        1.78557         33.7652         5.08699          38.047 
        1.79171         33.5046         5.04408         37.8836 
        1.79785         33.4201         5.00167         37.7389 
        1.80399         33.2329         4.95975         37.5954 
        1.81012         33.0141         4.91836         37.4418 
        1.81625         32.9199         4.87747         37.2786 
        1.82239         32.7029         4.83698         37.1418 
        1.82853         32.6044         4.79697         37.0484 
        1.83466         32.3845         4.75745         36.8818 
        1.84078         32.2196         4.71842         36.6807 
        1.84692         32.1409         4.67976         36.5891 
        1.85306          31.987         4.64149         36.4599 
         1.8592         31.7256         4.60371         36.2794 
        1.86533         31.6744         4.56636         36.1437 
        1.87147         31.4587         4.52939         35.9966 
