# k  (h/Mpc)    Pcb(k)  (Mpc/h)^3    Pcb_linear(k) (Mpc/h)^3    Pcb_NL(k) (Mpc/h)^3   ShotnoiseSubtracted = false
     0.00783031         448.889         452.993         448.759 
       0.013688         500.641          505.11         501.978 
       0.019231         465.093         466.524         464.095 
      0.0249154         393.443         392.844         391.703 
      0.0312784         309.004         308.255         308.571 
      0.0375637         243.075         242.716         243.191 
      0.0433917         202.767         202.003         202.467 
      0.0492413         177.371         177.088         177.486 
      0.0555754         161.764         161.305         161.395 
      0.0619321         149.338         149.904         149.826 
       0.067871         138.327          138.44         138.264 
      0.0738098         124.291         124.308         124.136 
      0.0800417         107.635         107.418         107.376 
      0.0862327         91.1273         90.9595         91.0607 
      0.0921407         77.8492         77.7143         77.8824 
      0.0982031         68.0899         67.7427         67.9594 
       0.104506         61.2094         61.1876         61.3887 
       0.110769         57.5409         57.5199         57.6454 
       0.116806         55.4488         55.3217          55.364 
       0.122832         53.1056         53.1739          53.179 
       0.129052         50.1561         50.1296         50.1132 
       0.135211         46.1956         46.0793         46.0847 
       0.141259         41.5379         41.4946         41.5469 
       0.147318         36.9595         36.9642         37.0765 
       0.153489         33.1011         33.0215          33.136 
       0.159709         30.1855         30.0584         30.1884 
       0.165845         28.0903          28.118         28.2574 
       0.171974         27.0365         26.8998         27.0061 
       0.178125          26.102         26.0272         26.1263 
       0.184229         25.1473         25.1505         25.2294 
        0.19034         24.1182         24.0273          24.094 
       0.196428         22.6729         22.6075         22.6651 
       0.202534         20.9387         20.9858         21.0598 
       0.208729         19.4067         19.3306         19.4201 
       0.214876         18.0021         17.8616         17.9782 
       0.220989         16.7186           16.68         16.8035 
       0.227147         15.9169         15.7876         15.9035 
        0.23329         15.2583         15.1348         15.2518 
       0.239377         14.7456         14.6203         14.7288 
       0.245482         14.2362         14.1307         14.2189 
       0.251667         13.6359         13.5847         13.6783 
       0.257832          13.078         12.9618         13.0507 
       0.263955         12.3552         12.2839         12.3715 
       0.270079         11.6636         11.5954         11.6867 
        0.27624         10.9919          10.946          11.037 
       0.282372         10.4347         10.3804         10.4818 
        0.28843         10.0224         9.91432         10.0166 
       0.294538         9.62137         9.52614         9.62418 
       0.300721         9.24375         9.19124         9.28952 
        0.30691         8.97109         8.88118         8.97787 
       0.313033         8.65108         8.57441         8.66396 
       0.319153         8.38099         8.25349         8.34313 
       0.325316         7.97246         7.91745         8.00988 
        0.33145         7.63435         7.57981         7.66877 
       0.337538         7.32369          7.2569         7.34436 
       0.343633         7.04588         6.95743         7.04404 
       0.349808         6.75759          6.6856         6.77712 
       0.355968         6.50654          6.4451         6.54493 
       0.362074         6.31882          6.2311         6.32305 
       0.368217         6.11005         6.03174          6.1145 
       0.374374         5.93903         5.83893         5.92518 
       0.380519         5.71987         5.64859         5.72978 
       0.386598         5.51843         5.46006          5.5427 
       0.392688         5.31971         5.27258         5.35487 
        0.39888          5.1542         5.08722         5.17092 
       0.405048         4.98321         4.91123         4.98814 
       0.411186         4.81255          4.7473         4.83113 
       0.417313          4.6614         4.59588         4.67762 
       0.423458         4.50317         4.45466         4.53639 
       0.429607          4.3934         4.32191         4.39967 
       0.435692         4.27235         4.19675         4.27573 
       0.441815         4.13715         4.07459         4.15627 
       0.447964          3.9971         3.95452         4.03158 
       0.454126         3.89925         3.83698         3.91311 
       0.460267         3.79676          3.7231         3.80212 
       0.466387         3.68115         3.61351          3.6875 
        0.47254         3.58334         3.50816         3.58271 
       0.478662         3.47521         3.40872         3.48097 
       0.484765         3.38312          3.3147         3.38602 
       0.490885         3.28169         3.22484         3.30177 
       0.497035         3.18627         3.13837         3.21643 
       0.503198         3.11703         3.05501         3.12564 
       0.509342           3.021         2.97458         3.04597 
       0.515458         2.95358         2.89673         2.97105 
       0.521598         2.88008         2.82078         2.88852 
       0.527764         2.81555         2.74699          2.8143 
       0.533884         2.72418         2.67641         2.74254 
           0.54         2.66371         2.60861         2.67359 
       0.546137         2.58944         2.54316         2.61047 
       0.552299         2.53055         2.47995         2.54079 
       0.558452          2.4678         2.41922         2.48156 
       0.564573         2.41078         2.36097         2.42812 
       0.570708         2.35543         2.30453         2.36924 
       0.576825         2.30146         2.25001          2.3125 
       0.582926         2.24211         2.19723         2.26067 
       0.589034         2.19806         2.14593          2.2121 
       0.595184         2.15281         2.09587         2.15326 
       0.601379         2.09535         2.04709         2.11128 
       0.607522          2.0458         2.00035         2.06222 
       0.613639         1.99644         1.95536         2.01549 
       0.619772         1.95931         1.91173         1.97419 
       0.625918         1.91589         1.86938         1.92834 
       0.632068         1.87585          1.8283         1.88536 
       0.638161         1.83307         1.78879         1.84645 
         0.6443         1.79286         1.75014         1.80565 
       0.650464         1.75662         1.71248         1.77119 
       0.656582         1.72431          1.6762         1.73322 
       0.662703         1.68699         1.64096         1.69617 
       0.668861         1.64412         1.60656         1.66362 
       0.675024         1.61273         1.57313         1.62883 
       0.681124         1.59372           1.541         1.59482 
       0.687237         1.55448         1.50972         1.56077 
       0.693381         1.51611         1.47917         1.52875 
       0.699536         1.49393         1.44941         1.49978 
       0.705665         1.46458          1.4206         1.47498 
       0.711789         1.42922         1.39261         1.44489 
       0.717957         1.40301         1.36517         1.41509 
        0.72409         1.37707         1.33863         1.38939 
       0.730186         1.35807         1.31297         1.36183 
       0.736317         1.32451         1.28784         1.33513 
       0.742472         1.30507         1.26328         1.31315 
       0.748622         1.28148         1.23939         1.29001 
        0.75476         1.25224         1.21617         1.26389 
       0.760888         1.23405         1.19359         1.24107 
       0.767043         1.20054          1.1715         1.21953 
       0.773185         1.18408         1.15002         1.19856 
       0.779291         1.17013          1.1292         1.17705 
       0.785407         1.14558         1.10887         1.15533 
       0.791564         1.12359         1.08892         1.13526 
       0.797719         1.10406         1.06947         1.11375 
       0.803834         1.08509         1.05062          1.0953 
       0.809972         1.06604         1.03215          1.0786 
       0.816124         1.04733          1.0141         1.05807 
       0.822261         1.03093        0.996523         1.03938 
       0.828378         1.01265         0.97942         1.02267 
       0.834502        0.994487        0.962705         1.00454 
       0.840667        0.980707        0.946274        0.988745 
       0.846816        0.962355        0.930275        0.974663 
       0.852925         0.94515        0.914748        0.957029 
       0.859047        0.929819        0.899544        0.943571 
       0.865192        0.914979        0.884637        0.926854 
       0.871341        0.902142         0.87006         0.91162 
       0.877463        0.884024        0.855879         0.89622 
       0.883569        0.871249        0.842051        0.883547 
       0.889708        0.858945        0.828459        0.869607 
       0.895864        0.845246        0.815134        0.855115 
       0.902008        0.829231        0.802131        0.842122 
       0.908149        0.818218        0.789421        0.828938 
       0.914301        0.806854        0.776966        0.815917 
       0.920448        0.795323        0.764793        0.803229 
       0.926574        0.784522        0.752924        0.791954 
       0.932687        0.772087        0.741333        0.778088 
       0.938823        0.756583        0.729946        0.768939 
       0.944975         0.74783        0.718773        0.755413 
       0.951105        0.732666        0.707875        0.744447 
       0.957225        0.723798        0.697222        0.734362 
       0.963368        0.714588        0.686754        0.722933 
       0.969511         0.70496        0.676501        0.712833 
       0.975621         0.69181        0.666513        0.700966 
       0.981748         0.67946        0.656703        0.690771 
       0.987916        0.671318        0.647029        0.682883 
        0.99406        0.663419        0.637586        0.673784 
        1.00019         0.65342        0.628352        0.663887 
        1.00632        0.646158         0.61931        0.653412 
        1.01246        0.636332        0.610432        0.644217 
        1.01859        0.627547        0.601744         0.63625 
        1.02471        0.616596        0.593236        0.627159 
        1.03085        0.607379        0.584864        0.617374 
        1.03698        0.600853        0.576672        0.608793 
        1.04314        0.591838        0.568603        0.600736 
        1.04929        0.585917        0.560708        0.592907 
        1.05541        0.575132        0.552995        0.585598 
        1.06154        0.568816        0.545408         0.57765 
        1.06769        0.561775        0.537952        0.570105 
        1.07382        0.553531        0.530661         0.56221 
        1.07993         0.54628        0.523522        0.554669 
        1.08607         0.53957        0.516484        0.548247 
        1.09222        0.531554        0.509569        0.539983 
        1.09836        0.525729        0.502789         0.53348 
        1.10449         0.51702         0.49614        0.526834 
        1.11063        0.510365        0.489605        0.519135 
        1.11677        0.504968        0.483189        0.513408 
         1.1229        0.496699          0.4769        0.506786 
        1.12903        0.491786        0.470718        0.500226 
        1.13518         0.48501         0.46464        0.493781 
        1.14131        0.479353        0.458674        0.487793 
        1.14745        0.474815        0.452816        0.480729 
        1.15359        0.467335        0.447059         0.47589 
        1.15973        0.462177          0.4414        0.470152 
        1.16584        0.455977        0.435865        0.463525 
        1.17197        0.449427        0.430417        0.458626 
        1.17811        0.443812        0.425046        0.453254 
        1.18424         0.43875        0.419782         0.44702 
        1.19038        0.432562        0.414592        0.441691 
        1.19652        0.428878        0.409493        0.436966 
        1.20267         0.42426        0.404479        0.430778 
        1.20881        0.416869        0.399551        0.426131 
        1.21495        0.412921        0.394712        0.422155 
        1.22108        0.408361        0.389955        0.416142 
         1.2272        0.402377        0.385288        0.411004 
        1.23334        0.398166        0.380686        0.406584 
        1.23949        0.394107        0.376149        0.402218 
        1.24562        0.389252        0.371698        0.397535 
        1.25174        0.385231        0.367327        0.392651 
        1.25789        0.379175        0.363013        0.388278 
        1.26402        0.375845        0.358775        0.383889 
        1.27014        0.370091        0.354616        0.379226 
        1.27628        0.367143        0.350511        0.374678 
        1.28244        0.362626        0.346462        0.370704 
        1.28858        0.357883        0.342483        0.366259 
        1.29471         0.35416        0.338576        0.362403 
        1.30084        0.350247        0.334733        0.359146 
        1.30697         0.34751        0.330944        0.354886 
        1.31312        0.343091        0.327208        0.350725 
        1.31925        0.339051        0.323541         0.34731 
        1.32537        0.335441        0.319934        0.343589 
        1.33151         0.33157         0.31637        0.339837 
        1.33765        0.327846        0.312862        0.336143 
        1.34378        0.323949        0.309414        0.332456 
        1.34992        0.321464        0.306015         0.32894 
        1.35606        0.317154        0.302661        0.325054 
         1.3622        0.314075        0.299363        0.321772 
        1.36833        0.311141        0.296121        0.318741 
        1.37445        0.307659         0.29293        0.315468 
        1.38059        0.304451        0.289776        0.311975 
        1.38675        0.300762        0.286661        0.308382 
        1.39288        0.297221        0.283604        0.305214 
        1.39901        0.294598        0.280593        0.302189 
        1.40515        0.291377        0.277619        0.298948 
         1.4113        0.289211         0.27469        0.296257 
        1.41742        0.285839        0.271814        0.293761 
        1.42355        0.281626        0.268973        0.289553 
         1.4297        0.279889        0.266165        0.287665 
        1.43585        0.276402        0.263398         0.28428 
        1.44198        0.274126        0.260681         0.28074 
        1.44809        0.270986        0.258008        0.278977 
        1.45423        0.268169        0.255362        0.275324 
        1.46036        0.265532        0.252758        0.272877 
        1.46649        0.262901        0.250189        0.270681 
        1.47263        0.259463        0.247654        0.267744 
        1.47877         0.25864        0.245156        0.265204 
        1.48491        0.254383        0.242688        0.262908 
        1.49104         0.25335        0.240259        0.259532 
        1.49718        0.249807        0.237862        0.257878 
        1.50333        0.247799        0.235494        0.254711 
        1.50947        0.245442        0.233162        0.252077 
         1.5156        0.242961        0.230866        0.250202 
        1.52172        0.240642        0.228601        0.247506 
        1.52787        0.237681        0.226362        0.245064 
          1.534         0.23609        0.224155        0.243095 
        1.54013        0.233616         0.22198        0.240717 
        1.54627        0.231587         0.21983        0.238245 
        1.55241        0.229287        0.217708        0.236017 
        1.55855        0.226999        0.215617         0.23377 
        1.56467        0.225045         0.21356        0.231765 
         1.5708        0.222724        0.211523        0.229383 
        1.57695        0.220524         0.20951        0.227062 
        1.58308        0.217939        0.207527        0.225308 
        1.58922        0.216573        0.205569        0.223384 
        1.59535        0.214225        0.203637         0.22118 
         1.6015        0.212371        0.201727        0.218907 
        1.60764          0.2102        0.199842        0.217173 
        1.61376        0.208395        0.197987        0.215694 
        1.61989        0.206389        0.196153        0.213577 
        1.62604        0.204321        0.194339        0.211517 
        1.63218        0.202843        0.192549        0.209714 
        1.63831        0.200721        0.190785        0.207832 
        1.64444          0.1993        0.189043        0.205726 
        1.65059        0.196915        0.187319        0.203974 
        1.65673        0.195294        0.185618        0.202329 
        1.66285        0.193731        0.183943        0.200545 
        1.66898        0.191901        0.182288        0.198635 
        1.67512        0.189881         0.18065        0.196902 
        1.68127         0.18816        0.179031        0.195241 
         1.6874        0.186928        0.177435        0.193714 
        1.69353        0.184871         0.17586        0.192245 
        1.69967        0.183339          0.1743         0.19021 
        1.70581        0.182084        0.172759        0.188437 
        1.71193        0.180611        0.171244        0.187013 
        1.71806        0.178779        0.169743        0.185301 
        1.72421        0.177005        0.168257        0.183933 
        1.73035        0.175422         0.16679        0.182365 
        1.73649         0.17428        0.165341        0.180467 
        1.74262        0.172386        0.163911        0.179052 
        1.74876        0.171279        0.162497        0.177858 
        1.75489        0.169796        0.161102        0.176398 
        1.76101        0.168221        0.159724        0.174719 
        1.76715         0.16678         0.15836        0.173452 
        1.77329        0.165254        0.157011        0.172129 
        1.77943        0.163836        0.155676        0.170572 
        1.78557        0.162896        0.154359           0.169 
        1.79171        0.161387        0.153057        0.167483 
        1.79785        0.159796         0.15177        0.166184 
        1.80399        0.158081        0.150498        0.165046 
        1.81012        0.157276        0.149243        0.163402 
        1.81625        0.156165        0.148002        0.161985 
        1.82239        0.155056        0.146773        0.161078 
        1.82853        0.153297        0.145559        0.159915 
        1.83466        0.152039         0.14436        0.158465 
        1.84078        0.150774        0.143176        0.157057 
        1.84692        0.149688        0.142003        0.155974 
        1.85306        0.148508        0.140841        0.154562 
         1.8592        0.147342        0.139695        0.153083 
        1.86533        0.146263        0.138562        0.152093 
        1.87147        0.144696         0.13744        0.150982 
