# k  (h/Mpc)    P(k)  (Mpc/h)^3    P_linear(k)  (Mpc/h)^3     P_NL(k)  ShotnoiseSubtracted = false
     0.00783031         17777.9         17887.3         17717.3 
       0.013688         19401.9         19919.5         19767.6 
       0.019231         18127.6         18388.7         18254.1 
      0.0249154         15597.5         15480.4         15386.1 
      0.0312784         12109.9           12145           12099 
      0.0375637         9481.29         9561.84         9545.45 
      0.0433917         7989.56         7957.45         7938.12 
      0.0492413         6967.13         6975.65         6961.54 
      0.0555754         6393.34         6353.73          6341.2 
      0.0619321         5769.86         5904.52         5890.57 
       0.067871         5409.01         5452.85         5446.69 
      0.0738098         4909.59         4896.15         4861.68 
      0.0800417         4283.35         4230.85         4230.08 
      0.0862327         3636.05         3582.56         3641.41 
      0.0921407         3155.19         3060.85         3136.59 
      0.0982031         2810.53         2668.09         2785.92 
       0.104506         2499.42          2409.9         2550.47 
       0.110769          2358.9         2265.44         2366.67 
       0.116806         2287.88         2178.85         2258.18 
       0.122832         2171.21         2094.26         2167.11 
       0.129052         2038.06         1974.35         2039.03 
       0.135211         1931.53         1814.82         1888.63 
       0.141259         1734.52         1634.25         1735.84 
       0.147318         1561.66         1455.82         1592.12 
       0.153489          1426.8         1300.54         1425.01 
       0.159709         1346.71         1183.84         1324.24 
       0.165845         1235.25         1107.41         1266.77 
       0.171974         1210.54         1059.43         1201.83 
       0.178125         1171.35         1025.06         1171.92 
       0.184229         1090.53         990.537          1121.7 
        0.19034         1064.76         946.298         1068.71 
       0.196428         1020.97         890.379         1008.34 
       0.202534         938.547         826.509           955.3 
       0.208729         910.636         761.318          889.29 
       0.214876         856.431         703.462         854.067 
       0.220989         801.569         656.926         815.215 
       0.227147         777.689          621.78         781.152 
        0.23329         746.237         596.068         758.256 
       0.239377         738.766         575.807         729.094 
       0.245482         700.637         556.524         697.802 
       0.251667         673.429         535.017          679.86 
       0.257832         659.788         510.489         649.964 
       0.263955          622.38         483.788         622.931 
       0.270079         596.878         456.673         598.712 
        0.27624          569.89         431.096         572.839 
       0.282372         556.665         408.817         555.145 
        0.28843         547.929         390.464         538.521 
       0.294538         519.363         375.176         521.636 
       0.300721         505.778         361.986         506.883 
        0.30691         494.339         349.774         496.784 
       0.313033         470.769         337.695         478.848 
       0.319153          463.36         325.054         464.231 
       0.325316          454.16         311.819         451.548 
        0.33145         441.464         298.522         433.368 
       0.337538         424.094         285.804         421.136 
       0.343633         411.974         274.009         414.388 
       0.349808         400.929         263.304         404.812 
       0.355968         392.874         253.832         395.693 
       0.362074         377.334         245.404         385.949 
       0.368217         374.486         237.553         373.926 
       0.374374         367.357         229.959         364.901 
       0.380519         351.867         222.462         355.211 
       0.386598         347.341         215.037         350.806 
       0.392688         337.288         207.654         339.481 
        0.39888          329.11         200.354         332.166 
       0.405048         320.559         193.422         325.758 
       0.411186         319.773         186.966         316.768 
       0.417313         313.915         181.003          309.87 
       0.423458         305.888         175.441         304.343 
       0.429607         295.836         170.213         298.507 
       0.435692         291.138         165.283         290.427 
       0.441815         285.717         160.473          287.32 
       0.447964           278.5         155.743         282.075 
       0.454126         275.146         151.115         273.603 
       0.460267          270.37         146.629         271.427 
       0.466387         263.564         142.313         266.105 
        0.47254         260.598         138.163         260.921 
       0.478662         254.283         134.248         255.501 
       0.484765          250.01         130.545         250.297 
       0.490885         247.302         127.006         246.178 
       0.497035         241.579           123.6         242.644 
       0.503198         240.389         120.317         238.921 
       0.509342         234.951          117.15         235.135 
       0.515458         230.333         114.084         232.037 
       0.521598         226.215         111.093         227.623 
       0.527764         223.319         108.186         225.056 
       0.533884          220.87         105.407         221.637 
           0.54         217.329         102.736         217.339 
       0.546137         212.246         100.159         214.705 
       0.552299         210.597         97.6695         210.831 
       0.558452         206.843         95.2779         207.853 
       0.564573         205.791         92.9836         205.968 
       0.570708         200.956         90.7609         203.367 
       0.576825          197.67         88.6138         199.067 
       0.582926         196.395         86.5348         196.995 
       0.589034         192.371         84.5144          194.71 
       0.595184         190.864         82.5428           190.8 
       0.601379         187.751         80.6217         188.764 
       0.607522         183.106         78.7808         185.738 
       0.613639         182.345         77.0093         184.904 
       0.619772         181.191         75.2908         182.922 
       0.625918         177.787          73.623          179.49 
       0.632068         175.324          72.005         177.108 
       0.638161         174.166          70.449          176.17 
         0.6443         171.341         68.9269         173.715 
       0.650464         168.985         67.4438         170.131 
       0.656582         166.952         66.0147         168.913 
       0.662703         166.198          64.627         167.028 
       0.668861          162.35         63.2719         165.561 
       0.675024         161.773         61.9553         163.703 
       0.681124         159.448         60.6901          161.19 
       0.687237         158.268         59.4581         159.449 
       0.693381         155.078         58.2549          157.44 
       0.699536         154.672          57.083          156.02 
       0.705665         152.613         55.9485         154.259 
       0.711789         150.162         54.8458         153.066 
       0.717957         149.237         53.7654         151.668 
        0.72409         146.966         52.7202         150.114 
       0.730186         147.427         51.7093         148.433 
       0.736317         145.132         50.7195         146.731 
       0.742472         143.268         49.7523         145.189 
       0.748622         141.353         48.8114         143.625 
        0.75476         141.262         47.8971         142.888 
       0.760888         139.334         47.0079         140.632 
       0.767043          136.91         46.1379         139.635 
       0.773185         135.342         45.2919         138.624 
       0.779291         134.598          44.472         136.831 
       0.785407          133.36         43.6714         135.417 
       0.791564         132.184         42.8855         134.343 
       0.797719         129.955         42.1195          133.46 
       0.803834         130.155          41.377         132.217 
       0.809972         128.396         40.6499         131.017 
       0.816124         126.156         39.9388         129.917 
       0.822261         125.435         39.2466         128.845 
       0.828378          124.81          38.573         127.354 
       0.834502         123.587         37.9147         126.183 
       0.840667         123.112         37.2676           125.2 
       0.846816         120.884         36.6375         124.321 
       0.852925         120.439          36.026         123.351 
       0.859047          119.01         35.4272         122.326 
       0.865192          118.35         34.8401         120.974 
       0.871341         117.357          34.266         119.987 
       0.877463          116.15         33.7075         119.329 
       0.883569         115.878         33.1629         118.741 
       0.889708         114.857         32.6276         117.329 
       0.895864         113.275         32.1028         116.629 
       0.902008          112.18         31.5907         115.469 
       0.908149         111.099         31.0902         114.584 
       0.914301         110.168         30.5997         113.582 
       0.920448         110.146         30.1202         112.906 
       0.926574         108.434         29.6528         111.862 
       0.932687         108.178         29.1963         111.289 
       0.938823         107.304         28.7479         110.331 
       0.944975         106.724         28.3078         109.496 
       0.951105         105.439         27.8786         108.607 
       0.957225         104.735         27.4591         107.841 
       0.963368         104.066         27.0468         106.995 
       0.969511         103.019          26.643         106.106 
       0.975621          101.48         26.2496         105.831 
       0.981748         101.374         25.8633         105.065 
       0.987916         100.696         25.4823         104.231 
        0.99406         99.8507         25.1104         103.346 
        1.00019         99.4069         24.7467         102.557 
        1.00632          98.369         24.3906         101.796 
        1.01246         97.6318          24.041         100.833 
        1.01859         96.8748         23.6988         100.538 
        1.02471         96.2439         23.3637         100.056 
        1.03085         95.5833          23.034         99.3585 
        1.03698         94.8039         22.7114         98.8127 
        1.04314         94.3459         22.3936         97.9684 
        1.04929         93.7636         22.0826         97.4226 
        1.05541         93.2145         21.7789         96.9228 
        1.06154         92.0811         21.4801         96.2539 
        1.06769         91.5616         21.1865         95.6811 
        1.07382         90.9214         20.8993         95.1395 
        1.07993         90.4895         20.6181         94.4464 
        1.08607         90.1887          20.341         93.7876 
        1.09222         89.0666         20.0686          93.327 
        1.09836         88.5654         19.8016         92.6039 
        1.10449         88.1117         19.5397         92.2696 
        1.11063         87.1797         19.2823         91.4278 
        1.11677         86.9626         19.0297         90.8567 
         1.1229         85.9725          18.782          90.388 
        1.12903         85.1906         18.5385         89.7775 
        1.13518         84.6763         18.2992         89.3118 
        1.14131         84.5232         18.0642         88.5543 
        1.14745         83.7503         17.8335         88.1735 
        1.15359         83.2429         17.6067         87.7344 
        1.15973         82.7969         17.3839         87.3188 
        1.16584         82.0773         17.1659         86.5656 
        1.17197         81.7161         16.9513         86.3135 
        1.17811         81.1349         16.7398         85.6753 
        1.18424           80.51         16.5325         85.0798 
        1.19038         80.1074         16.3281         84.8364 
        1.19652         79.5487         16.1273          84.241 
        1.20267         78.9108         15.9298         83.8396 
        1.20881         78.3452         15.7357         83.1854 
        1.21495         78.1653         15.5451         82.8785 
        1.22108         77.4738         15.3578         82.4596 
         1.2272         77.3902          15.174          81.918 
        1.23334         76.7732         14.9927         81.6934 
        1.23949         76.0962          14.814          81.037 
        1.24562          75.503         14.6388         80.3901 
        1.25174         75.6008         14.4666         80.0069 
        1.25789         74.7992         14.2967          79.576 
        1.26402         74.3656         14.1298         79.3418 
        1.27014         73.7301          13.966         78.9771 
        1.27628         73.5032         13.8043         78.6799 
        1.28244         73.1076         13.6449         78.0504 
        1.28858         72.6927         13.4882         77.6028 
        1.29471         72.1932         13.3343         77.2734 
        1.30084         71.6271         13.1829         76.6645 
        1.30697         71.1939         13.0337         76.3729 
        1.31312         70.9236         12.8866         76.0478 
        1.31925         70.2248         12.7422         75.6837 
        1.32537         69.8815         12.6001         75.3736 
        1.33151         69.7536         12.4597         74.9026 
        1.33765         69.1622         12.3216         74.5711 
        1.34378         68.8977         12.1858         74.2108 
        1.34992         68.3987         12.0519         73.7215 
        1.35606         68.2166         11.9198         73.3896 
         1.3622         67.7457         11.7899          73.085 
        1.36833         67.2617         11.6623         72.5748 
        1.37445         66.9102         11.5366         72.3744 
        1.38059         66.4392         11.4124          71.811 
        1.38675          66.173         11.2897         71.4928 
        1.39288         65.6876         11.1693         71.0686 
        1.39901          65.429         11.0507         70.8349 
        1.40515         64.9276         10.9336          70.638 
         1.4113         64.5518         10.8182         70.3623 
        1.41742         64.4408          10.705         69.9521 
        1.42355         63.9879         10.5931         69.4893 
         1.4297         63.5248         10.4825         69.2431 
        1.43585         63.3515         10.3735         68.7949 
        1.44198         62.7993         10.2665         68.6367 
        1.44809         62.4047         10.1612          68.274 
        1.45423         62.3621          10.057         67.8337 
        1.46036         61.7831         9.95447         67.5426 
        1.46649         61.4025         9.85331          67.321 
        1.47263         60.9819         9.75348         67.0115 
        1.47877         60.8559         9.65508         66.5474 
        1.48491         60.3813         9.55788           66.28 
        1.49104         60.0727         9.46223         66.1216 
        1.49718          59.684         9.36782         65.6738 
        1.50333         59.3788         9.27454         65.3262 
        1.50947         59.2161         9.18273         65.0872 
         1.5156         58.8299          9.0923         64.8068 
        1.52172          58.299         9.00309         64.4833 
        1.52787         58.1984          8.9149         64.1913 
          1.534         57.8996         8.82799         63.9874 
        1.54013         57.5456         8.74234         63.7027 
        1.54627         57.1843         8.65766         63.3667 
        1.55241         57.0463         8.57409         63.0759 
        1.55855          56.463         8.49174         62.8043 
        1.56467         56.1114          8.4107         62.5556 
         1.5708         55.8466         8.33049         62.2333 
        1.57695          55.598          8.2512         61.9723 
        1.58308         55.4138         8.17313         61.7505 
        1.58922         55.0836           8.096         61.4379 
        1.59535         54.9481         8.01991         61.2202 
         1.6015         54.4497         7.94468         60.9078 
        1.60764         54.1688         7.87046          60.602 
        1.61376         54.0699         7.79739         60.4692 
        1.61989         53.6152         7.72518         60.2089 
        1.62604         53.4656         7.65373         59.7602 
        1.63218         53.0152         7.58323         59.4772 
        1.63831         52.8767         7.51378         59.3968 
        1.64444         52.5722         7.44517         59.1077 
        1.65059         52.2456         7.37726         58.7934 
        1.65673         52.0398         7.31027         58.5327 
        1.66285         51.6995          7.2443         58.3382 
        1.66898         51.3197         7.17912         58.1441 
        1.67512         51.0681         7.11461         57.8498 
        1.68127         50.8629         7.05084         57.5833 
         1.6874         50.6986           6.988         57.3532 
        1.69353         50.3567         6.92596         57.0948 
        1.69967           50.09         6.86452         56.8702 
        1.70581         49.8422         6.80385         56.6526 
        1.71193         49.5827         6.74415         56.4351 
        1.71806         49.3011         6.68504         56.2306 
        1.72421         49.0347         6.62651         55.9762 
        1.73035         48.7816         6.56876         55.7089 
        1.73649         48.5355          6.5117         55.4691 
        1.74262         48.3041         6.45537         55.2516 
        1.74876         48.0399         6.39966         55.0289 
        1.75489         47.9082         6.34473         54.7926 
        1.76101         47.6223         6.29046         54.5553 
        1.76715         47.3321         6.23675         54.3426 
        1.77329         47.0994          6.1836         54.1385 
        1.77943         46.8495         6.13105         53.9253 
        1.78557         46.7207         6.07919         53.7024 
        1.79171         46.2686         6.02792         53.4805 
        1.79785         46.2462         5.97723         53.2607 
        1.80399         45.9712         5.92713         53.0409 
        1.81012         45.6434         5.87767         52.8267 
        1.81625         45.4967          5.8288         52.6011 
        1.82239         45.1167         5.78042         52.3882 
        1.82853         45.0491          5.7326         52.2218 
        1.83466         44.7449         5.68538         52.0089 
        1.84078         44.4343         5.63873         51.7823 
        1.84692         44.3517         5.59254         51.6489 
        1.85306         44.2548          5.5468         51.4229 
         1.8592         43.9266         5.50165         51.1448 
        1.86533         43.6728         5.45702         50.9628 
        1.87147          43.405         5.41284         50.7565 
        1.87761         43.1089         5.36912         50.5568 
