# k  (h/Mpc)    Pcb(k)  (Mpc/h)^3    Pcb_linear(k) (Mpc/h)^3    Pcb_NL(k) (Mpc/h)^3   ShotnoiseSubtracted = false
     0.00783031         2074.39         2091.79         2072.64 
       0.013688         2302.67         2331.42         2316.87 
       0.019231         2142.01         2152.97         2141.46 
      0.0249154         1818.95          1812.8          1807.2 
      0.0312784         1425.27         1422.39         1423.44 
      0.0375637         1119.55         1119.94         1121.81 
      0.0433917         936.147         932.066         933.908 
      0.0492413         818.013         817.093         818.784 
      0.0555754         747.678         744.264         744.669 
      0.0619321         686.402         691.657           691.4 
       0.067871         638.127         638.757          638.14 
      0.0738098         574.072         573.551         572.637 
      0.0800417         497.983          495.62         495.608 
      0.0862327         421.289          419.68         420.939 
      0.0921407         360.231         358.567           360.3 
      0.0982031         316.185         312.558         314.984 
       0.104506         283.084         282.313         284.961 
       0.110769         266.397         265.391         267.189 
       0.116806         257.529         255.248         256.447 
       0.122832         245.812         245.338         246.347 
       0.129052         232.477         231.292         232.093 
       0.135211         214.897         212.604         213.654 
       0.141259         192.965         191.451         193.002 
       0.147318          171.54         170.548          172.86 
       0.153489         154.121         152.357         154.431 
       0.159709          141.23         138.685         141.006 
       0.165845         130.678         129.732         132.409 
       0.171974          126.77         124.112         126.343 
       0.178125         122.202         120.086         122.381 
       0.184229         117.163         116.041           118.1 
        0.19034         112.784         110.859         112.724 
       0.196428         106.219         104.308         105.952 
       0.202534          97.559         96.8256         98.6949 
       0.208729         91.3041         89.1885         91.2147 
       0.214876         85.1257         82.4106         84.9213 
       0.220989         78.6456         76.9591         79.5721 
       0.227147         75.4382         72.8418         75.3483 
        0.23329         72.3638         69.8298         72.4072 
       0.239377         70.1233         67.4559         69.9153 
       0.245482          67.424         65.1971         67.3044 
       0.251667         64.4129         62.6776         64.9105 
       0.257832         62.3211         59.8039         61.9356 
       0.263955         58.5712          56.676         58.7649 
       0.270079         55.3671         53.4996         55.6362 
        0.27624          52.238         50.5034         52.6057 
       0.282372         49.7687         47.8936         50.1629 
        0.28843         48.2495         45.7432         48.0266 
       0.294538         46.1881         43.9522         46.1834 
       0.300721         44.2234          42.407         44.6552 
        0.30691         43.1523         40.9764         43.2055 
       0.313033         41.4677          39.561          41.657 
       0.319153         40.4155         38.0804         40.1705 
       0.325316          38.367         36.5299         38.6693 
        0.33145         36.7528         34.9721         37.0333 
       0.337538         35.3263         33.4822         35.5068 
       0.343633         34.0833         32.1005         34.1396 
       0.349808          32.714         30.8463          32.963 
       0.355968          31.538         29.7367         31.9738 
       0.362074         30.8042         28.7493         30.8659 
       0.368217          29.787         27.8295         29.7895 
       0.374374         29.0064         26.9399         28.9369 
       0.380519         27.8189         26.0617          27.977 
       0.386598         26.8568         25.1919         27.1214 
       0.392688         25.8894         24.3268         26.2596 
        0.39888         25.2453         23.4716         25.3958 
       0.405048         24.4839         22.6596          24.505 
       0.411186         23.6595         21.9033         23.8514 
       0.417313         22.9067         21.2047         23.0871 
       0.423458         22.1528         20.5531         22.4471 
       0.429607         21.7031         19.9406         21.7752 
       0.435692         21.2179         19.3632          21.202 
       0.441815         20.4118         18.7995         20.6791 
       0.447964         19.6697         18.2456         20.0454 
       0.454126         19.2948         17.7032         19.4681 
       0.460267         18.9256         17.1778         19.0005 
       0.466387         18.3281         16.6722         18.4137 
        0.47254         17.9415         16.1861         17.9461 
       0.478662         17.3368         15.7273         17.4573 
       0.484765         16.8961         15.2935          16.979 
       0.490885         16.3647         14.8789          16.639 
       0.497035         15.9744         14.4799         16.2585 
       0.503198         15.6503         14.0953         15.7723 
       0.509342         15.1401         13.7242         15.4133 
       0.515458         14.8595          13.365         15.1005 
       0.521598         14.4997         13.0146         14.6401 
       0.527764         14.2217         12.6742         14.2591 
       0.533884         13.7868         12.3485         13.9239 
           0.54         13.5019         12.0357         13.6024 
       0.546137         13.0686         11.7337         13.3267 
       0.552299         12.8036         11.4421         12.9471 
       0.558452         12.4789         11.1619          12.669 
       0.564573         12.2619         10.8932         12.4535 
       0.570708          11.965         10.6328         12.1672 
       0.576825         11.7373         10.3812         11.8876 
       0.582926         11.4612         10.1377         11.6431 
       0.589034         11.2095         9.90097         11.4377 
       0.595184          11.037            9.67         11.1029 
       0.601379         10.7142         9.44494         10.9513 
       0.607522         10.4882         9.22928         10.6822 
       0.613639         10.2656         9.02174          10.457 
       0.619772         10.0646         8.82042         10.2797 
       0.625918         9.84112         8.62504         10.0514 
       0.632068          9.6998         8.43548         9.82927 
       0.638161         9.46921          8.2532         9.64156 
         0.6443         9.28223         8.07489         9.43293 
       0.650464         9.04867         7.90113         9.29305 
       0.656582         8.94249         7.73372         9.10432 
       0.662703         8.78301         7.57114         8.91219 
       0.668861         8.54071         7.41239          8.7805 
       0.675024          8.3788         7.25815         8.57827 
       0.681124         8.33715         7.10993         8.41545 
       0.687237         8.13178          6.9656         8.24042 
       0.693381         7.91881         6.82464         8.08073 
       0.699536         7.84131         6.68735         7.95061 
       0.705665         7.66701         6.55444         7.84909 
       0.711789         7.50587         6.42526         7.67544 
       0.717957         7.33436         6.29869         7.52896 
        0.72409         7.25091         6.17625         7.41737 
       0.730186         7.18213         6.05781         7.27138 
       0.736317         6.99682         5.94187         7.13644 
       0.742472         6.90682         5.82855         7.04636 
       0.748622         6.77478         5.71833         6.92053 
        0.75476         6.58918         5.61122         6.79269 
       0.760888          6.5347         5.50704         6.68988 
       0.767043         6.38123         5.40512         6.58585 
       0.773185         6.28717         5.30601         6.47761 
       0.779291         6.23443         5.20996         6.37836 
       0.785407         6.10342         5.11617         6.26146 
       0.791564         6.00597          5.0241         6.16581 
       0.797719         5.87919         4.93436         6.05782 
       0.803834          5.8249         4.84738         5.95969 
       0.809972         5.70049          4.7622         5.89126 
       0.816124         5.61853         4.67888         5.78009 
       0.822261         5.53601          4.5978          5.6873 
       0.828378         5.45196         4.51889         5.60414 
       0.834502         5.36688         4.44177         5.51905 
       0.840667         5.30073         4.36596         5.43164 
       0.846816         5.17799         4.29214         5.35892 
       0.852925         5.12723          4.2205         5.28749 
       0.859047         5.03876         4.15035         5.21332 
       0.865192         4.95937         4.08157         5.13029 
       0.871341         4.88594         4.01432         5.06277 
       0.877463          4.8057         3.94889         4.98074 
       0.883569          4.7548         3.88509         4.90884 
       0.889708         4.67055         3.82238         4.84344 
       0.895864         4.60248          3.7609         4.76903 
       0.902008         4.52994          3.7009         4.70892 
       0.908149         4.45933         3.64226         4.63408 
       0.914301         4.40658          3.5848         4.58866 
       0.920448         4.34999         3.52863         4.50623 
       0.926574         4.30408         3.47387         4.45671 
       0.932687         4.22328         3.42039         4.36631 
       0.938823         4.14912         3.36785         4.32959 
       0.944975          4.1211          3.3163         4.26995 
       0.951105         4.03663         3.26602         4.20262 
       0.957225         4.00874         3.21687         4.16135 
       0.963368         3.94157         3.16857         4.09795 
       0.969511         3.88825         3.12127         4.04992 
       0.975621         3.83109         3.07519         3.98793 
       0.981748         3.76821         3.02992         3.93585 
       0.987916         3.72822         2.98529         3.89017 
        0.99406         3.68512         2.94172         3.84572 
        1.00019         3.64184         2.89912         3.80346 
        1.00632         3.60228         2.85739         3.74871 
        1.01246         3.54598         2.81644         3.71184 
        1.01859         3.49791         2.77635         3.65596 
        1.02471         3.44112          2.7371         3.59516 
        1.03085         3.41353         2.69847          3.5577 
        1.03698         3.36876         2.66067         3.52193 
        1.04314         3.32237         2.62344         3.47469 
        1.04929         3.27374         2.58702         3.43521 
        1.05541         3.23292         2.55143         3.39934 
        1.06154         3.19922         2.51642         3.35646 
        1.06769         3.17407         2.48203         3.32004 
        1.07382         3.11327         2.44839         3.27804 
        1.07993         3.07628         2.41544         3.23495 
        1.08607         3.05216         2.38298          3.2051 
        1.09222         3.00444         2.35107         3.16376 
        1.09836         2.98955         2.31979          3.1186 
        1.10449         2.92401         2.28911         3.08986 
        1.11063         2.90517         2.25896         3.05245 
        1.11677         2.87192         2.22936         3.01963 
         1.1229         2.83831         2.20034         2.98989 
        1.12903          2.8084         2.17182         2.96051 
        1.13518         2.76535         2.14378         2.92252 
        1.14131         2.73208         2.11625         2.88396 
        1.14745         2.69596         2.08922         2.85189 
        1.15359         2.66304         2.06266         2.82838 
        1.15973         2.63349         2.03655          2.7931 
        1.16584         2.61215         2.01101         2.76678 
        1.17197         2.57355         1.98587         2.73593 
        1.17811         2.54418         1.96109          2.7041 
        1.18424         2.51646         1.93681         2.67263 
        1.19038         2.49544         1.91286         2.64521 
        1.19652         2.46846         1.88933         2.62168 
        1.20267         2.44379          1.8662         2.58953 
        1.20881         2.40948         1.84346         2.56471 
        1.21495         2.38657         1.82114         2.54233 
        1.22108         2.35814         1.79919         2.51401 
         1.2272         2.32744         1.77765         2.48232 
        1.23334          2.3155         1.75642         2.46307 
        1.23949         2.28045         1.73549         2.44293 
        1.24562         2.25998         1.71496         2.41624 
        1.25174          2.2451         1.69479         2.38663 
        1.25789         2.20393         1.67488         2.36076 
        1.26402         2.18741         1.65533         2.33642 
        1.27014         2.16643         1.63614          2.3183 
        1.27628         2.13942          1.6172         2.29402 
        1.28244         2.12068         1.59852         2.26966 
        1.28858         2.10245         1.58016         2.24779 
        1.29471         2.07204         1.56213         2.22747 
        1.30084         2.05038          1.5444         2.21089 
        1.30697         2.03723         1.52692         2.18258 
        1.31312         2.01259         1.50968         2.16174 
        1.31925         1.99079         1.49277         2.14947 
        1.32537         1.97406         1.47613         2.12815 
        1.33151         1.95073         1.45968         2.10624 
        1.33765          1.9316         1.44349         2.08594 
        1.34378         1.92057         1.42758         2.06725 
        1.34992         1.89908         1.41191         2.04737 
        1.35606         1.88026         1.39643         2.02542 
         1.3622         1.86103         1.38121         2.00601 
        1.36833         1.83888         1.36626         1.99604 
        1.37445         1.81818         1.35153          1.9758 
        1.38059         1.80038         1.33698         1.95465 
        1.38675         1.78388         1.32261         1.93478 
        1.39288         1.77447          1.3085           1.924 
        1.39901         1.74876         1.29461         1.90506 
        1.40515         1.73565         1.28089         1.88697 
         1.4113         1.72046         1.26737         1.87202 
        1.41742         1.70224          1.2541         1.85494 
        1.42355          1.6853           1.241         1.83561 
         1.4297         1.67033         1.22804         1.82414 
        1.43585         1.65761         1.21528          1.8102 
        1.44198         1.63785         1.20274         1.79037 
        1.44809         1.62621         1.19041          1.7767 
        1.45423         1.60916          1.1782         1.75927 
        1.46036         1.59732         1.16618         1.74453 
        1.46649         1.57898         1.15433         1.73184 
        1.47263         1.56974         1.14264         1.71712 
        1.47877         1.55637         1.13111         1.69976 
        1.48491         1.53614         1.11972         1.68883 
        1.49104         1.52509         1.10852         1.67146 
        1.49718          1.5128         1.09746         1.65892 
        1.50333          1.4962         1.08653         1.64605 
        1.50947         1.48227         1.07577         1.63112 
         1.5156         1.47131         1.06518          1.6196 
        1.52172         1.45679         1.05473         1.60962 
        1.52787         1.44674          1.0444         1.58938 
          1.534         1.43319         1.03421          1.5782 
        1.54013         1.42179         1.02418         1.56628 
        1.54627         1.40608         1.01426          1.5518 
        1.55241         1.39353         1.00447         1.54036 
        1.55855         1.38362        0.994823         1.52606 
        1.56467         1.37393        0.985329         1.51673 
         1.5708         1.35872        0.975932         1.50537 
        1.57695         1.34503        0.966643         1.49124 
        1.58308         1.33182        0.957496         1.48074 
        1.58922         1.32701        0.948461         1.47043 
        1.59535         1.31218        0.939547         1.46035 
         1.6015         1.30017        0.930734         1.44799 
        1.60764         1.29344        0.922038         1.43617 
        1.61376         1.27734        0.913478         1.42691 
        1.61989         1.26586        0.905019         1.41563 
        1.62604         1.25626        0.896649         1.40438 
        1.63218          1.2488        0.888389          1.3949 
        1.63831         1.23936        0.880253         1.38485 
        1.64444         1.22677        0.872216         1.37231 
        1.65059         1.21972         0.86426         1.36269 
        1.65673         1.20593        0.856411         1.35218 
        1.66285         1.19616        0.848683         1.34108 
        1.66898         1.18603        0.841047         1.33132 
        1.67512         1.17648         0.83349          1.3222 
        1.68127         1.16776        0.826019         1.31466 
         1.6874         1.16009        0.818657         1.30687 
        1.69353         1.14814        0.811388         1.29594 
        1.69967         1.13764        0.804191          1.2839 
        1.70581         1.13252        0.797084         1.27545 
        1.71193         1.11735         0.79009         1.26854 
        1.71806         1.11354        0.783164         1.25727 
        1.72421         1.10562        0.776308         1.24776 
        1.73035         1.09317        0.769542         1.23961 
        1.73649         1.08662        0.762858         1.23106 
        1.74262         1.07807        0.756258         1.22273 
        1.74876         1.06961        0.749733         1.21559 
        1.75489            1.06        0.743297         1.20666 
        1.76101         1.05071        0.736939         1.19549 
        1.76715         1.04686        0.730647         1.18734 
        1.77329         1.03603        0.724421         1.17999 
        1.77943         1.02825        0.718264         1.17189 
        1.78557         1.02124        0.712188         1.16368 
        1.79171         1.01321        0.706182         1.15539 
        1.79785          1.0071        0.700243         1.14752 
        1.80399        0.997794        0.694374          1.1402 
        1.81012        0.991073        0.688581         1.13198 
        1.81625        0.980364        0.682856          1.1238 
        1.82239        0.975398        0.677187          1.1169 
        1.82853        0.968713        0.671586         1.11088 
        1.83466        0.958959        0.666053         1.10435 
        1.84078        0.951764        0.660588         1.09682 
        1.84692        0.944596        0.655176         1.08862 
        1.85306        0.938428        0.649818          1.0797 
         1.8592        0.930848        0.644528         1.07255 
        1.86533        0.925348          0.6393         1.06768 
        1.87147        0.919617        0.634124         1.06046 
