# k  (h/Mpc)    P(k)  (Mpc/h)^3    P_linear(k)  (Mpc/h)^3     P_NL(k)  ShotnoiseSubtracted = false
     0.00783031         5275.74          5315.9         5267.23 
       0.013688         5825.75          5922.9         5884.28 
       0.019231         5427.23         5468.88         5437.37 
      0.0249154         4628.22         4604.49         4587.54 
      0.0312784         3616.71         3612.69         3612.22 
      0.0375637         2837.15         2844.43         2847.29 
      0.0433917         2378.58         2367.23         2369.91 
      0.0492413          2076.5          2075.2         2078.01 
      0.0555754         1901.67         1890.22         1890.57 
      0.0619321         1735.58          1756.6         1755.62 
       0.067871         1619.22         1622.25         1621.07 
      0.0738098         1459.64         1456.64         1453.14 
      0.0800417          1268.7         1258.71          1259.1 
      0.0862327         1073.38         1065.85         1072.57 
      0.0921407         920.469         910.638         919.375 
      0.0982031         811.485         793.789         806.673 
       0.104506         724.068         716.978         731.821 
       0.110769         682.135             674         684.363 
       0.116806         661.255         648.241         656.024 
       0.122832         629.118         623.073         630.209 
       0.129052         594.928           587.4         593.512 
       0.135211         553.352         539.938         547.331 
       0.141259         496.589         486.217          496.35 
       0.147318         441.912          433.13         447.409 
       0.153489         398.881         386.932         399.583 
       0.159709         368.565         352.211         366.378 
       0.165845         339.155         329.473         345.927 
       0.171974         331.433         315.199         329.268 
       0.178125         319.316         304.975         319.628 
       0.184229         303.773         294.703         307.955 
        0.19034         293.529         281.541         293.693 
       0.196428         277.824         264.904         275.859 
       0.202534         254.133         245.902         258.145 
       0.208729         241.012         226.506         239.314 
       0.214876         225.828         209.293         224.962 
       0.220989         208.225         195.448         211.766 
       0.227147         201.171         184.991         200.883 
        0.23329         193.118         177.342         193.681 
       0.239377         188.158         171.314         186.867 
       0.245482         179.834         165.577         179.228 
       0.251667         171.737         159.178         173.533 
       0.257832         167.687          151.88         165.588 
       0.263955         156.955         143.936         157.453 
       0.270079         148.762         135.869          149.73 
        0.27624          140.97          128.26         141.911 
       0.282372         135.179         121.631         136.027 
        0.28843         132.479         116.171         130.618 
       0.294538          126.18         111.622         125.938 
       0.300721         120.915         107.698         122.128 
        0.30691          118.53         104.065         118.414 
       0.313033         113.266         100.471         114.059 
       0.319153          110.82           96.71         110.181 
       0.325316         106.091         92.7725         106.491 
        0.33145         101.988         88.8161          102.04 
       0.337538         97.9916         85.0325          98.063 
       0.343633         94.5883         81.5231         94.9539 
       0.349808         91.1495         78.3383         92.0883 
       0.355968         88.4035         75.5201         89.6345 
       0.362074         86.3428         73.0126         86.6672 
       0.368217         83.9618         70.6767         83.6135 
       0.374374         81.6168         68.4174         81.3281 
       0.380519         78.1326         66.1869         78.7479 
       0.386598           75.94          63.978         76.6191 
       0.392688         73.2679         61.7811         74.3711 
        0.39888         71.8047         59.6092         72.0263 
       0.405048         69.7775         57.5471         69.9426 
       0.411186          67.946         55.6261          68.202 
       0.417313         65.9108          53.852         66.0261 
       0.423458         64.0703         52.1971         64.4269 
       0.429607          62.616         50.6418         62.7171 
       0.435692         61.5084         49.1751          61.135 
       0.441815         59.2441          47.744          59.899 
       0.447964         57.1334         46.3368         58.1624 
       0.454126         56.0731         44.9597         56.4349 
       0.460267         55.3767         43.6251         55.4399 
       0.466387         53.7268         42.3411         53.8432 
        0.47254         52.8972         41.1064         52.6622 
       0.478662         50.9333         39.9416         51.4222 
       0.484765         49.8934         38.8398         49.9424 
       0.490885         48.4648         37.7868         49.1157 
       0.497035         47.8029         36.7736         48.1791 
       0.503198         46.6963         35.7968         46.9054 
       0.509342         45.3368         34.8545         45.9938 
       0.515458         44.5044         33.9422         45.2396 
       0.521598          43.367         33.0523         43.8668 
       0.527764         42.7376         32.1877         42.7332 
       0.533884         42.0176         31.3607         41.9357 
           0.54         40.8901         30.5662         41.1116 
       0.546137         39.6803         29.7993         40.4062 
       0.552299         38.8788         29.0587         39.3204 
       0.558452         38.0373         28.3471         38.4915 
       0.564573         37.6556         27.6645         37.9559 
       0.570708         36.5671         27.0032         37.2297 
       0.576825         36.1115         26.3644         36.4547 
       0.582926         35.5003         25.7459         35.7485 
       0.589034         34.6925         25.1448          35.254 
       0.595184         34.1516         24.5582         34.4285 
       0.601379         33.2565         23.9866         33.9372 
       0.607522         32.5566         23.4389         33.0838 
       0.613639         32.1542         22.9118         32.5813 
       0.619772          31.432         22.4006         32.0169 
       0.625918          30.939         21.9044         31.5243 
       0.632068         30.5126          21.423         30.8903 
       0.638161         29.8319           20.96         30.3767 
         0.6443         29.4632         20.5072         29.7798 
       0.650464         28.6734         20.0659         29.2812 
       0.656582         28.4761         19.6407         28.8623 
       0.662703         27.9703         19.2279         28.2868 
       0.668861         27.2925         18.8247         27.9436 
       0.675024         26.9766          18.433         27.3441 
       0.681124         26.6961         18.0566         26.9147 
       0.687237          26.124           17.69         26.4772 
       0.693381         25.6496          17.332         25.9995 
       0.699536         25.4003         16.9834         25.7413 
       0.705665         24.9013         16.6458         25.3766 
       0.711789         24.4817         16.3178         24.7947 
       0.717957         23.9815         15.9963         24.5305 
        0.72409         23.7053         15.6854         24.1993 
       0.730186         23.5252         15.3846         23.8061 
       0.736317         23.0277         15.0901         23.4124 
       0.742472         22.7355         14.8023          23.104 
       0.748622         22.3171         14.5224          22.731 
        0.75476         21.8461         14.2504         22.4279 
       0.760888         21.7732         13.9858         22.1223 
       0.767043          21.297          13.727         21.8579 
       0.773185         20.9918         13.4753         21.5303 
       0.779291         20.7134         13.2313         21.2613 
       0.785407         20.4299         12.9931         20.9096 
       0.791564         20.3106         12.7593         20.6343 
       0.797719         19.7848         12.5314         20.4228 
       0.803834         19.7008         12.3105         20.0824 
       0.809972         19.3281         12.0942         19.8244 
       0.816124         19.0999         11.8826         19.5675 
       0.822261         18.8221         11.6767         19.2899 
       0.828378         18.6555         11.4763         18.9963 
       0.834502         18.4109         11.2804         18.8285 
       0.840667         18.1928         11.0879          18.579 
       0.846816         17.8421         10.9004          18.342 
       0.852925          17.709         10.7185         18.1799 
       0.859047         17.5194         10.5403         17.9084 
       0.865192         17.2335         10.3657         17.6741 
       0.871341         17.0216         10.1949         17.4897 
       0.877463         16.7896         10.0287         17.2767 
       0.883569          16.659         9.86666         17.0751 
       0.889708          16.407          9.7074         16.8617 
       0.895864         16.1763         9.55127         16.6306 
       0.902008         16.0177          9.3989          16.458 
       0.908149         15.7691         9.24997         16.3061 
       0.914301         15.6307         9.10404         16.1715 
       0.920448         15.4406          8.9614         15.9071 
       0.926574         15.2661         8.82233         15.7119 
       0.932687         15.0459         8.68651         15.5277 
       0.938823         14.8212         8.55308          15.337 
       0.944975         14.7097         8.42216         15.1957 
       0.951105         14.5667         8.29447         14.9978 
       0.957225         14.4234         8.16964         14.8575 
       0.963368         14.1997         8.04698         14.6834 
       0.969511         14.0519         7.92684         14.5139 
       0.975621         13.9308         7.80981         14.3879 
       0.981748         13.7324         7.69486         14.2397 
       0.987916         13.6337          7.5815         14.0728 
        0.99406         13.4266         7.47087         13.9234 
        1.00019         13.3296         7.36266         13.7835 
        1.00632         13.2197         7.25671         13.6535 
        1.01246         13.0321         7.15269          13.533 
        1.01859         12.8979         7.05089         13.4045 
        1.02471         12.7606          6.9512         13.2418 
        1.03085         12.6716          6.8531         13.0981 
        1.03698         12.5627         6.75711         12.9722 
        1.04314         12.3854         6.66256          12.831 
        1.04929         12.2076         6.57005         12.7425 
        1.05541         12.1455         6.47967         12.6535 
        1.06154         12.0358         6.39077          12.477 
        1.06769         11.8667         6.30341         12.3337 
        1.07382         11.7465         6.21798         12.2441 
        1.07993         11.6481         6.13432         12.1231 
        1.08607         11.5376         6.05186         12.0218 
        1.09222          11.416         5.97083         11.9295 
        1.09836         11.2908         5.89139         11.7974 
        1.10449         11.2213         5.81348          11.676 
        1.11063         11.1228          5.7369         11.5728 
        1.11677         11.0413         5.66173         11.4525 
         1.1229         10.9083         5.58804         11.3754 
        1.12903          10.785          5.5156         11.2736 
        1.13518         10.7196         5.44438           11.16 
        1.14131         10.6227         5.37447         11.0599 
        1.14745         10.4671         5.30583         10.9757 
        1.15359         10.3473         5.23837         10.8511 
        1.15973         10.2947         5.17207         10.7767 
        1.16584         10.1838         5.10721         10.6858 
        1.17197         10.0676         5.04337         10.6296 
        1.17811         10.0045         4.98044         10.4753 
        1.18424          9.9041         4.91876          10.405 
        1.19038         9.85737         4.85795         10.3421 
        1.19652         9.71714          4.7982         10.2244 
        1.20267         9.68305         4.73945         10.1569 
        1.20881         9.54566          4.6817         10.0721 
        1.21495         9.49444         4.62501         9.99153 
        1.22108         9.42055         4.56926         9.90977 
         1.2272         9.32503         4.51457         9.83093 
        1.23334         9.27579         4.46065         9.75734 
        1.23949         9.18263         4.40749         9.66002 
        1.24562         9.06752         4.35534         9.58678 
        1.25174         9.03799         4.30412         9.51797 
        1.25789         8.95943         4.25357         9.43901 
        1.26402         8.87225         4.20392         9.35316 
        1.27014         8.82085         4.15518         9.28734 
        1.27628         8.72041         4.10708         9.19988 
        1.28244         8.69194         4.05964         9.15803 
        1.28858         8.58456         4.01302         9.07938 
        1.29471         8.49796         3.96723         9.01187 
        1.30084          8.4253          3.9222         8.96706 
        1.30697          8.3791          3.8778         8.87809 
        1.31312         8.31463         3.83403         8.80912 
        1.31925         8.26008         3.79106         8.75759 
        1.32537         8.17276          3.7488           8.698 
        1.33151          8.1078         3.70703         8.63045 
        1.33765         8.06929         3.66593         8.55448 
        1.34378         8.00914         3.62553         8.49383 
        1.34992          7.9266         3.58571         8.44455 
        1.35606          7.8505          3.5464         8.37046 
         1.3622         7.79708         3.50775         8.30717 
        1.36833         7.76368         3.46978           8.273 
        1.37445         7.69879         3.43238         8.19935 
        1.38059         7.62614         3.39542          8.1324 
        1.38675         7.59302         3.35892         8.09447 
        1.39288         7.51366          3.3231         8.02538 
        1.39901         7.44692         3.28782         7.96965 
        1.40515         7.40796         3.25298         7.91277 
         1.4113         7.35076         3.21865          7.8595 
        1.41742         7.30432         3.18495         7.82012 
        1.42355         7.23536         3.15167         7.76774 
         1.4297         7.18797         3.11876         7.69907 
        1.43585         7.13462         3.08634         7.65953 
        1.44198         7.10597         3.05451         7.60982 
        1.44809         7.04507         3.02318         7.56053 
        1.45423         6.98723         2.99218         7.49816 
        1.46036         6.93599         2.96166         7.44705 
        1.46649          6.8898         2.93157         7.41221 
        1.47263         6.84144         2.90187         7.37557 
        1.47877         6.78091         2.87259         7.31377 
        1.48491         6.74806         2.84367         7.25795 
        1.49104         6.70025         2.81521         7.21529 
        1.49718         6.66394         2.78712         7.17827 
        1.50333         6.62613         2.75937         7.13239 
        1.50947         6.56671         2.73206         7.08964 
         1.5156         6.53297         2.70515         7.04775 
        1.52172         6.46974         2.67861         6.99787 
        1.52787         6.46007         2.65237         6.94798 
          1.534         6.39914         2.62651         6.90628 
        1.54013         6.36262         2.60103         6.85853 
        1.54627         6.30787         2.57584         6.81189 
        1.55241         6.24694         2.55097         6.77388 
        1.55855         6.23215         2.52647         6.73649 
        1.56467         6.19413         2.50236         6.70286 
         1.5708         6.15151          2.4785         6.66494 
        1.57695         6.11069         2.45491          6.6202 
        1.58308         6.07128         2.43168         6.58346 
        1.58922         6.03254         2.40873         6.55268 
        1.59535         5.99656         2.38609         6.51155 
         1.6015         5.93297         2.36371         6.46828 
        1.60764         5.90245         2.34163         6.42758 
        1.61376         5.87517         2.31989         6.39232 
        1.61989         5.82828         2.29841         6.36489 
        1.62604         5.80728         2.27715         6.32773 
        1.63218         5.76548         2.25617         6.29165 
        1.63831         5.72634         2.23551         6.26141 
        1.64444         5.68521          2.2151         6.22189 
        1.65059         5.64519         2.19489         6.18107 
        1.65673         5.62322         2.17496         6.14958 
        1.66285           5.575         2.15533         6.11715 
        1.66898          5.5576         2.13594         6.07522 
        1.67512         5.53418         2.11675         6.04097 
        1.68127         5.47652         2.09778         6.01306 
         1.6874         5.46717         2.07908         5.98161 
        1.69353         5.40059         2.06062         5.94208 
        1.69967         5.38356         2.04234         5.91069 
        1.70581         5.34896         2.02429         5.88094 
        1.71193         5.31566         2.00653         5.85255 
        1.71806          5.2859         1.98894         5.83038 
        1.72421         5.25433         1.97153         5.79711 
        1.73035         5.23418         1.95435          5.7666 
        1.73649         5.20392         1.93737          5.7403 
        1.74262         5.15756         1.92061         5.69861 
        1.74876         5.14079         1.90404         5.66576 
        1.75489         5.11265         1.88769         5.63694 
        1.76101         5.06243         1.87155         5.60526 
        1.76715         5.06098         1.85557         5.58551 
        1.77329         5.01557         1.83975         5.55546 
        1.77943         4.97901         1.82412         5.51878 
        1.78557         4.97981         1.80869         5.49079 
        1.79171         4.93513         1.79343         5.46153 
        1.79785         4.90774         1.77835         5.43281 
        1.80399         4.88819         1.76345         5.41072 
        1.81012         4.84789         1.74873         5.38893 
        1.81625         4.82636         1.73419         5.36402 
        1.82239         4.79664          1.7198         5.33748 
        1.82853          4.7593         1.70557         5.31164 
        1.83466         4.73193         1.69152         5.28738 
        1.84078         4.70346         1.67764         5.26166 
        1.84692         4.69741          1.6639         5.23049 
        1.85306          4.6635         1.65029         5.20115 
         1.8592          4.6443         1.63686         5.17746 
        1.86533         4.60756         1.62358         5.15393 
        1.87147         4.59094         1.61043         5.12554 
        1.87761         4.56866         1.59743         5.10337 
