# k  (h/Mpc)    Pcb(k)  (Mpc/h)^3    Pcb_linear(k) (Mpc/h)^3    Pcb_NL(k) (Mpc/h)^3   ShotnoiseSubtracted = false
     0.00783031         3496.31         3524.27         3492.05 
       0.013688         3871.06          3927.3         3902.32 
       0.019231         3603.61         3626.48         3606.42 
      0.0249154         3066.54         3053.38         3043.17 
      0.0312784         2399.67         2395.74         2396.63 
      0.0375637         1883.63          1886.3         1888.91 
      0.0433917         1577.12         1569.85         1572.39 
      0.0492413         1377.42          1376.2         1378.64 
      0.0555754          1260.3         1253.53         1254.04 
      0.0619321         1153.59         1164.92         1164.43 
       0.067871         1074.43         1075.82         1074.93 
      0.0738098         967.463         965.999         964.152 
      0.0800417         840.061         834.742         834.877 
      0.0862327         710.622          706.84         710.019 
      0.0921407         608.358         603.911         608.123 
      0.0982031         535.112         526.421         532.496 
       0.104506         478.216         475.481         482.341 
       0.110769         450.278          446.98          451.72 
       0.116806         435.949         429.897         433.321 
       0.122832         415.401         413.206         416.271 
       0.129052          392.94         389.549         392.116 
       0.135211         364.245         358.074         361.259 
       0.141259         326.946         322.447         326.901 
       0.147318         290.705         287.242          293.64 
       0.153489         261.754         256.604         262.283 
       0.159709         240.776         233.578          239.93 
       0.165845         222.137         218.499         225.871 
       0.171974         216.348         209.032         215.269 
       0.178125         208.458         202.252         208.726 
       0.184229         199.153          195.44         201.292 
        0.19034         192.067         186.711         192.052 
       0.196428         181.281         175.678         180.434 
       0.202534         166.108         163.076         168.424 
       0.208729         156.457         150.214         155.901 
       0.214876         146.261         138.798         145.793 
       0.220989         134.909         129.616         136.893 
       0.227147         129.906         122.682         129.716 
        0.23329         124.665         117.609         124.846 
       0.239377         121.095         113.611         120.516 
       0.245482         116.092         109.807         115.798 
       0.251667         110.847         105.563          111.89 
       0.257832         107.777         100.723         106.764 
       0.263955          101.04         95.4551         101.391 
       0.270079         95.6259         90.1053         96.1823 
        0.27624         90.3953          85.059          91.037 
       0.282372         86.3764         80.6636         87.0387 
        0.28843          84.211         77.0418         83.4462 
       0.294538         80.4248         74.0253         80.3317 
       0.300721         76.9776         71.4229         77.7834 
        0.30691         75.3086         69.0135         75.3265 
       0.313033         72.1748         66.6297         72.5874 
       0.319153         70.5056         64.1359          70.059 
       0.325316         67.1325         61.5246         67.5748 
        0.33145         64.3897         58.9008         64.7312 
       0.337538         61.8973         56.3916          62.124 
       0.343633         59.7507         54.0644         59.9087 
       0.349808         57.4478         51.9521         57.9749 
       0.355968         55.5233         50.0832         56.3491 
       0.362074         54.2954         48.4203         54.4219 
       0.368217         52.6029         46.8711         52.4972 
       0.374374         51.1901         45.3729         51.0391 
       0.380519         49.0302         43.8938         49.3714 
       0.386598         47.4611         42.4287         47.9342 
       0.392688         45.7681         40.9719         46.4836 
        0.39888          44.769         39.5315         44.9796 
       0.405048          43.472         38.1639         43.5067 
       0.411186         42.1239         36.8901         42.4209 
       0.417313         40.8025         35.7134         41.0524 
       0.423458          39.563          34.616         39.9887 
       0.429607         38.7468         33.5845         38.8415 
       0.435692         37.9927         32.6119         37.8479 
       0.441815         36.5022         31.6626          36.995 
       0.447964         35.1779         30.7296         35.8758 
       0.454126         34.5397         29.8162         34.8339 
       0.460267          34.011         28.9312         34.1058 
       0.466387         32.9606         28.0796         33.0736 
        0.47254          32.364          27.261         32.3003 
       0.478662         31.2031         26.4883         31.4726 
       0.484765          30.475         25.7577         30.5886 
       0.490885          29.536         25.0594         30.0383 
       0.497035         28.9921         24.3875         29.4096 
       0.503198         28.3563         23.7397         28.5615 
       0.509342         27.4715         23.1147         27.9614 
       0.515458         26.9799         22.5097          27.456 
       0.521598         26.3105         21.9196         26.6073 
       0.527764         25.8585         21.3462         25.9007 
       0.533884         25.2341         20.7977         25.3504 
           0.54         24.6538         20.2708         24.8144 
       0.546137         23.8631         19.7623         24.3495 
       0.552299         23.3864         19.2711         23.6693 
       0.558452         22.8217         18.7992          23.166 
       0.564573         22.5174         18.3465         22.8099 
       0.570708         21.9168         17.9079         22.3284 
       0.576825           21.58         17.4843         21.8428 
       0.582926         21.1382         17.0741         21.4048 
       0.589034          20.651         16.6754         21.0676 
       0.595184         20.3423         16.2864         20.5005 
       0.601379         19.7657         15.9074          20.223 
       0.607522          19.361         15.5442         19.7139 
       0.613639         19.0348         15.1946         19.3494 
       0.619772           18.63         14.8556         19.0279 
       0.625918         18.2525         14.5265         18.6692 
       0.632068         18.0338         14.2072         18.2668 
       0.638161         17.6072         13.9002         17.9355 
         0.6443         17.3124         13.5999         17.5636 
       0.650464         16.8476         13.3073         17.3047 
       0.656582         16.6938         13.0253         16.9939 
       0.662703         16.4112         12.7515         16.6426 
       0.668861         15.9772         12.4841         16.4288 
       0.675024          15.715         12.2244         16.0452 
       0.681124         15.6149         11.9747         15.7718 
       0.687237         15.2578         11.7316         15.4776 
       0.693381         14.9056         11.4942         15.1887 
       0.699536         14.7777          11.263         14.9878 
       0.705665         14.4462         11.0391         14.7846 
       0.711789         14.1867         10.8216         14.4481 
       0.717957         13.8553         10.6084         14.2333 
        0.72409         13.7101         10.4022         14.0317 
       0.730186          13.603         10.2027         13.7741 
       0.736317         13.2797         10.0074         13.5366 
       0.742472         13.1129         9.81658         13.3657 
       0.748622         12.8561         9.63094         13.1279 
        0.75476         12.5174         9.45055         12.9262 
       0.760888          12.456         9.27509         12.7479 
       0.767043         12.1938         9.10343           12.56 
       0.773185         12.0182          8.9365         12.3554 
       0.779291         11.8765         8.77473         12.1914 
       0.785407         11.6766         8.61676          11.982 
       0.791564         11.5477         8.46171         11.8134 
       0.797719         11.2553         8.31056         11.6425 
       0.803834         11.2041         8.16407         11.4486 
       0.809972         10.9593          8.0206         11.3129 
       0.816124         10.8199         7.88029         11.1282 
       0.822261         10.6709         7.74372         10.9639 
       0.828378         10.5346         7.61081         10.8008 
       0.834502         10.3927         7.48093         10.6725 
       0.840667         10.2627         7.35325         10.5074 
       0.846816         10.0241         7.22892         10.3682 
       0.852925         9.96636         7.10826         10.2679 
       0.859047         9.80701         6.99012         10.1118 
       0.865192         9.65681         6.87428         9.96365 
       0.871341         9.52437         6.76101         9.84973 
       0.877463         9.38073         6.65081         9.70929 
       0.883569         9.29568         6.54335         9.57158 
       0.889708         9.12951         6.43774         9.45367 
       0.895864         8.99759         6.33419         9.31597 
       0.902008         8.89106         6.23315         9.21259 
       0.908149           8.738         6.13438         9.09108 
       0.914301         8.66446          6.0376         9.01818 
       0.920448         8.53586           5.943          8.8576 
       0.926574         8.45679         5.85077          8.7508 
       0.932687         8.30951          5.7607         8.60516 
       0.938823         8.18395         5.67222         8.51918 
       0.944975         8.12783         5.58539         8.43024 
       0.951105         8.00621         5.50071         8.29258 
       0.957225         7.93867         5.41793         8.22584 
       0.963368          7.7939         5.33658         8.11245 
       0.969511         7.70149         5.25691         8.01958 
       0.975621         7.61758          5.1793         7.92145 
       0.981748          7.5036         5.10306         7.82956 
       0.987916         7.44081         5.02789         7.72817 
        0.99406         7.33201         4.95451          7.6498 
        1.00019         7.26571         4.88276         7.57262 
        1.00632         7.19902         4.81249         7.48162 
        1.01246          7.0889         4.74351         7.42092 
        1.01859         7.00442         4.67599         7.32032 
        1.02471         6.90824         4.60988         7.20779 
        1.03085         6.86313         4.54483         7.13868 
        1.03698         6.78621         4.48117         7.07077 
        1.04314          6.6835         4.41846         6.98418 
        1.04929         6.58678         4.35711         6.91955 
        1.05541         6.53091         4.29717         6.85774 
        1.06154         6.46156         4.23822         6.76485 
        1.06769         6.40206         4.18028          6.6858 
        1.07382         6.29227         4.12363         6.62383 
        1.07993         6.23653         4.06815         6.54987 
        1.08607         6.18437         4.01346         6.48799 
        1.09222         6.09871         3.95973         6.42324 
        1.09836         6.05356         3.90704         6.33533 
        1.10449         5.96641         3.85537         6.27397 
        1.11063         5.93148         3.80459         6.21554 
        1.11677         5.86732         3.75473         6.14574 
         1.1229         5.80362         3.70586         6.09461 
        1.12903         5.73743         3.65782         6.04336 
        1.13518         5.66614          3.6106         5.97225 
        1.14131          5.6125         3.56423         5.90616 
        1.14745         5.52165         3.51871         5.84814 
        1.15359         5.46192         3.47397         5.78854 
        1.15973         5.41938            3.43         5.73047 
        1.16584         5.36449         3.38699         5.68481 
        1.17197         5.29756         3.34466         5.63843 
        1.17811         5.25016         3.30292         5.56247 
        1.18424          5.2059         3.26201         5.51347 
        1.19038         5.16855         3.22169         5.46394 
        1.19652         5.10551         3.18206         5.40791 
        1.20267         5.06686          3.1431         5.36073 
        1.20881         4.98601          3.1048         5.31499 
        1.21495         4.95374          3.0672         5.26512 
        1.22108         4.89973         3.03024         5.21876 
         1.2272            4.85         2.99397          5.1596 
        1.23334         4.82443         2.95821         5.12106 
        1.23949         4.76603         2.92295          5.0774 
        1.24562         4.71449         2.88837         5.02729 
        1.25174         4.68803          2.8544         4.98207 
        1.25789         4.61568         2.82087         4.93074 
        1.26402         4.58356         2.78795         4.88833 
        1.27014         4.55689         2.75563          4.8491 
        1.27628          4.4939         2.72372         4.79862 
        1.28244         4.46897         2.69227         4.76398 
        1.28858         4.42157         2.66135         4.72063 
        1.29471         4.36622         2.63098         4.68596 
        1.30084         4.32666         2.60112         4.65475 
        1.30697         4.30544         2.57167         4.59862 
        1.31312         4.25662         2.54264         4.56202 
        1.31925         4.21995         2.51415         4.53629 
        1.32537          4.1803         2.48612         4.49861 
        1.33151          4.1416         2.45842         4.45671 
        1.33765         4.10232         2.43116         4.41194 
        1.34378         4.08782         2.40437         4.37621 
        1.34992         4.03985         2.37796          4.3453 
        1.35606         4.00025          2.3519         4.30473 
         1.3622         3.96055         2.32627         4.26452 
        1.36833         3.93555         2.30108         4.24827 
        1.37445         3.89658         2.27628         4.20634 
        1.38059         3.85297         2.25177         4.16376 
        1.38675         3.82835         2.22756         4.13833 
        1.39288         3.79739         2.20381            4.11 
        1.39901         3.75443         2.18041         4.07462 
        1.40515         3.72661          2.1573         4.04015 
         1.4113         3.69567         2.13454         4.00923 
        1.41742         3.67369         2.11219         3.98017 
        1.42355         3.63062         2.09012         3.94903 
         1.4297         3.60122          2.0683         3.91512 
        1.43585         3.57996          2.0468         3.89126 
        1.44198         3.54602         2.02568         3.85655 
        1.44809         3.51618         2.00491         3.82845 
        1.45423          3.4849         1.98435         3.80061 
        1.46036          3.4613         1.96411         3.77134 
        1.46649         3.43522         1.94415         3.74599 
        1.47263         3.40682         1.92445          3.7201 
        1.47877         3.37697         1.90504         3.68367 
        1.48491         3.35584         1.88586         3.66101 
        1.49104         3.32621         1.86699         3.63674 
        1.49718         3.30478         1.84836          3.6081 
        1.50333         3.27327         1.82996         3.58155 
        1.50947         3.24533         1.81184         3.55707 
         1.5156          3.2248           1.794         3.53411 
        1.52172         3.19339          1.7764         3.50912 
        1.52787         3.17844         1.75899         3.47419 
          1.534         3.14651         1.74185         3.45245 
        1.54013         3.13274         1.72495         3.42825 
        1.54627         3.10028         1.70824         3.40311 
        1.55241         3.07019         1.69175         3.38157 
        1.55855         3.05747          1.6755         3.35165 
        1.56467         3.04106         1.65951          3.3346 
         1.5708         3.00277         1.64369         3.31712 
        1.57695         2.98051         1.62804         3.28711 
        1.58308         2.95533         1.61264         3.26422 
        1.58922         2.94597         1.59742         3.24966 
        1.59535         2.92268         1.58241          3.2303 
         1.6015          2.8867         1.56756         3.20361 
        1.60764         2.87218         1.55292         3.17877 
        1.61376         2.85382          1.5385         3.16093 
        1.61989         2.82543         1.52425         3.14121 
        1.62604         2.81358         1.51016         3.11927 
        1.63218         2.79295         1.49624         3.10122 
        1.63831          2.7715         1.48254         3.08279 
        1.64444         2.74876           1.469         3.05667 
        1.65059         2.72932         1.45561         3.03786 
        1.65673         2.71456         1.44239         3.01935 
        1.66285         2.69211         1.42937         2.99889 
        1.66898          2.6755         1.41651         2.97851 
        1.67512          2.6571         1.40378         2.95948 
        1.68127         2.62911          1.3912         2.94288 
         1.6874         2.61533          1.3788          2.9281 
        1.69353         2.59297         1.36656         2.91089 
        1.69967          2.5784         1.35444          2.8857 
        1.70581         2.55741         1.34247         2.86744 
        1.71193         2.54291         1.33069         2.85544 
        1.71806         2.52394         1.31902         2.83526 
        1.72421         2.50665         1.30748         2.81638 
        1.73035         2.49067         1.29608         2.79951 
        1.73649         2.47484         1.28482         2.78246 
        1.74262         2.45273         1.27371         2.76583 
        1.74876         2.44241         1.26272         2.74998 
        1.75489         2.42408         1.25188         2.73161 
        1.76101         2.40185         1.24117         2.71168 
        1.76715         2.39849         1.23057         2.69825 
        1.77329          2.3756         1.22009         2.68344 
        1.77943         2.35244         1.20972         2.66585 
        1.78557         2.34971         1.19948         2.64927 
        1.79171          2.3282         1.18937         2.63217 
        1.79785         2.31796         1.17937         2.61621 
        1.80399         2.29716         1.16948         2.60326 
        1.81012         2.28504         1.15972         2.58992 
        1.81625         2.26678         1.15008         2.57479 
        1.82239         2.25518         1.14053         2.56033 
        1.82853         2.23714          1.1311          2.5485 
        1.83466         2.21655         1.12178         2.53462 
        1.84078          2.2038         1.11258         2.51801 
        1.84692         2.19076         1.10346         2.50189 
        1.85306         2.17587         1.09444         2.48454 
         1.8592          2.1665         1.08553         2.47004 
        1.86533         2.15231         1.07672         2.46012 
        1.87147         2.14306         1.06801         2.44574 
