# k  (h/Mpc)    Pcb(k)  (Mpc/h)^3    Pcb_linear(k) (Mpc/h)^3    Pcb_NL(k) (Mpc/h)^3   ShotnoiseSubtracted = false
     0.00783031         312.433         315.325         312.371 
       0.013688         348.701         351.639         349.457 
       0.019231         323.883         324.788         323.098 
      0.0249154         273.837         273.498         272.704 
      0.0312784         215.138         214.609         214.829 
      0.0375637         169.276         168.982         169.314 
      0.0433917         141.156         140.637         140.962 
      0.0492413         123.499         123.291         123.568 
      0.0555754         112.593         112.303         112.364 
      0.0619321         104.031         104.366         104.309 
       0.067871         96.3067         96.3841           96.26 
      0.0738098         86.5234         86.5454         86.4258 
      0.0800417         74.9117         74.7864         74.7551 
      0.0862327         63.4337         63.3277         63.3921 
      0.0921407         54.1912         54.1063         54.2159 
      0.0982031         47.3756         47.1638         47.3041 
       0.104506         42.6167            42.6         42.7271 
       0.110769         40.0564         40.0465          40.125 
       0.116806         38.5814         38.5161         38.5382 
       0.122832         36.9694         37.0207         37.0171 
       0.129052          34.906         34.9012         34.8835 
       0.135211          32.138         32.0813         32.0777 
       0.141259          28.906         28.8894         28.9164 
       0.147318         25.7264         25.7352         25.8003 
       0.153489         23.0321         22.9903         23.0588 
       0.159709         20.9939         20.9273         21.0054 
       0.165845          19.553         19.5763         19.6585 
       0.171974         18.7982         18.7282         18.7897 
       0.178125         18.1533         18.1206         18.1764 
       0.184229         17.4988         17.5103         17.5529 
        0.19034         16.7725         16.7283         16.7634 
       0.196428         15.7676         15.7398         15.7701 
       0.202534         14.5744         14.6108         14.6513 
       0.208729         13.4927         13.4584          13.509 
       0.214876         12.5076         12.4356         12.5024 
       0.220989         11.6265          11.613          11.684 
       0.227147         11.0573         10.9917         11.0581 
        0.23329         10.5991         10.5372         10.6038 
       0.239377         10.2408          10.179         10.2402 
       0.245482          9.8906         9.83811         9.88731 
       0.251667         9.47856         9.45793         9.51014 
       0.257832         9.08109         9.02429         9.07371 
       0.263955         8.58501          8.5523         8.60122 
       0.270079         8.10395         8.07298         8.12425 
        0.27624         7.63825         7.62086         7.67215 
       0.282372         7.24886         7.22706         7.28455 
        0.28843         6.95468         6.90256         6.96059 
       0.294538         6.67802          6.6323         6.68775 
       0.300721         6.42021         6.39914         6.45467 
        0.30691         6.22599         6.18327         6.23776 
       0.313033         6.00582         5.96969         6.01999 
       0.319153         5.81243         5.74625          5.7966 
       0.325316         5.53501          5.5123         5.56432 
        0.33145         5.30045         5.27722         5.32729 
       0.337538         5.08285         5.05241         5.10165 
       0.343633         4.88735         4.84391         4.89265 
       0.349808         4.68824         4.65466          4.7063 
       0.355968         4.51461         4.48721         4.54373 
       0.362074         4.38046         4.33822         4.39012 
       0.368217         4.23656         4.19942         4.24596 
       0.374374         4.11554         4.06519         4.11377 
       0.380519         3.96662         3.93267          3.9783 
       0.386598          3.8279         3.80141         3.84791 
       0.392688         3.69067         3.67088         3.71717 
        0.39888         3.57292         3.54183         3.58902 
       0.405048         3.45303          3.4193          3.4625 
       0.411186         3.33533         3.30517         3.35241 
       0.417313         3.23066         3.19975         3.24585 
       0.423458         3.12224         3.10143         3.14749 
       0.429607         3.04327         3.00901         3.05276 
       0.435692           2.958         2.92187         2.96636 
       0.441815         2.86661         2.83682          2.8829 
       0.447964         2.77145         2.75322         2.79662 
       0.454126         2.70103         2.67139         2.71427 
       0.460267         2.62779          2.5921         2.63666 
       0.466387         2.54862          2.5158         2.55745 
        0.47254         2.47923         2.44245         2.48439 
       0.478662         2.40533         2.37323         2.41381 
       0.484765         2.34147         2.30776         2.34787 
       0.490885         2.27227          2.2452         2.28862 
       0.497035         2.20619           2.185         2.22908 
       0.503198         2.15666         2.12696         2.16667 
       0.509342         2.09174         2.07096         2.11113 
       0.515458         2.04371         2.01676         2.05863 
       0.521598         1.99233         1.96389         2.00193 
       0.527764         1.94661         1.91251         1.95038 
       0.533884         1.88502         1.86337         1.90054 
           0.54         1.84216         1.81617         1.85265 
       0.546137           1.792          1.7706         1.80847 
       0.552299         1.75048          1.7266         1.76065 
       0.558452         1.70742         1.68432         1.71929 
       0.564573          1.6672         1.64376          1.6816 
       0.570708         1.62873         1.60447         1.64086 
       0.576825         1.59112         1.56651         1.60159 
       0.582926         1.55031         1.52976         1.56542 
       0.589034         1.51966         1.49404         1.53134 
       0.595184         1.48718         1.45919         1.49129 
       0.601379          1.4485         1.42523         1.46137 
       0.607522         1.41402         1.39268         1.42751 
       0.613639         1.38006         1.36137         1.39515 
       0.619772         1.35402         1.33099         1.36616 
       0.625918         1.32399          1.3015          1.3346 
       0.632068         1.29559          1.2729         1.30488 
       0.638161         1.26644         1.24539         1.27778 
         0.6443         1.23863         1.21849         1.24959 
       0.650464         1.21392         1.19227         1.22527 
       0.656582         1.19053         1.16701         1.19903 
       0.662703         1.16462         1.14247         1.17342 
       0.668861         1.13574         1.11852         1.15057 
       0.675024         1.11403         1.09524         1.12657 
       0.681124         1.09912         1.07288         1.10307 
       0.687237          1.0727          1.0511         1.07964 
       0.693381         1.04709         1.02983          1.0575 
       0.699536         1.03096         1.00911         1.03727 
       0.705665         1.01076        0.989055         1.01962 
       0.711789        0.986776        0.969562        0.998937 
       0.717957        0.968919        0.950463        0.978433 
        0.72409        0.950361        0.931986        0.960435 
       0.730186        0.936464        0.914115        0.941452 
       0.736317        0.913965        0.896618        0.923025 
       0.742472        0.899934        0.879519        0.907471 
       0.748622        0.883649        0.862887        0.891359 
        0.75476        0.864372        0.846724         0.87344 
       0.760888        0.851201        0.831004        0.857557 
       0.767043        0.828709        0.815624        0.842517 
       0.773185        0.817075        0.800668        0.827907 
       0.779291        0.806362        0.786175        0.812991 
       0.785407        0.789968        0.772021        0.798042 
       0.791564        0.774888        0.758129        0.784091 
       0.797719        0.761276        0.744587        0.769309 
       0.803834        0.747973        0.731462        0.756453 
       0.809972         0.73513        0.718608        0.744641 
       0.816124        0.722075        0.706036        0.730605 
       0.822261        0.710648        0.693801         0.71769 
       0.828378         0.69799        0.681893        0.706043 
       0.834502        0.685492        0.670256        0.693547 
       0.840667        0.675679        0.658817        0.682546 
       0.846816        0.663367        0.647677        0.672647 
       0.852925        0.651315        0.636867          0.6605 
       0.859047        0.640765        0.626282        0.651011 
       0.865192        0.630658        0.615903        0.639521 
       0.871341        0.621686        0.605754         0.62893 
       0.877463        0.609239        0.595881        0.618359 
       0.883569        0.600282        0.586254         0.60949 
       0.889708        0.591634        0.576791        0.599817 
       0.895864        0.582212        0.567514        0.589833 
       0.902008        0.571513        0.558461        0.580789 
       0.908149        0.563732        0.549611        0.571714 
       0.914301        0.555933         0.54094        0.562633 
       0.920448        0.547628        0.532465        0.553928 
       0.926574        0.539995        0.524202        0.545965 
       0.932687        0.531672        0.516132        0.536614 
       0.938823         0.52125        0.508204         0.53005 
       0.944975        0.514764        0.500425        0.520802 
       0.951105        0.504873        0.492838        0.513185 
       0.957225        0.498178        0.485421        0.506148 
       0.963368        0.491871        0.478133        0.498287 
       0.969511        0.485234        0.470994        0.491247 
       0.975621        0.476386        0.464041        0.483151 
       0.981748         0.46807         0.45721        0.476097 
       0.987916        0.462269        0.450475        0.470493 
        0.99406        0.456606        0.443901        0.464165 
        1.00019        0.449708        0.437472         0.45728 
        1.00632          0.4446        0.431176        0.450116 
        1.01246        0.437942        0.424996        0.443737 
        1.01859        0.431814        0.418947        0.438228 
        1.02471         0.42451        0.413024        0.432009 
        1.03085        0.417985        0.407195         0.42525 
        1.03698        0.413495        0.401492        0.419266 
        1.04314        0.407292        0.395874        0.413696 
        1.04929        0.403081        0.390377        0.408261 
        1.05541        0.395853        0.385007        0.403157 
        1.06154        0.391262        0.379725        0.397647 
        1.06769        0.386334        0.374534        0.392387 
        1.07382        0.380911        0.369458        0.386997 
        1.07993           0.376        0.364487        0.381809 
        1.08607        0.370979        0.359587        0.377262 
        1.09222        0.365746        0.354773        0.371627 
        1.09836        0.361295        0.350052        0.367135 
        1.10449        0.355766        0.345423        0.362455 
        1.11063        0.351143        0.340873        0.357244 
        1.11677        0.347352        0.336407        0.353241 
         1.1229        0.341718        0.332028          0.3486 
        1.12903        0.338116        0.327724        0.344093 
        1.13518        0.333645        0.323493        0.339637 
        1.14131        0.329711        0.319338        0.335534 
        1.14745        0.326669         0.31526        0.330679 
        1.15359        0.321468        0.311252         0.32723 
        1.15973         0.31797        0.307312        0.323292 
        1.16584        0.313642        0.303458        0.318741 
        1.17197        0.309173        0.299666        0.315312 
        1.17811        0.305271        0.295926        0.311593 
        1.18424         0.30177        0.292261        0.307333 
        1.19038        0.297475        0.288648        0.303643 
        1.19652         0.29502        0.285098        0.300326 
        1.20267        0.291596        0.281607        0.296114 
        1.20881        0.286628        0.278176        0.292925 
        1.21495        0.283878        0.274807        0.290067 
        1.22108        0.280757        0.271495        0.285949 
         1.2272        0.276743        0.268245        0.282446 
        1.23334        0.273768        0.265042        0.279328 
        1.23949        0.271034        0.261883        0.276272 
        1.24562        0.267673        0.258784        0.273065 
        1.25174        0.264801        0.255741        0.269746 
        1.25789        0.260696        0.252737         0.26673 
        1.26402        0.258542        0.249787        0.263705 
        1.27014        0.254598        0.246891        0.260432 
        1.27628        0.252417        0.244033        0.257324 
        1.28244        0.249386        0.241215        0.254612 
        1.28858        0.246106        0.238444        0.251539 
        1.29471        0.243613        0.235724        0.248886 
        1.30084         0.24076        0.233048        0.246552 
        1.30697        0.238855         0.23041        0.243632 
        1.31312        0.235966        0.227809        0.240765 
        1.31925        0.233079        0.225256        0.238348 
        1.32537        0.230599        0.222745        0.235818 
        1.33151        0.228004        0.220263        0.233229 
        1.33765        0.225385        0.217821        0.230662 
        1.34378        0.222683         0.21542        0.228103 
        1.34992        0.220986        0.213054        0.225689 
        1.35606        0.218076        0.210719        0.223066 
         1.3622        0.215887        0.208423        0.220779 
        1.36833        0.213958        0.206166        0.218624 
        1.37445        0.211636        0.203944        0.216387 
        1.38059        0.209326        0.201748        0.213966 
        1.38675        0.206709        0.199579        0.211538 
        1.39288        0.204195        0.197451        0.209295 
        1.39901        0.202611        0.195355        0.207216 
        1.40515        0.200323        0.193284        0.205031 
         1.4113        0.198698        0.191245        0.203155 
        1.41742        0.196573        0.189242        0.201372 
        1.42355        0.193587        0.187265         0.19856 
         1.4297        0.192465         0.18531        0.197138 
        1.43585         0.19002        0.183383        0.194835 
        1.44198        0.188466        0.181492         0.19244 
        1.44809        0.186337         0.17963         0.19119 
        1.45423        0.184372        0.177788         0.18871 
        1.46036        0.182553        0.175975        0.187016 
        1.46649        0.180719        0.174187        0.185466 
        1.47263        0.178276        0.172422        0.183446 
        1.47877        0.177718        0.170683        0.181748 
        1.48491        0.174938        0.168964        0.180106 
        1.49104        0.174186        0.167274         0.17779 
        1.49718        0.171859        0.165605        0.176636 
        1.50333        0.170363        0.163956        0.174472 
        1.50947        0.168735        0.162333        0.172675 
         1.5156        0.167028        0.160734         0.17137 
        1.52172         0.16543        0.159157          0.1695 
        1.52787        0.163379        0.157598        0.167835 
          1.534        0.162261        0.156062        0.166464 
        1.54013        0.160558        0.154547        0.164816 
        1.54627        0.159268         0.15305        0.163125 
        1.55241        0.157634        0.151573        0.161594 
        1.55855        0.156103        0.150117        0.160041 
        1.56467        0.154764        0.148685        0.158652 
         1.5708        0.153129        0.147267        0.157024 
        1.57695        0.151688        0.145865        0.155411 
        1.58308        0.149818        0.144485        0.154186 
        1.58922        0.148916        0.143121        0.152883 
        1.59535        0.147323        0.141776        0.151359 
         1.6015        0.146107        0.140446        0.149783 
        1.60764        0.144562        0.139134        0.148601 
        1.61376        0.143359        0.137842        0.147585 
        1.61989        0.141923        0.136566        0.146108 
        1.62604        0.140578        0.135303        0.144681 
        1.63218        0.139521        0.134057        0.143431 
        1.63831        0.138094        0.132829        0.142131 
        1.64444        0.137042        0.131616          0.1407 
        1.65059        0.135363        0.130416        0.139503 
        1.65673        0.134386        0.129231        0.138363 
        1.66285        0.133315        0.128065        0.137134 
        1.66898        0.131906        0.126913        0.135835 
        1.67512        0.130712        0.125772        0.134634 
        1.68127        0.129496        0.124645        0.133478 
         1.6874         0.12857        0.123534        0.132426 
        1.69353        0.127233        0.122437        0.131425 
        1.69967        0.126051        0.121351        0.130016 
        1.70581        0.125305        0.120279         0.12876 
        1.71193        0.124276        0.119223        0.127765 
        1.71806         0.12296        0.118178        0.126639 
        1.72421        0.121776        0.117144        0.125711 
        1.73035        0.120801        0.116123        0.124622 
        1.73649        0.119867        0.115114        0.123314 
        1.74262        0.118655        0.114118        0.122334 
        1.74876         0.11789        0.113134        0.121495 
        1.75489         0.11679        0.112163        0.120481 
        1.76101        0.115809        0.111203        0.119336 
        1.76715         0.11481        0.110254        0.118471 
        1.77329        0.113703        0.109314        0.117554 
        1.77943        0.112732        0.108385        0.116487 
        1.78557        0.112083        0.107468        0.115428 
        1.79171        0.111063        0.106562        0.114389 
        1.79785         0.10994        0.105666        0.113489 
        1.80399        0.108842         0.10478        0.112711 
        1.81012        0.108269        0.103906        0.111577 
        1.81625         0.10744        0.103042        0.110594 
        1.82239        0.106732        0.102187        0.109956 
        1.82853        0.105544        0.101341        0.109129 
        1.83466        0.104657        0.100506        0.108134 
        1.84078        0.103876       0.0996819        0.107195 
        1.84692        0.103081       0.0988652        0.106459 
        1.85306        0.102251       0.0980567        0.105485 
         1.8592        0.101471       0.0972584        0.104462 
        1.86533        0.100702       0.0964695        0.103773 
        1.87147       0.0997155       0.0956885        0.103024 
