# k  (h/Mpc)    P(k)  (Mpc/h)^3    P_linear(k)  (Mpc/h)^3     P_NL(k)  ShotnoiseSubtracted = false
     0.00783031         20106.7           20227         20032.9 
       0.013688         21906.9         22523.7           22347 
       0.019231         20475.7         20792.2         20633.8 
      0.0249154           17639         17503.5           17389 
      0.0312784         13681.9         13732.1         13670.7 
      0.0375637         10710.4         10811.3         10787.3 
      0.0433917         9030.96         8997.23         8969.41 
      0.0492413         7874.86         7887.11         7866.05 
      0.0555754         7226.42         7183.92         7166.61 
      0.0619321         6513.03            6676         6657.69 
       0.067871         6107.61          6165.3         6157.31 
      0.0738098         5550.56         5535.87         5491.61 
      0.0800417         4844.48         4783.63         4781.86 
      0.0862327         4115.63         4050.64         4123.89 
      0.0921407         3578.84         3460.77         3555.25 
      0.0982031         3192.57         3016.69          3164.1 
       0.104506         2839.09         2724.76          2900.9 
       0.110769         2679.99         2561.43         2689.08 
       0.116806         2597.69         2463.53         2563.84 
       0.122832         2465.95         2367.88         2459.65 
       0.129052         2310.72          2232.3         2314.15 
       0.135211         2196.18         2051.93         2144.61 
       0.141259         1972.73         1847.77         1975.62 
       0.147318         1780.81         1646.02          1816.2 
       0.153489         1629.82         1470.45         1626.93 
       0.159709         1542.55         1338.51         1515.02 
       0.165845         1415.94         1252.09         1451.39 
       0.171974         1386.02         1197.84         1377.22 
       0.178125         1342.58         1158.99         1343.36 
       0.184229         1246.52         1119.95         1284.54 
        0.19034         1219.23         1069.93         1223.93 
       0.196428         1170.71         1006.71         1156.53 
       0.202534            1079         934.492         1097.37 
       0.208729         1048.27         860.785         1022.04 
       0.214876         986.007         795.369         983.537 
       0.220989         926.286         742.754         940.679 
       0.227147         898.206         703.016         903.147 
        0.23329         861.779         673.944         877.169 
       0.239377         854.726         651.036         843.328 
       0.245482         810.756         629.234         807.514 
       0.251667         780.022         604.917         786.955 
       0.257832         763.607         577.185         752.894 
       0.263955         721.914         546.995         722.469 
       0.270079         694.011         516.338         695.108 
        0.27624         663.038         487.419         666.062 
       0.282372         649.277         462.229         646.762 
        0.28843         637.864         441.479         628.587 
       0.294538         605.419         424.193         608.809 
       0.300721         590.843         409.279         591.477 
        0.30691         576.425         395.472         580.826 
       0.313033         549.869         381.815         560.026 
       0.319153         541.994         367.522         543.168 
       0.325316         531.845         352.559         528.864 
        0.33145         517.299         337.523         507.793 
       0.337538         497.402         323.145         494.319 
       0.343633         484.083         309.808         486.734 
       0.349808         471.679         297.705         476.032 
       0.355968         462.273         286.995         465.367 
       0.362074         443.945         277.466         454.675 
       0.368217         441.052         268.589          441.09 
       0.374374         433.507         260.003         430.708 
       0.380519         415.471         251.527         419.627 
       0.386598         410.698         243.132         414.799 
       0.392688         399.015         234.783         401.886 
        0.39888         389.647          226.53         393.397 
       0.405048          379.48         218.693         385.637 
       0.411186         379.067         211.393         375.685 
       0.417313         372.477         204.651         368.091 
       0.423458         363.181         198.362         361.651 
       0.429607         351.256         192.451         354.994 
       0.435692         345.907         186.877         345.295 
       0.441815         339.598         181.439         341.952 
       0.447964         331.857         176.091         336.185 
       0.454126         327.988         170.858         326.222 
       0.460267         322.272         165.786         323.849 
       0.466387          314.33         160.906          317.83 
        0.47254          311.08         156.214         311.793 
       0.478662         303.908         151.788         305.328 
       0.484765         298.878         147.601         299.788 
       0.490885         296.258         143.599         294.628 
       0.497035         288.798         139.749         290.649 
       0.503198         287.797         136.037         286.436 
       0.509342         281.675         132.455         281.826 
       0.515458         275.971         128.989         278.259 
       0.521598         272.135         125.607         273.474 
       0.527764         267.849         122.321         270.642 
       0.533884         264.779         119.178         266.612 
           0.54         261.243         116.159         261.613 
       0.546137         255.469         113.245         258.453 
       0.552299         253.829          110.43          254.19 
       0.558452         249.262         107.726          250.87 
       0.564573         248.056         105.132         248.651 
       0.570708         242.712         102.619         245.553 
       0.576825         238.625         100.191         240.553 
       0.582926         237.494         97.8405         238.298 
       0.589034         232.459         95.5561         235.384 
       0.595184         230.881          93.327         230.978 
       0.601379         227.002         91.1549         228.419 
       0.607522          221.75         89.0735         224.875 
       0.613639         220.953         87.0705         224.147 
       0.619772         219.817         85.1275         222.092 
       0.625918         215.209         83.2418         217.876 
       0.632068         213.267         81.4124         215.313 
       0.638161         211.455         79.6532         214.118 
         0.6443          207.91         77.9322          211.16 
       0.650464         205.672         76.2553         206.976 
       0.656582             203         74.6395         205.565 
       0.662703         202.365         73.0705         203.522 
       0.668861          197.74         71.5383         201.942 
       0.675024         196.991         70.0498         199.816 
       0.681124          193.92         68.6192         196.621 
       0.687237         192.825         67.2263         194.606 
       0.693381         189.113         65.8658         192.362 
       0.699536         188.758         64.5409         190.803 
       0.705665         186.143         63.2581         188.287 
       0.711789         183.401         62.0114         187.229 
       0.717957         182.457         60.7898         185.825 
        0.72409         179.713         59.6081         183.674 
       0.730186         180.264         58.4651         181.566 
       0.736317         177.279          57.346         179.848 
       0.742472         175.518         56.2524          177.99 
       0.748622         173.554         55.1886         176.096 
        0.75476         172.893         54.1549         175.607 
       0.760888         170.766         53.1494         172.902 
       0.767043         167.997         52.1658         171.563 
       0.773185         166.154         51.2092         170.303 
       0.779291          165.33         50.2822         168.203 
       0.785407         163.864          49.377          166.67 
       0.791564         162.589         48.4885         165.249 
       0.797719         159.906         47.6223         164.087 
       0.803834         159.997         46.7829         162.888 
       0.809972         157.748         45.9608         161.408 
       0.816124         155.424         45.1567         160.009 
       0.822261         154.334         44.3742         158.936 
       0.828378          153.67         43.6126         157.196 
       0.834502         151.896         42.8683         155.826 
       0.840667         151.591         42.1366         154.447 
       0.846816         148.916         41.4242         153.491 
       0.852925         148.611         40.7328         152.325 
       0.859047         146.746         40.0558         151.135 
       0.865192         146.065          39.392          149.52 
       0.871341         144.803         38.7429         148.423 
       0.877463         143.382         38.1114         147.651 
       0.883569         142.942         37.4957         147.093 
       0.889708         141.767         36.8904         145.237 
       0.895864         139.674         36.2971         144.382 
       0.902008         138.614         35.7181         142.985 
       0.908149         137.252         35.1521         141.933 
       0.914301         136.235         34.5975         140.733 
       0.920448         135.768         34.0554         139.938 
       0.926574         134.136         33.5269         138.727 
       0.932687         133.846         33.0108         137.925 
       0.938823          132.63         32.5037         137.032 
       0.944975         132.185         32.0062         135.962 
       0.951105          130.45         31.5209         134.964 
       0.957225          129.54         31.0466         133.924 
       0.963368         129.101         30.5804         132.967 
       0.969511         127.536         30.1239         131.933 
       0.975621         125.695         29.6791         131.458 
       0.981748         125.639         29.2423         130.637 
       0.987916         124.845         28.8115         129.572 
        0.99406         123.693         28.3911         128.583 
        1.00019         123.243         27.9799         127.681 
        1.00632         122.101         27.5772          126.73 
        1.01246         121.134         27.1819         125.575 
        1.01859          119.99          26.795          125.16 
        1.02471         119.155         26.4162         124.504 
        1.03085         118.547         26.0434          123.74 
        1.03698         117.802         25.6786         123.203 
        1.04314         117.132         25.3193         122.138 
        1.04929         116.342         24.9677         121.346 
        1.05541         115.949         24.6243          120.76 
        1.06154         114.598         24.2864         120.056 
        1.06769          113.91         23.9544         119.348 
        1.07382         112.812         23.6298         118.663 
        1.07993         112.363         23.3119         117.852 
        1.08607         112.148         22.9985         117.024 
        1.09222         110.691         22.6906         116.465 
        1.09836         110.104         22.3887          115.65 
        1.10449         109.612         22.0926         115.288 
        1.11063         108.396         21.8016         114.316 
        1.11677          108.02         21.5159         113.526 
         1.1229         107.179         21.2359          112.91 
        1.12903         106.013         20.9606         112.237 
        1.13518         105.527         20.6899         111.687 
        1.14131         105.266         20.4242         110.803 
        1.14745         104.166         20.1634         110.244 
        1.15359         103.663          19.907         109.741 
        1.15973         103.056         19.6551         109.167 
        1.16584         102.286         19.4086         108.396 
        1.17197          101.83          19.166          108.02 
        1.17811         100.991         18.9268         107.237 
        1.18424         100.344         18.6924         106.449 
        1.19038         99.8325         18.4614         106.288 
        1.19652         98.8905         18.2343         105.446 
        1.20267         98.2564          18.011         105.017 
        1.20881          97.606         17.7916         104.233 
        1.21495         97.4339         17.5761         103.839 
        1.22108         96.5062         17.3643          103.28 
         1.2272         96.4474         17.1564         102.626 
        1.23334         95.4819         16.9515         102.362 
        1.23949          94.841         16.7495         101.623 
        1.24562         94.1274         16.5513         100.767 
        1.25174         94.1183         16.3567         100.293 
        1.25789         93.2542         16.1646         99.7196 
        1.26402         92.6221         15.9759         99.4616 
        1.27014         92.0314         15.7907          99.009 
        1.27628         91.7377         15.6079         98.7179 
        1.28244         90.9874         15.4276         97.9371 
        1.28858         90.5792         15.2504         97.4226 
        1.29471          89.884         15.0764         96.9859 
        1.30084         89.3652         14.9053         96.2453 
        1.30697         88.7406         14.7366         95.8081 
        1.31312          88.428         14.5702         95.3061 
        1.31925         87.4669         14.4069         94.9755 
        1.32537         87.1541         14.2463         94.6295 
        1.33151         86.6774         14.0876         94.0539 
        1.33765          86.288         13.9314         93.6324 
        1.34378         85.8824         13.7778         93.1845 
        1.34992         85.2096         13.6265         92.5957 
        1.35606          84.958         13.4771         92.1203 
         1.3622         84.3977         13.3303         91.7892 
        1.36833         83.8123          13.186         91.1318 
        1.37445         83.3118         13.0438         90.8186 
        1.38059         82.7918         12.9034         90.1508 
        1.38675         82.4415         12.7647         89.7606 
        1.39288         81.8499         12.6286         89.2803 
        1.39901         81.3724         12.4945         88.9887 
        1.40515         80.9704         12.3621         88.7019 
         1.4113         80.4434         12.2316         88.3439 
        1.41742         80.3437         12.1035         87.8742 
        1.42355          79.678         11.9771         87.3081 
         1.4297         79.1492          11.852         87.0066 
        1.43585         78.8903         11.7288         86.4433 
        1.44198         78.3662         11.6078          86.298 
        1.44809         77.8117         11.4888          85.772 
        1.45423         77.6254          11.371         85.2351 
        1.46036         76.9064          11.255         84.8911 
        1.46649         76.4822         11.1406         84.6265 
        1.47263         76.0842         11.0278         84.2619 
        1.47877         75.8159         10.9165         83.6915 
        1.48491         75.2566         10.8066         83.3135 
        1.49104         74.8757         10.6985         83.1392 
        1.49718         74.3946         10.5917         82.5472 
        1.50333         73.8747         10.4863          82.102 
        1.50947         73.8255         10.3825         81.8257 
         1.5156         73.1938         10.2802         81.4882 
        1.52172         72.6033         10.1793         81.0793 
        1.52787         72.4653         10.0796         80.6961 
          1.534         72.1212         9.98136         80.4167 
        1.54013         71.6255         9.88452         80.1089 
        1.54627          71.266         9.78878         79.7262 
        1.55241         70.9662         9.69429         79.3189 
        1.55855         70.3411         9.60119         78.9236 
        1.56467          69.969         9.50956         78.6456 
         1.5708         69.4979         9.41886         78.2855 
        1.57695         69.2665         9.32921         77.9129 
        1.58308         68.8614         9.24094         77.6315 
        1.58922         68.5446         9.15374          77.297 
        1.59535         68.3548          9.0677         76.9896 
         1.6015         67.7351         8.98265         76.6051 
        1.60764         67.3778         8.89873         76.2634 
        1.61376         67.3286         8.81611         76.0733 
        1.61989         66.7843         8.73447         75.7369 
        1.62604         66.5147         8.65369         75.1512 
        1.63218         65.9319         8.57398         74.7865 
        1.63831         65.7711         8.49545         74.6929 
        1.64444         65.2836         8.41788         74.3384 
        1.65059         64.8948          8.3411         73.9809 
        1.65673         64.7237         8.26535         73.6343 
        1.66285         64.4104         8.19076         73.3547 
        1.66898         63.8238         8.11706         73.1225 
        1.67512         63.4559         8.04413          72.768 
        1.68127         63.2289         7.97203         72.4813 
         1.6874         63.0818         7.90097         72.2035 
        1.69353         62.5115         7.83083         71.8017 
        1.69967         62.2184         7.76136         71.5399 
        1.70581         61.9121         7.69277         71.2776 
        1.71193         61.6412         7.62527         70.9643 
        1.71806         61.1622         7.55843         70.6981 
        1.72421         60.8728         7.49226         70.4014 
        1.73035         60.5653         7.42696         70.0966 
        1.73649         60.2792         7.36245         69.7922 
        1.74262         59.9264         7.29876         69.4502 
        1.74876         59.5331         7.23578         69.1668 
        1.75489         59.5075         7.17367         68.9144 
        1.76101          59.126         7.11231         68.6424 
        1.76715         58.7559         7.05158         68.3725 
        1.77329         58.4222         6.99149         68.0729 
        1.77943         58.0653         6.93207         67.7846 
        1.78557         57.9032         6.87343         67.5436 
        1.79171         57.4453         6.81546         67.2673 
        1.79785         57.3181         6.75815          66.962 
        1.80399         56.9156          6.7015         66.6776 
        1.81012         56.5674         6.64559          66.412 
        1.81625         56.3352         6.59033         66.1424 
        1.82239         55.9603         6.53563         65.8777 
        1.82853         55.7767         6.48156         65.6354 
        1.83466         55.4722         6.42817         65.3526 
        1.84078         55.0778         6.37543         65.0829 
        1.84692         54.8892          6.3232         64.9219 
        1.85306         54.7768         6.27148          64.616 
         1.8592         54.4486         6.22043         64.2591 
        1.86533         54.0231         6.16997         64.0621 
        1.87147         53.7584         6.12002         63.8062 
        1.87761         53.3985         6.07059         63.5408 
