# k  (h/Mpc)    Pcb(k)  (Mpc/h)^3    Pcb_linear(k) (Mpc/h)^3    Pcb_NL(k) (Mpc/h)^3   ShotnoiseSubtracted = false
     0.00783031         23038.5         23172.2         22947.1 
       0.013688         25056.3         25801.8         25592.8 
       0.019231         23428.5         23817.7         23628.1 
      0.0249154         20208.3         20050.1         19908.6 
      0.0312784         15658.7         15729.8         15647.4 
      0.0375637         12256.1         12384.1         12349.5 
      0.0433917         10341.1           10306         10266.6 
      0.0492413         9017.11         9034.41         9003.74 
      0.0555754         8274.17         8228.91         8205.07 
      0.0619321         7447.28         7647.09         7622.93 
       0.067871         6985.39          7062.1         7051.61 
      0.0738098         6357.21          6341.1         6283.62 
      0.0800417         5550.66         5479.44          5476.3 
      0.0862327         4719.98         4639.82         4732.35 
      0.0921407         4113.93         3964.15         4083.77 
      0.0982031         3675.68         3455.48         3642.47 
       0.104506         3268.93         3121.09         3344.74 
       0.110769         3086.39            2934         3097.33 
       0.116806         2989.12         2821.86         2950.65 
       0.122832         2838.93         2712.29         2829.62 
       0.129052         2654.94            2557         2662.17 
       0.135211         2530.96         2350.39         2468.53 
       0.141259         2274.33         2116.53         2279.68 
       0.147318         2059.34         1885.44         2100.68 
       0.153489         1888.14         1684.33         1883.75 
       0.159709         1792.07         1533.19         1758.05 
       0.165845         1646.79         1434.21         1686.64 
       0.171974         1609.49         1372.07         1601.07 
       0.178125         1560.93         1327.56         1562.02 
       0.184229         1445.35         1282.85          1492.2 
        0.19034          1416.5         1225.55         1421.96 
       0.196428         1361.88         1153.13         1346.07 
       0.202534          1259.3         1070.41         1279.22 
       0.208729         1224.43         985.985          1192.1 
       0.214876         1151.99         911.054         1149.25 
       0.220989         1086.76         850.787         1101.48 
       0.227147         1053.07          805.27         1059.83 
        0.23329          1010.3         771.972         1029.82 
       0.239377         1003.66         745.728         990.184 
       0.245482         952.605         720.756         948.712 
       0.251667         917.338         692.903         924.667 
       0.257832         897.232         661.134         885.449 
       0.263955         850.278         626.554         850.824 
       0.270079         819.587         591.439         819.457 
        0.27624         783.608         558.315         786.381 
       0.282372          769.31         529.464           765.3 
        0.28843          753.87         505.691         745.338 
       0.294538         716.984         485.891         721.715 
       0.300721         701.144         468.809         701.082 
        0.30691         682.587         452.994         689.845 
       0.313033         652.689         437.347          665.38 
       0.319153         644.334         420.978         645.627 
       0.325316         632.703         403.838         629.435 
        0.33145         615.665         386.616          604.73 
       0.337538         592.779         370.145         589.676 
       0.343633         577.929          354.87         580.803 
       0.349808         563.923         341.006         568.811 
       0.355968         552.584         328.738         555.986 
       0.362074          531.27         317.823         544.212 
       0.368217         528.007         307.654         528.929 
       0.374374         519.679          297.82         516.745 
       0.380519         498.737         288.112         504.025 
       0.386598         493.584         278.495         498.364 
       0.392688         479.715         268.933         483.856 
        0.39888          469.28         259.478          473.53 
       0.405048         456.961         250.502         463.937 
       0.411186         456.821         242.141         453.126 
       0.417313          449.09         234.417         444.622 
       0.423458         438.237         227.214         436.863 
       0.429607         424.179         220.443         429.267 
       0.435692          417.98         214.059          417.53 
       0.441815         410.454         207.828         413.903 
       0.447964          402.18         201.704          407.59 
       0.454126         397.336         195.709         395.654 
       0.460267         390.823           189.9         392.957 
       0.466387         381.232          184.31         386.071 
        0.47254          377.83         178.936         378.929 
       0.478662         369.298         173.865         371.235 
       0.484765         363.401         169.069         365.303 
       0.490885         360.906         164.485         358.716 
       0.497035         351.355         160.075         354.231 
       0.503198         350.378         155.823         349.387 
       0.509342         343.343         151.721         343.607 
       0.515458         336.357          147.75         339.467 
       0.521598         333.088         143.876         334.233 
       0.527764         326.804         140.112         330.995 
       0.533884         322.748         136.512         326.243 
           0.54         319.284         133.054         320.436 
       0.546137         312.836         129.716         316.604 
       0.552299         310.921         126.492           311.8 
       0.558452         305.427         123.394         308.051 
       0.564573         304.144         120.423          305.36 
       0.570708         298.071         117.545         301.514 
       0.576825         293.112         114.764         295.778 
       0.582926          292.02         112.071          293.25 
       0.589034         285.837         109.455          289.46 
       0.595184          283.95         106.901         284.544 
       0.601379         278.994         104.413         281.347 
       0.607522          273.29         102.029         277.004 
       0.613639         272.318         99.7348         276.319 
       0.619772         270.878         97.5093         274.211 
       0.625918         265.163         95.3493         269.159 
       0.632068         263.709         93.2537         266.473 
       0.638161         260.771         91.2386         264.707 
         0.6443         256.662         89.2674         261.093 
       0.650464         254.404         87.3465         256.251 
       0.656582         251.045         85.4958         254.584 
       0.662703          250.38         83.6985         252.266 
       0.668861         245.002         81.9435         250.603 
       0.675024         244.103         80.2385         248.034 
       0.681124         239.612         78.5998         244.143 
       0.687237          238.74         77.0043          241.65 
       0.693381          234.62          75.446         239.116 
       0.699536         234.207         73.9283         237.386 
       0.705665         230.845         72.4589         233.957 
       0.711789         227.986         71.0309         232.855 
       0.717957         226.734         69.6316         231.469 
        0.72409         223.517          68.278         228.511 
       0.730186         223.943         66.9687         225.916 
       0.736317          220.06         65.6869         224.223 
       0.742472         218.375         64.4343         222.088 
       0.748622         216.559         63.2158         219.631 
        0.75476         214.858         62.0317         219.432 
       0.760888         212.773           60.88         216.223 
       0.767043         209.694         59.7532         214.371 
       0.773185          207.42         58.6576         212.827 
       0.779291         206.326         57.5958         210.407 
       0.785407          204.68         56.5589         208.695 
       0.791564         203.248         55.5411         206.866 
       0.797719         200.068          54.549         205.312 
       0.803834         199.767         53.5875           204.1 
       0.809972         196.905         52.6458         202.229 
       0.816124         194.845         51.7248         200.387 
       0.822261         193.188         50.8284          199.38 
       0.828378         192.348          49.956         197.306 
       0.834502         189.765         49.1034         195.699 
       0.840667         189.461         48.2654         193.882 
       0.846816         186.612         47.4493         192.744 
       0.852925         186.398         46.6573         191.348 
       0.859047         183.768         45.8818         189.855 
       0.865192         183.059         45.1215          187.97 
       0.871341         181.448          44.378         186.663 
       0.877463         179.938         43.6547         185.679 
       0.883569         179.177         42.9494         185.258 
       0.889708         177.704         42.2561         182.874 
       0.895864         175.086         41.5764         181.889 
       0.902008         173.973         40.9132         180.067 
       0.908149         172.155         40.2649         178.773 
       0.914301          171.32         39.6297         177.334 
       0.920448         169.984         39.0088         176.383 
       0.926574         168.451         38.4034         175.009 
       0.932687         168.152         37.8122         173.735 
       0.938823         166.494         37.2314         173.054 
       0.944975         166.101         36.6615         171.578 
       0.951105         164.009         36.1056         170.506 
       0.957225         162.744         35.5623           169.1 
       0.963368         162.512         35.0283         167.995 
       0.969511         160.363         34.5054         166.838 
       0.975621         158.233         33.9959         166.065 
       0.981748         158.102         33.4955         165.197 
       0.987916         157.089         33.0021         163.788 
        0.99406         155.642         32.5205         162.691 
        1.00019         154.892         32.0495         161.618 
        1.00632         153.797         31.5883         160.419 
        1.01246         152.577         31.1355         159.013 
        1.01859         151.031         30.6923         158.438 
        1.02471         149.895         30.2584         157.535 
        1.03085         149.284         29.8314         156.631 
        1.03698         148.495         29.4135         156.074 
        1.04314         147.553          29.002         154.713 
        1.04929         146.436         28.5993          153.62 
        1.05541         146.218         28.2058         152.926 
        1.06154         144.654         27.8189         152.219 
        1.06769         143.746         27.4386         151.308 
        1.07382         142.012         27.0667         150.419 
        1.07993         141.675         26.7025         149.513 
        1.08607         141.226         26.3436         148.383 
        1.09222         139.607         25.9909         147.706 
        1.09836         138.768         25.6451         146.777 
        1.10449         138.221         25.3059         146.339 
        1.11063         136.897         24.9726         145.213 
        1.11677         136.021         24.6454         144.147 
         1.1229         135.561         24.3246         143.375 
        1.12903         133.895         24.0093         142.541 
        1.13518         133.314         23.6993         141.857 
        1.14131         132.805         23.3949         140.923 
        1.14745         131.569         23.0961         140.011 
        1.15359         130.847         22.8025         139.454 
        1.15973         130.166         22.5139         138.717 
        1.16584         129.359         22.2316         137.957 
        1.17197         128.723         21.9537         137.379 
        1.17811         127.393         21.6797         136.428 
        1.18424         126.842         21.4112         135.468 
        1.19038         126.125         21.1465         135.301 
        1.19652         124.783         20.8864         134.115 
        1.20267         124.212         20.6307          133.72 
        1.20881         123.429         20.3793         132.806 
        1.21495         123.062         20.1325         132.219 
        1.22108         121.952         19.8899          131.44 
         1.2272         121.756         19.6518         130.734 
        1.23334         120.486         19.4171         130.311 
        1.23949         119.987         19.1857         129.448 
        1.24562         119.085         18.9587         128.403 
        1.25174         118.775         18.7357         127.811 
        1.25789         117.797         18.5157         127.058 
        1.26402         117.056         18.2995         126.739 
        1.27014         116.485         18.0874         126.173 
        1.27628         116.076          17.878         125.845 
        1.28244         114.946         17.6715         124.896 
        1.28858         114.321         17.4686         124.286 
        1.29471         113.427         17.2693         123.641 
        1.30084         113.006         17.0732         122.787 
        1.30697         112.278           16.88         122.175 
        1.31312         111.845         16.6894         121.438 
        1.31925         110.697         16.5024         121.101 
        1.32537         110.391         16.3184         120.656 
        1.33151         109.372         16.1366         119.954 
        1.33765         109.214         15.9577         119.401 
        1.34378          108.55         15.7818         118.883 
        1.34992         107.708         15.6085         118.198 
        1.35606         107.278         15.4374         117.496 
         1.3622         106.626         15.2692         117.133 
        1.36833         106.027         15.1038         116.393 
        1.37445         105.228         14.9411         115.826 
        1.38059         104.659         14.7802         115.129 
        1.38675          104.08         14.6213         114.551 
        1.39288         103.402         14.4654         114.045 
        1.39901         102.699         14.3118         113.656 
        1.40515         102.244         14.1601         113.186 
         1.4113         101.748         14.0107         112.666 
        1.41742         101.365          13.864         112.119 
        1.42355         100.451         13.7191         111.442 
         1.4297         99.8923         13.5759         111.056 
        1.43585         99.6711         13.4348         110.408 
        1.44198         98.9495         13.2962         110.196 
        1.44809         98.2902         13.1598          109.48 
        1.45423            97.9         13.0249          108.81 
        1.46036         97.2066          12.892          108.38 
        1.46649         96.4701          12.761         108.051 
        1.47263         96.2692         12.6317         107.599 
        1.47877         95.6137         12.5043         106.859 
        1.48491         94.8979         12.3784         106.358 
        1.49104         94.4754         12.2545         106.155 
        1.49718         93.8555         12.1323          105.44 
        1.50333         93.2026         12.0115         104.841 
        1.50947         93.0357         11.8926         104.486 
         1.5156         92.3264         11.7754         104.096 
        1.52172         91.7132         11.6599         103.598 
        1.52787          91.377         11.5457         103.102 
          1.534         90.9185         11.4331         102.676 
        1.54013         90.4646         11.3222         102.285 
        1.54627         89.8416         11.2125         101.859 
        1.55241         89.4063         11.1043         101.342 
        1.55855          88.698         10.9977         100.775 
        1.56467         88.2965         10.8927         100.445 
         1.5708         87.8627         10.7888          99.998 
        1.57695         87.4414         10.6861         99.5109 
        1.58308         86.6696          10.585         99.1859 
        1.58922         86.3476         10.4851         98.7442 
        1.59535         86.0189         10.3866         98.3034 
         1.6015         85.3408         10.2892         97.8517 
        1.60764         85.0002          10.193         97.4295 
        1.61376         84.7474         10.0984         97.1012 
        1.61989         84.1075         10.0049         96.7002 
        1.62604         83.8264         9.91236         96.0142 
        1.63218         83.0718         9.82105         95.5512 
        1.63831         82.8864          9.7311          95.394 
        1.64444         82.1613         9.64225         94.9611 
        1.65059          81.719          9.5543         94.5219 
        1.65673           81.42         9.46754          94.055 
        1.66285         81.2253          9.3821         93.6865 
        1.66898          80.526         9.29768         93.4159 
        1.67512         79.8072         9.21414          92.938 
        1.68127         79.6824         9.13156         92.6005 
         1.6874         79.4179         9.05016         92.2892 
        1.69353         78.6704         8.96981         91.7445 
        1.69967         78.3804         8.89025         91.4203 
        1.70581         77.8817         8.81168         91.0674 
        1.71193         77.5753         8.73436         90.6134 
        1.71806         76.8592          8.6578         90.2726 
        1.72421         76.5261           8.582         89.9475 
        1.73035         76.2134          8.5072         89.5774 
        1.73649         75.8296         8.43331         89.1442 
        1.74262         75.2668         8.36035         88.6713 
        1.74876         74.8858         8.28821         88.3379 
        1.75489         74.7888         8.21707         88.0514 
        1.76101          74.305         8.14678         87.7006 
        1.76715         73.8345         8.07722         87.3465 
        1.77329         73.4247         8.00839         86.9406 
        1.77943         72.9597         7.94033         86.5685 
        1.78557         72.6377         7.87316         86.2904 
        1.79171         72.2104         7.80676         85.9158 
        1.79785         71.8495         7.74111         85.5031 
        1.80399         71.3485         7.67623         85.1853 
        1.81012         71.0193         7.61218         84.8518 
        1.81625         70.5356         7.54889         84.4904 
        1.82239         70.3196         7.48622         84.1488 
        1.82853          69.863          7.4243         83.8245 
        1.83466         69.4746         7.36314         83.4563 
        1.84078         69.1895         7.30273         83.1174 
        1.84692         68.8421          7.2429         82.9132 
        1.85306         68.5277         7.18366         82.5078 
         1.8592         68.2334         7.12519          82.042 
        1.86533         67.7175         7.06739         81.8156 
        1.87147         67.3368         7.01017         81.5346 
