# k  (h/Mpc)    Pcb(k)  (Mpc/h)^3    Pcb_linear(k) (Mpc/h)^3    Pcb_NL(k) (Mpc/h)^3   ShotnoiseSubtracted = false
     0.00783031         14252.3         14344.6           14210 
       0.013688           15599           15976         15859.5 
       0.019231         14564.8         14748.9           14648 
      0.0249154         12505.6         12416.6           12350 
      0.0312784         9725.21         9741.51         9715.31 
      0.0375637         7616.83         7669.64         7662.77 
      0.0433917         6411.11         6382.78         6374.11 
      0.0492413         5591.53         5595.29         5589.78 
      0.0555754         5130.11         5096.46         5089.96 
      0.0619321          4641.2         4736.15         4727.84 
       0.067871         4347.65         4373.87         4369.98 
      0.0738098         3938.45         3927.33         3905.58 
      0.0800417         3433.44         3393.68         3394.05 
      0.0862327         2911.11         2873.67         2913.05 
      0.0921407         2517.51          2455.2         2505.72 
      0.0982031         2236.85         2140.16         2218.16 
       0.104506         1989.83         1933.06         2025.74 
       0.110769         1877.28         1817.18          1883.3 
       0.116806            1822         1747.73          1799.3 
       0.122832         1728.86         1679.87         1727.53 
       0.129052         1627.18         1583.69         1625.69 
       0.135211         1534.58         1455.73         1504.28 
       0.141259         1377.55         1310.89         1377.38 
       0.147318          1235.3         1167.76         1258.11 
       0.153489         1125.23          1043.2         1124.84 
       0.159709          1056.8         949.593         1041.58 
       0.165845         968.764          888.29         993.545 
       0.171974         950.496         849.804         942.766 
       0.178125         918.194         822.237         918.564 
       0.184229         859.237         794.542         880.773 
        0.19034         836.507         759.057         839.171 
       0.196428         799.882         714.201          790.11 
       0.202534         732.836         662.971         746.423 
       0.208729          708.54         610.679         694.305 
       0.214876         666.218          564.27         663.984 
       0.220989         619.934         526.943         631.543 
       0.227147         601.758         498.751         603.236 
        0.23329         577.563         478.128         584.824 
       0.239377         569.667         461.874          562.68 
       0.245482         540.574         446.408          538.28 
       0.251667          518.61         429.156         523.996 
       0.257832         508.626          409.48         500.469 
       0.263955         478.085         388.063         478.661 
       0.270079          456.71         366.314         459.087 
        0.27624         435.593         345.798         438.078 
       0.282372         423.562         327.929         423.253 
        0.28843         417.774         313.205         409.327 
       0.294538         395.608         300.942         396.394 
       0.300721         383.639         290.362         385.293 
        0.30691         375.926         280.567         376.375 
       0.313033         357.428         270.875         362.602 
       0.319153          351.04         260.737         351.245 
       0.325316         342.887         250.121         341.146 
        0.33145          332.74         239.455         327.234 
       0.337538          319.36         229.254         317.006 
       0.343633         309.257         219.793         311.214 
       0.349808         300.332         211.205         303.495 
       0.355968         294.015         203.608         296.444 
       0.362074          283.09         196.847         288.367 
       0.368217         280.034         190.549         278.943 
       0.374374         273.558         184.458         271.891 
       0.380519         261.984         178.445         264.343 
       0.386598         257.882         172.489         260.295 
       0.392688         250.026         166.566         251.814 
        0.39888         244.106         160.711         245.869 
       0.405048         237.732         155.151         241.152 
       0.411186         236.212         149.972         234.129 
       0.417313         231.292         145.189         228.322 
       0.423458         225.267         140.727         223.979 
       0.429607         218.115         136.534         219.453 
       0.435692         214.448          132.58         213.652 
       0.441815         210.086         128.721         210.946 
       0.447964         203.916         124.928         206.566 
       0.454126          201.02         121.214         200.249 
       0.460267          197.94         117.617         198.346 
       0.466387         192.701         114.154          194.05 
        0.47254         190.388         110.826         190.094 
       0.478662         185.074         107.685          186.21 
       0.484765         181.964         104.715         181.712 
       0.490885         179.273         101.876         178.893 
       0.497035         175.986         99.1443         176.138 
       0.503198         174.288         96.5108          173.11 
       0.509342         169.931           93.97         170.337 
       0.515458         166.774         91.5106         167.964 
       0.521598         162.901         89.1113         164.201 
       0.527764         161.403         86.7802         161.918 
       0.533884         159.671         84.5505         159.421 
           0.54         156.286         82.4085         156.229 
       0.546137         152.484         80.3411           154.3 
       0.552299          150.67         78.3443         151.083 
       0.558452         148.084         76.4257         148.635 
       0.564573         147.251         74.5855         147.174 
       0.570708         143.357         72.8026         145.171 
       0.576825         141.223         71.0802          142.04 
       0.582926         139.888         69.4127          140.21 
       0.589034         137.218          67.792         138.705 
       0.595184         135.742         66.2106         135.754 
       0.601379         133.442         64.6696         134.344 
       0.607522         130.086         63.1929         131.916 
       0.613639          129.29         61.7719         130.941 
       0.619772         127.862         60.3935         129.213 
       0.625918         126.237         59.0557         126.974 
       0.632068         123.454         57.7578          125.05 
       0.638161         122.655         56.5097         124.188 
         0.6443         121.127         55.2888         122.392 
       0.650464         118.753         54.0991         119.761 
       0.656582         117.685         52.9528         118.852 
       0.662703          116.68         51.8396         117.176 
       0.668861         114.062         50.7526         115.997 
       0.675024         113.787         49.6966         114.453 
       0.681124          111.95         48.6817         112.862 
       0.687237         110.796         47.6935         111.494 
       0.693381         108.726         46.7283         109.917 
       0.699536         108.104         45.7883           108.8 
       0.705665         106.696         44.8783         107.875 
       0.711789         104.938         43.9938         106.498 
       0.717957         103.894         43.1271         105.275 
        0.72409          102.48         42.2888         104.394 
       0.730186         102.468         41.4779         103.253 
       0.736317         101.036          40.684         101.765 
       0.742472         99.2117         39.9081         100.725 
       0.748622          97.717         39.1534         99.4985 
        0.75476         97.9491           38.42         98.5291 
       0.760888         96.5738         37.7067         97.0635 
       0.767043         94.7704         37.0088         96.4336 
       0.773185         93.5409         36.3302         95.7041 
       0.779291         92.8168         35.6726         94.4578 
       0.785407         91.9851         35.0304         93.2769 
       0.791564         91.0514            34.4         92.5512 
       0.797719         89.5432         33.7855         91.9403 
       0.803834         89.5176           33.19         90.7415 
       0.809972         88.4791         32.6068         89.8687 
       0.816124         86.8351         32.0363         89.1309 
       0.822261         86.2324         31.4811         88.2032 
       0.828378         85.7978         30.9408         87.0841 
       0.834502         84.9847         30.4128         86.2576 
       0.840667         84.3102         29.8937          85.761 
       0.846816          83.016         29.3883         84.9825 
       0.852925         82.3868         28.8978         84.2264 
       0.859047         81.5153         28.4174         83.3995 
       0.865192         80.8471         27.9465         82.5535 
       0.871341         80.1723          27.486         81.7251 
       0.877463         79.3811          27.038         81.1238 
       0.883569         79.2038         26.6012         80.6901 
       0.889708         78.3756         26.1718         79.7953 
       0.895864         77.5354         25.7508         79.2848 
       0.902008         76.4952         25.3401          78.398 
       0.908149          75.697         24.9385         77.7581 
       0.914301         75.2618         24.5451         77.0892 
       0.920448         75.2552         24.1605         76.5709 
       0.926574         73.6838         23.7856         75.8115 
       0.932687         73.4846         23.4194         75.3125 
       0.938823         72.9977         23.0597         74.5499 
       0.944975         72.2616         22.7067          73.933 
       0.951105         71.5228         22.3624         73.3161 
       0.957225         71.1505         22.0259          72.811 
       0.963368         70.4191         21.6952         72.1434 
       0.969511         69.9449         21.3713         71.5534 
       0.975621         68.8705         21.0558         71.4264 
       0.981748         68.6588         20.7459         70.8333 
       0.987916         68.0311         20.4402         70.2514 
        0.99406         67.7383         20.1419         69.5417 
        1.00019         67.0391         19.8502         68.9305 
        1.00632         66.3639         19.5646         68.4491 
        1.01246         65.9611         19.2841         67.8106 
        1.01859         65.5725         19.0097         67.6035 
        1.02471          65.152         18.7409         67.2715 
        1.03085         64.4786         18.4764         66.6543 
        1.03698          63.923         18.2176         66.1482 
        1.04314         63.5345         17.9627          65.603 
        1.04929         63.1257         17.7133         65.3042 
        1.05541         62.5164         17.4696          64.958 
        1.06154          61.924         17.2299         64.4332 
        1.06769         61.5921         16.9944         64.0033 
        1.07382         61.1411         16.7641         63.5994 
        1.07993         60.8557         16.5385         63.1561 
        1.08607         60.4034         16.3162         62.6901 
        1.09222         59.9235         16.0978         62.2649 
        1.09836         59.4636         15.8836         61.7761 
        1.10449         59.0513         15.6735         61.4686 
        1.11063          58.583         15.4671         60.8358 
        1.11677         58.3759         15.2644         60.4651 
         1.1229         57.6268         15.0657         60.2778 
        1.12903          57.328         14.8704         59.7638 
        1.13518         56.8276         14.6784         59.3832 
        1.14131         56.5651         14.4899         58.9435 
        1.14745         56.3088         14.3049           58.68 
        1.15359         55.6653          14.123         58.2834 
        1.15973         55.4998         13.9442         58.0777 
        1.16584         55.0811         13.7694         57.4347 
        1.17197         54.7209         13.5973         57.3271 
        1.17811         54.3358         13.4276          56.875 
        1.18424         53.8097         13.2613         56.5651 
        1.19038         53.6068         13.0974         56.2074 
        1.19652         53.3273         12.9362         55.8302 
        1.20267         52.8438         12.7779         55.5533 
        1.20881         52.4277         12.6222         55.1458 
        1.21495         52.1531         12.4693         54.8398 
        1.22108         51.9343          12.319         54.5755 
         1.2272          51.591         12.1716         54.2225 
        1.23334         51.3585         12.0262         54.0239 
        1.23949         50.8617         11.8829          53.543 
        1.24562          50.445         11.7423         53.1627 
        1.25174         50.4083         11.6042         52.9531 
        1.25789         50.0054         11.4679         52.6351 
        1.26402         49.6325          11.334         52.4274 
        1.27014         49.2781         11.2026         52.2092 
        1.27628         49.0453         11.0729         51.8589 
        1.28244          48.964         10.9451         51.4496 
        1.28858         48.5156         10.8194          51.161 
        1.29471         48.1026         10.6959         50.9474 
        1.30084         47.7289         10.5745         50.5354 
        1.30697         47.5751         10.4548         50.3741 
        1.31312         47.3857         10.3368         50.1716 
        1.31925         46.8962          10.221         49.8122 
        1.32537         46.6774          10.107         49.6231 
        1.33151         46.5119         9.99441         49.3026 
        1.33765         46.1588         9.88358         49.0397 
        1.34378          45.866         9.77465         48.8161 
        1.34992         45.6306          9.6673          48.493 
        1.35606         45.3565         9.56132         48.2579 
         1.3622         45.1105         9.45713         48.0482 
        1.36833          44.852         9.35474         47.7785 
        1.37445         44.5564         9.25392         47.5774 
        1.38059         44.2966         9.15428         47.2907 
        1.38675         44.0099         9.05587         47.0161 
        1.39288         43.7883          8.9593         46.7523 
        1.39901         43.5157         8.86418         46.5666 
        1.40515         43.2014         8.77024         46.4466 
         1.4113         43.0597         8.67769         46.2254 
        1.41742         42.7978         8.58683         45.8481 
        1.42355         42.6167          8.4971         45.6302 
         1.4297         42.3674         8.40839         45.4386 
        1.43585         42.2185         8.32098         45.1617 
        1.44198         41.8009         8.23515         44.9948 
        1.44809         41.4909         8.15068         44.7372 
        1.45423         41.4856          8.0671         44.5058 
        1.46036         41.2322         7.98484         44.3143 
        1.46649         40.8748         7.90369           44.16 
        1.47263         40.6211         7.82362         43.9642 
        1.47877         40.4416         7.74469          43.628 
        1.48491          40.121         7.66672         43.4654 
        1.49104         40.0456            7.59         43.3229 
        1.49718         39.7612         7.51426         43.0889 
        1.50333         39.6197         7.43945          42.858 
        1.50947         39.3383          7.3658          42.663 
         1.5156         39.2436         7.29326          42.462 
        1.52172         38.9038          7.2217         42.2489 
        1.52787         38.7718         7.15096         42.0975 
          1.534         38.4706         7.08125         41.9085 
        1.54013         38.4356         7.01254         41.6795 
        1.54627         38.0348         6.94462         41.4735 
        1.55241         37.9954         6.87759         41.2898 
        1.55855         37.6886         6.81154         41.1208 
        1.56467          37.358         6.74653         40.9654 
         1.5708         37.4012         6.68219         40.7679 
        1.57695         37.0904         6.61859         40.6007 
        1.58308         36.9508         6.55596         40.4359 
        1.58922         36.6798          6.4941         40.2082 
        1.59535         36.7023         6.43306         40.0509 
         1.6015         36.4638         6.37272         39.8332 
        1.60764          36.242         6.31318         39.6481 
        1.61376         36.0362         6.25456         39.5706 
        1.61989          35.716         6.19665         39.3685 
        1.62604          35.627         6.13934         39.1391 
        1.63218         35.3841         6.08278         38.9636 
        1.63831         35.2515         6.02707         38.8375 
        1.64444         35.1074         5.97204         38.6757 
        1.65059         34.8834         5.91757         38.4758 
        1.65673         34.7152         5.86383         38.2998 
        1.66285         34.5209         5.81091         38.1706 
        1.66898         34.3271         5.75863         38.0433 
        1.67512         34.0928         5.70689         37.8402 
        1.68127         34.0568         5.65574         37.6443 
         1.6874         33.9051         5.60533         37.5033 
        1.69353         33.6538         5.55556         37.3876 
        1.69967         33.5113         5.50628         37.2224 
        1.70581         33.3616         5.45762         37.0724 
        1.71193         33.1034         5.40973         36.9366 
        1.71806         33.0143         5.36231         36.7536 
        1.72421         32.7674         5.31537         36.6013 
        1.73035         32.7087         5.26904         36.4612 
        1.73649         32.4711         5.22327         36.3058 
        1.74262         32.3036         5.17808         36.1486 
        1.74876         32.2851          5.1334         35.9949 
        1.75489         32.0119         5.08934         35.8516 
        1.76101         31.9531         5.04581         35.7092 
        1.76715         31.7298         5.00272         35.5414 
        1.77329         31.5672         4.96009         35.4089 
        1.77943         31.4482         4.91794          35.289 
        1.78557         31.3005         4.87634         35.1336 
        1.79171         31.0735         4.83521         34.9822 
        1.79785          30.982         4.79455         34.8488 
        1.80399         30.8006         4.75436         34.7206 
        1.81012         30.6063          4.7147         34.5758 
        1.81625         30.5239          4.6755         34.4223 
        1.82239         30.3258         4.63668         34.2976 
        1.82853         30.2312         4.59833         34.2101 
        1.83466         30.0299         4.56045         34.0546 
        1.84078         29.8866         4.52303         33.8679 
        1.84692         29.7904         4.48598          33.781 
        1.85306         29.6501         4.44929         33.6654 
         1.8592          29.405         4.41307         33.5052 
        1.86533         29.3688         4.37727          33.381 
        1.87147         29.1818         4.34183         33.2445 
