# k  (h/Mpc)    P(k)  (Mpc/h)^3    P_linear(k)  (Mpc/h)^3     P_NL(k)  ShotnoiseSubtracted = false
     0.00783031         14078.1         14169.2         14036.3 
       0.013688         15408.3         15780.7         15665.6 
       0.019231         14386.7         14568.6         14468.9 
      0.0249154         12352.7         12264.8           12199 
      0.0312784         9606.31          9622.4         9596.53 
      0.0375637          7523.7         7575.86         7569.08 
      0.0433917         6332.72         6304.75         6296.18 
      0.0492413         5523.16         5526.88         5521.44 
      0.0555754         5067.39         5034.15         5027.73 
      0.0619321         4584.45         4678.25         4670.04 
       0.067871          4294.5         4320.39         4316.56 
      0.0738098         3890.29         3879.32         3857.83 
      0.0800417         3391.47         3352.19         3352.55 
      0.0862327         2875.51         2838.54         2877.44 
      0.0921407         2486.73         2425.18         2475.08 
      0.0982031          2209.5         2113.99         2191.04 
       0.104506         1965.51         1909.42         2000.97 
       0.110769         1854.33         1794.96         1860.27 
       0.116806         1799.73         1726.36          1777.3 
       0.122832         1707.73         1659.33         1706.41 
       0.129052         1607.29         1564.33         1605.81 
       0.135211         1515.82         1437.93         1485.88 
       0.141259          1360.7         1294.86         1360.54 
       0.147318          1220.2         1153.48         1242.73 
       0.153489         1111.47         1030.45         1111.08 
       0.159709         1043.88         937.984         1028.85 
       0.165845         956.919         877.428         981.397 
       0.171974         938.875         839.414          931.24 
       0.178125         906.968         812.185         907.335 
       0.184229         848.732          784.83         870.006 
        0.19034          826.28         749.777         828.911 
       0.196428         790.102         705.472         780.453 
       0.202534         723.876         654.865         737.297 
       0.208729         699.877         603.213         685.817 
       0.214876         658.072         557.372         655.867 
       0.220989         612.355         520.501         623.822 
       0.227147           594.4         492.653         595.861 
        0.23329         570.502         472.281         577.673 
       0.239377         562.702         456.228         555.801 
       0.245482         533.965         440.949         531.699 
       0.251667         512.269         423.909         517.589 
       0.257832         502.408         404.475         494.352 
       0.263955          472.24         383.319         472.809 
       0.270079         451.126         361.835         453.474 
        0.27624         430.267          341.57         432.721 
       0.282372         418.383         323.917         418.074 
        0.28843         412.666         309.376         404.323 
       0.294538         390.771         297.263         391.548 
       0.300721         378.949         286.812         380.582 
        0.30691          371.33         277.136         371.772 
       0.313033         353.058         267.565         358.171 
       0.319153         346.748         257.549         346.951 
       0.325316         338.695         247.063         336.976 
        0.33145         328.672         236.527         323.233 
       0.337538         315.456         226.451         313.131 
       0.343633         305.476         217.105         307.408 
       0.349808          296.66         208.623         299.785 
       0.355968          290.42         201.118         292.819 
       0.362074         279.629         194.441         284.842 
       0.368217          276.61          188.22         275.533 
       0.374374         270.214         182.203         268.567 
       0.380519         258.781         176.263         261.111 
       0.386598         254.729          170.38         257.113 
       0.392688         246.969          164.53         248.735 
        0.39888         241.122         158.746         242.863 
       0.405048         234.826         153.254         238.204 
       0.411186         233.324         148.138         231.266 
       0.417313         228.464         143.414         225.531 
       0.423458         222.513         139.007          221.24 
       0.429607         215.448         134.865          216.77 
       0.435692         211.826         130.959         211.039 
       0.441815         207.518         127.147         208.368 
       0.447964         201.423           123.4          204.04 
       0.454126         198.562         119.732         197.801 
       0.460267          195.52         116.178         195.921 
       0.466387         190.345         112.759         191.678 
        0.47254          188.06         109.471         187.769 
       0.478662         182.811         106.369         183.934 
       0.484765         179.739         103.434          179.49 
       0.490885         177.081          100.63         176.706 
       0.497035         173.834         97.9321         173.984 
       0.503198         172.157         95.3308         170.993 
       0.509342         167.853         92.8211         168.255 
       0.515458         164.735         90.3917         165.911 
       0.521598         160.909         88.0218         162.194 
       0.527764          159.43         85.7192         159.938 
       0.533884         157.719         83.5168         157.472 
           0.54         154.376         81.4009         154.319 
       0.546137          150.62         79.3588         152.413 
       0.552299         148.828         77.3863         149.236 
       0.558452         146.273         75.4914         146.818 
       0.564573         145.451         73.6735         145.374 
       0.570708         141.604         71.9124         143.396 
       0.576825         139.496         70.2113         140.303 
       0.582926         138.178          68.564         138.495 
       0.589034          135.54         66.9631          137.01 
       0.595184         134.083          65.401         134.094 
       0.601379          131.81         63.8789         132.701 
       0.607522         128.495         62.4203         130.303 
       0.613639         127.709         61.0166          129.34 
       0.619772         126.298         59.6551         127.634 
       0.625918         124.693         58.3336         125.421 
       0.632068         121.945         57.0516         123.521 
       0.638161         121.156         55.8188          122.67 
         0.6443         119.646         54.6128         120.896 
       0.650464         117.302         53.4376         118.297 
       0.656582         116.246         52.3054         117.399 
       0.662703         115.254         51.2058         115.743 
       0.668861         112.667         50.1321         114.578 
       0.675024         112.396          49.089         113.054 
       0.681124         110.581         48.0865         111.482 
       0.687237         109.441         47.1104         110.131 
       0.693381         107.397          46.157         108.573 
       0.699536         106.782         45.2285         107.469 
       0.705665         105.392         44.3296         106.556 
       0.711789         103.655         43.4559         105.196 
       0.717957         102.624         42.5999         103.988 
        0.72409         101.227         41.7717         103.117 
       0.730186         101.215         40.9707         101.991 
       0.736317         99.8009         40.1865          100.52 
       0.742472         97.9987         39.4202         99.4933 
       0.748622         96.5223         38.6747          98.282 
        0.75476         96.7516         37.9503         97.3245 
       0.760888         95.3931         37.2457         95.8768 
       0.767043         93.6117         36.5564         95.2546 
       0.773185         92.3972          35.886          94.534 
       0.779291          91.682         35.2364         93.3029 
       0.785407         90.8605         34.6021         92.1364 
       0.791564         89.9382         33.9794         91.4196 
       0.797719         88.4484         33.3725         90.8162 
       0.803834         88.4231         32.7842          89.632 
       0.809972         87.3974         32.2081           88.77 
       0.816124         85.7734         31.6446         88.0412 
       0.822261         85.1781         31.0962         87.1248 
       0.828378         84.7488         30.5625         86.0194 
       0.834502         83.9457         30.0409          85.203 
       0.840667         83.2794         29.5282         84.7125 
       0.846816         82.0011          29.029         83.9435 
       0.852925         81.3795         28.5444         83.1966 
       0.859047         80.5187           28.07         82.3799 
       0.865192         79.8586         27.6048         81.5441 
       0.871341          79.192           27.15         80.7259 
       0.877463         78.4106         26.7074          80.132 
       0.883569         78.2354         26.2759         79.7035 
       0.889708         77.4173         25.8518         78.8197 
       0.895864         76.5874          25.436         78.3155 
       0.902008           75.56         25.0303         77.4395 
       0.908149         74.7715         24.6336         76.8074 
       0.914301         74.3416          24.245         76.1467 
       0.920448         74.3351         23.8651         75.6347 
       0.926574         72.7829         23.4948         74.8846 
       0.932687         72.5862         23.1331         74.3917 
       0.938823         72.1052         22.7777         73.6384 
       0.944975         71.3781         22.4291         73.0291 
       0.951105         70.6484          22.089         72.4197 
       0.957225         70.2806         21.7566         71.9208 
       0.963368         69.5582         21.4299         71.2613 
       0.969511         69.0897           21.11         70.6786 
       0.975621         68.0285         20.7983         70.5531 
       0.981748         67.8193         20.4922         69.9673 
       0.987916         67.1994         20.1903         69.3925 
        0.99406         66.9101         19.8957         68.6914 
        1.00019         66.2194         19.6075         68.0877 
        1.00632         65.5525         19.3254         67.6123 
        1.01246         65.1546         19.0484         66.9815 
        1.01859         64.7708         18.7772          66.777 
        1.02471         64.3554         18.5118          66.449 
        1.03085         63.6903         18.2505         65.8394 
        1.03698         63.1414         17.9949         65.3394 
        1.04314         62.7577         17.7431          64.801 
        1.04929         62.3539         17.4967         64.5058 
        1.05541          61.752          17.256         64.1638 
        1.06154         61.1669         17.0193         63.6454 
        1.06769         60.8391         16.7866         63.2208 
        1.07382         60.3935         16.5591         62.8218 
        1.07993         60.1117         16.3363         62.3839 
        1.08607         59.6648         16.1167         61.9236 
        1.09222         59.1908         15.9009         61.5036 
        1.09836         58.7366         15.6894         61.0208 
        1.10449         58.3293         15.4819          60.717 
        1.11063         57.8667          15.278          60.092 
        1.11677         57.6622         15.0778         59.7258 
         1.1229         56.9222         14.8815         59.5408 
        1.12903         56.6271         14.6886         59.0331 
        1.13518         56.1328          14.499         58.6572 
        1.14131         55.8735         14.3128         58.2229 
        1.14745         55.6203           14.13         57.9625 
        1.15359         54.9847         13.9503         57.5708 
        1.15973         54.8212         13.7737         57.3676 
        1.16584         54.4077          13.601         56.7325 
        1.17197         54.0519          13.431         56.6262 
        1.17811         53.6715         13.2634         56.1797 
        1.18424         53.1518         13.0992         55.8735 
        1.19038         52.9514         12.9372         55.5202 
        1.19652         52.6753         12.7781         55.1476 
        1.20267         52.1977         12.6216         54.8741 
        1.20881         51.7867         12.4678         54.4716 
        1.21495         51.5154         12.3169         54.1693 
        1.22108         51.2993         12.1684         53.9083 
         1.2272         50.9602         12.0228         53.5595 
        1.23334         50.7306         11.8792         53.3634 
        1.23949         50.2398         11.7376         52.8883 
        1.24562         49.8282         11.5987         52.5127 
        1.25174          49.792         11.4623         52.3057 
        1.25789          49.394         11.3277         51.9916 
        1.26402         49.0257         11.1955         51.7864 
        1.27014         48.6756         11.0657         51.5709 
        1.27628         48.4456         10.9376         51.2248 
        1.28244         48.3653         10.8112         50.8206 
        1.28858         47.9224         10.6871         50.5355 
        1.29471         47.5145         10.5651         50.3245 
        1.30084         47.1453         10.4452         49.9175 
        1.30697         46.9934          10.327         49.7583 
        1.31312         46.8064         10.2104         49.5582 
        1.31925         46.3228          10.096         49.2032 
        1.32537         46.1067         9.98344         49.0164 
        1.33151         45.9432         9.87221         48.6998 
        1.33765         45.5944         9.76274         48.4401 
        1.34378         45.3052         9.65515         48.2193 
        1.34992         45.0727          9.5491         47.9001 
        1.35606          44.802         9.44442         47.6679 
         1.3622         44.5589          9.3415         47.4607 
        1.36833         44.3036         9.24036         47.1944 
        1.37445         44.0116         9.14078         46.9957 
        1.38059          43.755         9.04235         46.7125 
        1.38675         43.4718         8.94515         46.4413 
        1.39288         43.2529         8.84976         46.1807 
        1.39901         42.9837         8.75581         45.9973 
        1.40515         42.6732         8.66301         45.8787 
         1.4113         42.5332         8.57159         45.6602 
        1.41742         42.2745         8.48184         45.2875 
        1.42355         42.0956         8.39321         45.0724 
         1.4297         41.8494         8.30559         44.8831 
        1.43585         41.7023         8.21924         44.6095 
        1.44198         41.2898         8.13446         44.4447 
        1.44809         40.9836         8.05103         44.1902 
        1.45423         40.9784         7.96847         43.9617 
        1.46036         40.7281         7.88721         43.7725 
        1.46649         40.3751         7.80706         43.6201 
        1.47263         40.1244         7.72796         43.4267 
        1.47877         39.9471            7.65         43.0945 
        1.48491         39.6305         7.57299          42.934 
        1.49104          39.556          7.4972         42.7933 
        1.49718         39.2751         7.42239         42.5621 
        1.50333         39.1353         7.34849          42.334 
        1.50947         38.8574         7.27574         42.1414 
         1.5156         38.7638         7.20409         41.9428 
        1.52172         38.4281         7.13341         41.7323 
        1.52787         38.2978         7.06353         41.5828 
          1.534         38.0002         6.99467         41.3961 
        1.54013         37.9657         6.92681           41.17 
        1.54627         37.5697         6.85972         40.9664 
        1.55241         37.5309          6.7935          40.785 
        1.55855         37.2278         6.72826         40.6181 
        1.56467         36.9013         6.66404         40.4645 
         1.5708         36.9439         6.60049         40.2694 
        1.57695         36.6369         6.53767         40.1043 
        1.58308          36.499          6.4758         39.9415 
        1.58922         36.2314          6.4147         39.7166 
        1.59535         36.2535          6.3544         39.5612 
         1.6015          36.018          6.2948         39.3462 
        1.60764         35.7989         6.23599         39.1634 
        1.61376         35.5956         6.17809         39.0868 
        1.61989         35.2793         6.12089         38.8871 
        1.62604         35.1914         6.06427         38.6606 
        1.63218         34.9514         6.00841         38.4872 
        1.63831         34.8205         5.95339         38.3627 
        1.64444         34.6782         5.89903         38.2029 
        1.65059         34.4569         5.84522         38.0054 
        1.65673         34.2907         5.79214         37.8316 
        1.66285         34.0988         5.73987         37.7039 
        1.66898         33.9074         5.68822         37.5782 
        1.67512          33.676         5.63712         37.3776 
        1.68127         33.6405         5.58659          37.184 
         1.6874         33.4906         5.53679         37.0447 
        1.69353         33.2424         5.48764         36.9305 
        1.69967         33.1016         5.43896         36.7673 
        1.70581         32.9537         5.39089         36.6192 
        1.71193         32.6987         5.34359          36.485 
        1.71806         32.6107         5.29675         36.3042 
        1.72421         32.3667         5.25038         36.1538 
        1.73035         32.3088         5.20462         36.0154 
        1.73649         32.0741         5.15941         35.8619 
        1.74262         31.9087         5.11478         35.7066 
        1.74876         31.8904         5.07064         35.5548 
        1.75489         31.6205         5.02712         35.4133 
        1.76101         31.5624         4.98412         35.2726 
        1.76715         31.3418         4.94156         35.1068 
        1.77329         31.1813         4.89945          34.976 
        1.77943         31.0637         4.85781         34.8575 
        1.78557         30.9178         4.81672         34.7041 
        1.79171         30.6936         4.77609         34.5545 
        1.79785         30.6032         4.73593         34.4228 
        1.80399          30.424         4.69624         34.2961 
        1.81012         30.2321         4.65705         34.1531 
        1.81625         30.1507         4.61833         34.0014 
        1.82239          29.955         4.57999         33.8782 
        1.82853         29.8616         4.54211         33.7918 
        1.83466         29.6628         4.50469         33.6383 
        1.84078         29.5212         4.46773         33.4538 
        1.84692         29.4262         4.43113         33.3679 
        1.85306         29.2876         4.39489         33.2538 
         1.8592         29.0455         4.35911         33.0955 
        1.86533         29.0098         4.32375         32.9729 
        1.87147          28.825         4.28875         32.8381 
        1.87761         28.7153         4.25411            32.7 
