# k  (h/Mpc)    P(k)  (Mpc/h)^3    P_linear(k)  (Mpc/h)^3     P_NL(k)  ShotnoiseSubtracted = false
     0.00783031           12848         12932.7         12811.9 
       0.013688         14076.5         14404.2         14300.7 
       0.019231           13140           13298         13209.1 
      0.0249154         11273.6         11195.2         11137.9 
      0.0312784         8772.18         8783.34         8762.92 
      0.0375637          6871.4         6915.29         6910.97 
      0.0433917         5781.21         5755.02         5749.24 
      0.0492413         5042.52         5044.99         5041.74 
      0.0555754         4625.89         4595.23          4590.4 
      0.0619321         4188.92         4270.36          4263.7 
       0.067871         3922.66          3943.7         3940.46 
      0.0738098          3551.1         3541.09         3523.19 
      0.0800417         3094.83         3059.92          3060.5 
      0.0862327         2623.03         2591.06         2624.13 
      0.0921407         2265.76         2213.74         2256.13 
      0.0982031         2011.33         1929.68         1994.91 
       0.104506         1789.55         1742.95          1820.3 
       0.110769          1688.1         1638.47         1693.49 
       0.116806         1638.58         1575.85         1618.68 
       0.122832         1554.93         1514.66         1554.31 
       0.129052         1464.71         1427.94         1462.79 
       0.135211         1378.95         1312.56         1353.04 
       0.141259         1237.73         1181.97         1237.31 
       0.147318         1108.51         1052.92         1128.43 
       0.153489         1008.63          940.61          1008.6 
       0.159709          945.54         856.207          932.77 
       0.165845         866.776          800.93         888.775 
       0.171974          850.56          766.23         843.499 
       0.178125          821.22         741.375         821.553 
       0.184229         769.978         716.405         788.261 
        0.19034         748.872         684.408         751.066 
       0.196428         715.294         643.966         706.737 
       0.202534         654.782         597.771         666.935 
       0.208729          632.02         550.623         620.192 
       0.214876         594.191         508.778         592.075 
       0.220989         551.909         475.122         562.428 
       0.227147         535.714         449.702         536.658 
        0.23329         514.221         431.106         520.001 
       0.239377         506.462         416.452         500.466 
       0.245482         480.815         402.506         478.748 
       0.251667         460.961         386.951         465.845 
       0.257832         452.162         369.211          444.82 
       0.263955         424.534           349.9         425.121 
       0.270079         405.049         330.289         407.386 
        0.27624         386.133          311.79         388.378 
       0.282372         374.843         295.677         374.859 
        0.28843         369.829         282.403         362.159 
       0.294538         350.231         271.346          350.63 
       0.300721         339.084         261.806         340.823 
        0.30691         332.487         252.974         332.559 
       0.313033         316.083         244.238         320.342 
       0.319153         310.243         235.095          310.21 
       0.325316         302.513         225.523         301.144 
        0.33145         293.314         215.906         288.821 
       0.337538         281.483         206.708         279.479 
       0.343633         272.319         198.177         274.052 
       0.349808         264.248         190.435         267.103 
       0.355968         258.535         183.584           260.8 
       0.362074         249.305         177.489         253.475 
       0.368217         246.208          171.81         245.088 
       0.374374          240.17         166.318         238.792 
       0.380519         230.014         160.896         232.059 
       0.386598         226.155         155.526          228.19 
       0.392688         219.108         150.186         220.832 
        0.39888         214.059         144.906         215.392 
       0.405048         208.429         139.893         211.193 
       0.411186         206.709         135.223         205.035 
       0.417313         202.172          130.91         199.724 
       0.423458         196.903         126.887         195.807 
       0.429607         190.793         123.107         191.775 
       0.435692         187.539         119.541         186.751 
       0.441815         183.518         116.062          184.24 
       0.447964         177.897         112.641         180.234 
       0.454126         175.178         109.294         174.699 
       0.460267         172.673          106.05         172.928 
       0.466387         168.023         102.928         169.039 
        0.47254         165.985         99.9267         165.547 
       0.478662         161.079         97.0951         162.176 
       0.484765         158.381         94.4166         158.064 
       0.490885         155.792          91.857         155.644 
       0.497035         153.216          89.394         153.198 
       0.503198         151.392         87.0195         150.439 
       0.509342         147.512         84.7286         147.996 
       0.515458         144.794          82.511         145.901 
       0.521598         141.251         80.3478         142.451 
       0.527764         140.037         78.2459          140.28 
       0.533884         138.543         76.2355         138.113 
           0.54         135.324         74.3041         135.346 
       0.546137         132.032           72.44         133.638 
       0.552299         130.231         70.6395         130.721 
       0.558452         128.021         68.9098         128.503 
       0.564573         127.259         67.2504         127.194 
       0.570708         123.794         65.6428         125.394 
       0.576825         122.022           64.09         122.697 
       0.582926         120.773         62.5863         120.994 
       0.589034         118.487         61.1251         119.716 
       0.595184         117.078         59.6992         117.161 
       0.601379          115.01         58.3097         115.911 
       0.607522         112.155         56.9783         113.703 
       0.613639         111.385          55.697         112.747 
       0.619772         109.925         54.4541         111.164 
       0.625918         108.737         53.2479         109.315 
       0.632068         106.139         52.0777         107.611 
       0.638161         105.328         50.9523         106.754 
         0.6443         104.196         49.8514         105.158 
       0.650464         101.969         48.7787         102.885 
       0.656582         101.174         47.7452         102.097 
       0.662703         100.127         46.7415         100.548 
       0.668861         97.9168         45.7614         99.4962 
       0.675024         97.7067         44.8092         98.0909 
       0.681124         96.0315         43.8941         96.7424 
       0.687237         94.9049         43.0031          95.532 
       0.693381         93.2562         42.1329         94.1369 
       0.699536         92.5847         41.2853          93.181 
       0.705665         91.3701         40.4648         92.4146 
       0.711789         89.8714         39.6673         91.0551 
       0.717957         88.8537         38.8859         89.9781 
        0.72409         87.7166         38.1299          89.252 
       0.730186         87.5566         37.3988         88.2633 
       0.736317           86.34         36.6829          86.921 
       0.742472         84.6764         35.9834         86.0249 
       0.748622         83.3951         35.3029         84.9367 
        0.75476         83.5775         34.6416         83.9902 
       0.760888         82.4504         33.9985          82.775 
       0.767043         80.8623         33.3692         82.2585 
       0.773185         79.7542         32.7574         81.5976 
       0.779291          79.079         32.1644         80.5306 
       0.785407         78.3638         31.5854         79.4759 
       0.791564         77.5858          31.017         78.8276 
       0.797719         76.2969         30.4629         78.2905 
       0.803834         76.1639          29.926           77.19 
       0.809972          75.344         29.4001         76.4205 
       0.816124         73.9658         28.8857         75.7901 
       0.822261          73.335         28.3851         74.9472 
       0.828378         73.0082          27.898          73.977 
       0.834502         72.2597         27.4219         73.2921 
       0.840667         71.6123         26.9538         72.8826 
       0.846816          70.622         26.4981         72.1715 
       0.852925         69.9661         26.0558         71.4781 
       0.859047         69.2914         25.6228         70.7374 
       0.865192         68.6311         25.1982         70.0579 
       0.871341         68.0269         24.7829         69.3199 
       0.877463          67.349          24.379         68.7528 
       0.883569         67.2006         23.9851         68.3881 
       0.889708         66.4543          23.598         67.6243 
       0.895864         65.8167         23.2184         67.1623 
       0.902008         64.8993          22.848         66.3756 
       0.908149         64.1793          22.486         65.8438 
       0.914301         63.8595         22.1312         65.2916 
       0.920448         63.8081         21.7845         64.8058 
       0.926574         62.4021         21.4464         64.1516 
       0.932687         62.1962         21.1163         63.6842 
       0.938823         61.7768         20.7919         63.0187 
       0.944975         61.0712         20.4736         62.4828 
       0.951105         60.4653         20.1632         61.9786 
       0.957225         60.1911         19.8598         61.5218 
       0.963368         59.5369         19.5616          60.938 
       0.969511         59.1547         19.2696         60.4439 
       0.975621         58.2739         18.9851         60.3099 
       0.981748         58.0245         18.7056         59.7982 
       0.987916          57.451         18.4301           59.31 
        0.99406         57.2628         18.1611         58.6773 
        1.00019         56.5586         17.8981         58.1377 
        1.00632         56.0168         17.6405         57.7252 
        1.01246         55.6951         17.3876         57.2003 
        1.01859          55.366         17.1402         57.0155 
        1.02471         54.9717         16.8978         56.7078 
        1.03085           54.38         16.6594         56.1392 
        1.03698         53.9481          16.426         55.6933 
        1.04314         53.5725         16.1962         55.2295 
        1.04929         53.1777         15.9713         54.9612 
        1.05541         52.6808         15.7516         54.6824 
        1.06154         52.2226         15.5355         54.2188 
        1.06769         51.9164         15.3231         53.8348 
        1.07382         51.4471         15.1154         53.4818 
        1.07993         51.2385         14.9121         53.1106 
        1.08607          50.805         14.7116         52.7225 
        1.09222         50.4891         14.5146         52.3115 
        1.09836         50.0718         14.3215         51.9091 
        1.10449         49.7025         14.1321         51.6274 
        1.11063         49.3119          13.946         51.0895 
        1.11677         49.1432         13.7632         50.7586 
         1.1229         48.5216         13.5841         50.6217 
        1.12903          48.297          13.408         50.1885 
        1.13518           47.88         13.2349         49.8365 
        1.14131         47.5925         13.0649         49.4878 
        1.14745         47.3869         12.8981         49.2562 
        1.15359         46.7904         12.7341         48.8873 
        1.15973          46.697         12.5729         48.7013 
        1.16584         46.3453         12.4152         48.1504 
        1.17197         46.0057         12.2601         48.0563 
        1.17811         45.6834         12.1071         47.6736 
        1.18424         45.1706         11.9571         47.4227 
        1.19038          45.012         11.8093         47.0718 
        1.19652         44.7888          11.664         46.7558 
        1.20267         44.3628         11.5212         46.5353 
        1.20881         44.0446         11.3809         46.2039 
        1.21495          43.794          11.243         45.9049 
        1.22108         43.6688         11.1075         45.6947 
         1.2272         43.2667         10.9746         45.4002 
        1.23334         43.1069         10.8435         45.1981 
        1.23949         42.7075         10.7143         44.7995 
        1.24562         42.3667         10.5875         44.4871 
        1.25174         42.2681          10.463         44.3292 
        1.25789         41.9814         10.3401         44.0342 
        1.26402         41.6484         10.2194         43.8306 
        1.27014         41.4115         10.1009         43.6564 
        1.27628         41.1425         9.98399         43.3291 
        1.28244         41.1031         9.86868         43.0008 
        1.28858          40.683         9.75534         42.7618 
        1.29471         40.3133         9.64404         42.5969 
        1.30084         39.9921         9.53457          42.249 
        1.30697         39.9242         9.42664         42.0827 
        1.31312         39.7254         9.32023         41.9043 
        1.31925         39.3377         9.21579         41.5959 
        1.32537         39.1277         9.11305         41.4397 
        1.33151         38.9337         9.01152         41.1617 
        1.33765         38.7104         8.91159          40.932 
        1.34378          38.447         8.81338          40.743 
        1.34992         38.2333         8.71658         40.4841 
        1.35606         37.9336         8.62103         40.2785 
         1.3622         37.7866         8.52708         40.0921 
        1.36833          37.601         8.43476         39.8892 
        1.37445         37.2907         8.34385         39.6927 
        1.38059         37.0867         8.25401         39.4857 
        1.38675         36.8572         8.16528         39.2369 
        1.39288         36.6944         8.07821         39.0285 
        1.39901         36.4135         7.99244         38.8527 
        1.40515         36.1961         7.90774         38.7406 
         1.4113         36.0892         7.82429         38.5404 
        1.41742         35.8332         7.74237         38.2104 
        1.42355         35.6602         7.66147         38.0709 
         1.4297          35.504         7.58148         37.8729 
        1.43585         35.3251         7.50266         37.6691 
        1.44198         35.0039         7.42527         37.5104 
        1.44809         34.7329         7.34911          37.278 
        1.45423         34.6984         7.27375         37.0984 
        1.46036         34.5255         7.19958         36.9368 
        1.46649         34.2017         7.12642         36.7969 
        1.47263         34.0136         7.05421         36.6359 
        1.47877         33.8514         6.98304         36.3744 
        1.48491         33.5904         6.91275         36.2142 
        1.49104         33.5192         6.84357         36.0904 
        1.49718         33.2945         6.77528         35.9111 
        1.50333         33.1711         6.70782         35.7015 
        1.50947         32.8963         6.64142         35.5272 
         1.5156         32.8368         6.57602         35.3694 
        1.52172         32.5492         6.51149         35.2026 
        1.52787         32.4732         6.44771         35.0671 
          1.534         32.1866         6.38485         34.8924 
        1.54013         32.1929          6.3229         34.6983 
        1.54627         31.8519         6.26166          34.531 
        1.55241         31.7895         6.20122         34.3776 
        1.55855          31.566         6.14166          34.231 
        1.56467         31.2794         6.08305         34.1036 
         1.5708         31.3204         6.02504         33.9508 
        1.57695         31.0817         5.96769         33.8011 
        1.58308         30.9214         5.91122         33.6481 
        1.58922         30.6945         5.85544         33.4638 
        1.59535         30.7085         5.80041         33.3292 
         1.6015         30.5564           5.746         33.1488 
        1.60764         30.3206         5.69232         32.9963 
        1.61376         30.1428         5.63947         32.9216 
        1.61989         29.9014         5.58725         32.7527 
        1.62604         29.7983         5.53557          32.578 
        1.63218         29.5579         5.48458         32.4331 
        1.63831         29.4967         5.43435         32.3092 
        1.64444         29.3614         5.38473         32.1744 
        1.65059         29.1734         5.33561         32.0148 
        1.65673         29.0463         5.28716         31.8684 
        1.66285         28.9096         5.23945         31.7612 
        1.66898         28.7552          5.1923          31.659 
        1.67512         28.5257         5.14565         31.4803 
        1.68127         28.4969         5.09953         31.3189 
         1.6874         28.3934         5.05408          31.203 
        1.69353         28.1556          5.0092         31.0877 
        1.69967         28.0577         4.96477         30.9515 
        1.70581         27.9231         4.92089         30.8399 
        1.71193         27.7345         4.87771         30.7261 
        1.71806         27.6467         4.83496         30.5487 
        1.72421         27.4267         4.79263         30.4253 
        1.73035         27.3991         4.75086         30.3327 
        1.73649         27.1966         4.70959         30.2113 
        1.74262         27.0385         4.66885         30.0474 
        1.74876         27.0592         4.62856         29.9069 
        1.75489         26.7842         4.58883          29.801 
        1.76101         26.7636         4.54958         29.6972 
        1.76715         26.5375         4.51074         29.5611 
        1.77329         26.4035          4.4723          29.443 
        1.77943         26.3568         4.43429         29.3387 
        1.78557         26.2251         4.39678         29.2156 
        1.79171         26.0449          4.3597         29.0895 
        1.79785         25.9619         4.32303         28.9783 
        1.80399         25.7918          4.2868         28.8799 
        1.81012         25.6499         4.25103         28.7525 
        1.81625         25.5619         4.21569         28.6164 
        1.82239         25.4056         4.18069         28.5131 
        1.82853         25.3347         4.14611         28.4371 
        1.83466          25.159         4.11196         28.3105 
        1.84078         25.0565         4.07822         28.1579 
        1.84692         24.9326         4.04481          28.074 
        1.85306         24.8302         4.01173         27.9816 
         1.8592         24.6371         3.97907         27.8614 
        1.86533         24.6021          3.9468         27.7561 
        1.87147         24.4688         3.91484         27.6426 
        1.87761         24.3785         3.88322         27.5253 
