# k  (h/Mpc)    Pcb(k)  (Mpc/h)^3    Pcb_linear(k) (Mpc/h)^3    Pcb_NL(k) (Mpc/h)^3   ShotnoiseSubtracted = false
     0.00783031         21465.3         21592.1         21383.9 
       0.013688         23369.5         24043.2           23852 
       0.019231         21846.4         22194.6         22022.4 
      0.0249154         18829.8           18684         18557.7 
      0.0312784         14599.3         14658.2         14587.9 
      0.0375637         11427.8         11540.4           11512 
      0.0433917          9638.6         9603.94         9571.29 
      0.0492413         8404.59         8418.95         8393.92 
      0.0555754         7712.43         7668.33         7648.29 
      0.0619321         6947.03         7126.16         7105.36 
       0.067871         6515.34         6581.02         6571.97 
      0.0738098         5924.54         5909.14         5859.26 
      0.0800417         5171.76         5106.18         5103.85 
      0.0862327         4395.36         4323.76         4405.29 
      0.0921407         3825.79         3694.12         3799.38 
      0.0982031         3415.12          3220.1         3384.49 
       0.104506         3037.05         2908.49         3105.01 
       0.110769          2867.1         2734.14         2877.01 
       0.116806         2778.14         2629.64         2742.07 
       0.122832         2637.74         2527.53         2630.21 
       0.129052         2469.67         2382.82         2474.58 
       0.135211         2350.24         2190.29         2293.85 
       0.141259         2111.44         1972.36         2115.29 
       0.147318         1908.42         1757.01         1946.56 
       0.153489         1747.95          1569.6         1744.45 
       0.159709         1656.33         1428.75         1625.97 
       0.165845         1521.03         1336.52         1558.66 
       0.171974         1487.98         1278.61         1479.21 
       0.178125         1442.07         1237.13         1442.99 
       0.184229         1337.33         1195.46         1379.23 
        0.19034         1309.12         1142.07         1314.21 
       0.196428         1257.74         1074.58         1242.74 
       0.202534         1160.74         997.501         1179.97 
       0.208729         1128.15         918.823         1099.23 
       0.214876         1061.23         848.996         1058.67 
       0.220989         998.694         792.834         1013.44 
       0.227147         968.145         750.417         973.887 
        0.23329         928.845         719.387         946.077 
       0.239377         921.921         694.931         909.584 
       0.245482         874.672         671.661         871.174 
       0.251667         841.853         645.705          849.05 
       0.257832         823.823         616.099         812.596 
       0.263955         779.631         583.875         780.204 
       0.270079          750.33         551.152         750.993 
        0.27624         717.066         520.285         720.075 
       0.282372         702.952         493.399         699.863 
        0.28843         689.892         471.245         680.786 
       0.294538         655.316         452.794         659.304 
       0.300721         640.107         436.876          640.49 
        0.30691         623.938         422.138         629.504 
       0.313033         595.749         407.556         607.046 
       0.319153           587.6         392.302         588.884 
       0.325316           576.8          376.33         573.673 
        0.33145         561.142         360.281         550.948 
       0.337538         539.838         344.932         536.725 
       0.343633         525.794         330.698         528.582 
       0.349808         512.617         317.777         517.249 
       0.355968         502.381         306.346         505.647 
       0.362074         482.614         296.174         494.415 
       0.368217          479.59         286.698         479.988 
       0.374374         471.704         277.534         468.803 
       0.380519         452.295         268.486         456.948 
       0.386598         447.337         259.525          451.78 
       0.392688         434.683         250.614         438.058 
        0.39888         424.748         241.804         428.799 
       0.405048         413.637         233.438         420.244 
       0.411186         413.354         225.647         409.816 
       0.417313         406.279         218.449         401.794 
       0.423458         396.269         211.737         394.792 
       0.429607         383.344         205.427         387.683 
       0.435692         377.615         199.478         377.074 
       0.441815         370.768         193.672         373.584 
       0.447964         362.727         187.965         367.531 
       0.454126         358.474         182.378         356.698 
       0.460267         352.333         176.964         354.185 
       0.466387         343.689         171.755         347.761 
        0.47254         340.321         166.748         341.229 
       0.478662         332.575         162.022         334.197 
       0.484765         327.138         157.553         328.452 
       0.490885         324.549         153.281         322.681 
       0.497035         316.162         149.171         318.458 
       0.503198          315.19         145.209         313.955 
       0.509342         308.654         141.386         308.848 
       0.515458         302.362         137.686         305.018 
       0.521598         298.709         134.076         300.008 
       0.527764         293.597         130.569         296.995 
       0.533884          290.13         127.214         292.631 
           0.54         286.582         123.991         287.251 
       0.546137         280.464          120.88         283.792 
       0.552299         278.742         117.876         279.286 
       0.558452         273.744         114.989         275.762 
       0.564573         272.472          112.22         273.339 
       0.570708         266.813         109.538         269.929 
       0.576825         262.313         106.946         264.568 
       0.582926         261.215         104.438         262.187 
       0.589034         255.649         101.999         258.902 
       0.595184         253.966         99.6196         254.243 
       0.601379         249.621         97.3011         251.396 
       0.607522         244.108         95.0793         247.518 
       0.613639         243.248         92.9412         246.814 
       0.619772         242.021         90.8673         244.718 
       0.625918         236.865         88.8544         240.106 
       0.632068         235.139         86.9016         237.457 
       0.638161         232.887         85.0238         236.053 
         0.6443         229.038         83.1868         232.807 
       0.650464         226.803         81.3968         228.306 
       0.656582         223.814         79.6721         226.782 
       0.662703         223.191         77.9973         224.617 
       0.668861         218.186         76.3618         222.986 
       0.675024         217.363         74.7729         220.676 
       0.681124         213.742         73.2459         217.145 
       0.687237         212.721          71.759         214.938 
       0.693381         208.782         70.3069         212.561 
       0.699536         208.414         68.8925         210.919 
       0.705665         205.479         67.5233         208.001 
       0.711789         202.634         66.1925         206.949 
       0.717957         201.594         64.8886          205.54 
        0.72409         198.625         63.6272         203.049 
       0.730186         199.146         62.4071         200.715 
       0.736317         195.777         61.2126          198.99 
       0.742472         194.046         60.0452         196.987 
       0.748622         192.102         58.9097         194.865 
        0.75476         191.056         57.8063         194.494 
       0.760888         188.884          56.733          191.56 
       0.767043         185.953          55.683         190.013 
       0.773185         183.931          54.662         188.619 
       0.779291         183.012         53.6725         186.367 
       0.785407         181.448         52.7063         184.755 
       0.791564         180.101         51.7578         183.143 
       0.797719         177.191         50.8333         181.814 
       0.803834         177.149         49.9373         180.615 
       0.809972         174.628         49.0597         178.968 
       0.816124         172.355         48.2014         177.385 
       0.822261         171.027         47.3661         176.325 
       0.828378         170.309         46.5532         174.437 
       0.834502         168.192         45.7587         172.954 
       0.840667         167.922         44.9777         171.376 
       0.846816         165.103         44.2172         170.351 
       0.852925         164.844         43.4792          169.08 
       0.859047         162.686         42.7565          167.77 
       0.865192         161.986          42.048         166.026 
       0.871341         160.578         41.3551         164.846 
       0.877463         159.084         40.6811         163.986 
       0.883569         158.517         40.0238         163.473 
       0.889708         157.232         39.3778         161.378 
       0.895864         154.888         38.7444         160.455 
       0.902008         153.808         38.1264         158.888 
       0.908149         152.268         37.5222         157.732 
       0.914301         151.289         36.9302         156.427 
       0.920448          150.49         36.3516         155.561 
       0.926574         148.893         35.7875         154.267 
       0.932687         148.596         35.2366         153.282 
       0.938823         147.189         34.6953         152.461 
       0.944975         146.773         34.1642         151.229 
       0.951105         144.845         33.6462         150.186 
       0.957225         143.798         33.1399         148.989 
       0.963368         143.466         32.6423         147.964 
       0.969511         141.634          32.155         146.867 
       0.975621         139.645         31.6803         146.274 
       0.981748         139.582         31.2139         145.424 
       0.987916         138.697         30.7541         144.216 
        0.99406          137.41         30.3053         143.173 
        1.00019         136.869         29.8664         142.198 
        1.00632         135.718         29.4366         141.142 
        1.01246          134.63         29.0147         139.876 
        1.01859         133.296         28.6017         139.391 
        1.02471         132.339         28.1973         138.632 
        1.03085          131.73         27.7994         137.815 
        1.03698         130.997           27.41         137.268 
        1.04314         130.193         27.0265         136.076 
        1.04929         129.272         26.6512         135.152 
        1.05541          128.95         26.2846         134.517 
        1.06154         127.507         25.9239         133.808 
        1.06769         126.729         25.5696         133.016 
        1.07382         125.352          25.223         132.244 
        1.07993          124.93         24.8837         131.383 
        1.08607         124.665         24.5492         130.433 
        1.09222         123.098         24.2205         129.822 
        1.09836          122.42         23.8982         128.954 
        1.10449         121.906         23.5822         128.565 
        1.11063         120.605         23.2715         127.521 
        1.11677         120.054         22.9666         126.604 
         1.1229         119.355         22.6677         125.928 
        1.12903         117.974         22.3738         125.188 
        1.13518         117.465          22.085         124.587 
        1.14131         117.109         21.8014         123.668 
        1.14745         115.909         21.5229         122.971 
        1.15359         115.333         21.2493         122.433 
        1.15973         114.681         20.9803         121.791 
        1.16584         113.903         20.7172         121.012 
        1.17197         113.366         20.4583         120.555 
        1.17811         112.334          20.203         119.701 
        1.18424         111.715         19.9528         118.824 
        1.19038         111.124         19.7061         118.678 
        1.19652         109.986         19.4637         117.684 
        1.20267         109.382         19.2254          117.26 
        1.20881         108.667         18.9912         116.414 
        1.21495         108.445         18.7612         115.953 
        1.22108         107.425         18.5351         115.294 
         1.2272         107.337         18.3132         114.602 
        1.23334         106.203         18.0945         114.291 
        1.23949          105.61         17.8788         113.495 
        1.24562         104.821         17.6673         112.545 
        1.25174           104.7         17.4595         112.019 
        1.25789         103.799         17.2544         111.368 
        1.26402         103.095          17.053         111.087 
        1.27014         102.529         16.8554          110.59 
        1.27628         102.185         16.6602         110.287 
        1.28244         101.252         16.4678         109.428 
        1.28858         100.777         16.2787         108.874 
        1.29471         99.9821         16.0929         108.354 
        1.30084         99.5179         15.9103         107.557 
        1.30697         98.8235         15.7302         107.042 
        1.31312         98.4767         15.5526         106.433 
        1.31925         97.3894         15.3783         106.107 
        1.32537         97.1019         15.2069         105.732 
        1.33151         96.3838         15.0375         105.101 
        1.33765         96.1162         14.8707         104.624 
        1.34378         95.5918         14.7068         104.142 
        1.34992         94.8461         14.5453         103.506 
        1.35606         94.5309         14.3858         102.932 
         1.3622         93.9201         14.2291         102.587 
        1.36833         93.3204          14.075         101.883 
        1.37445         92.6954         13.9233         101.468 
        1.38059         92.1649         13.7734          100.77 
        1.38675         91.7261         13.6253         100.314 
        1.39288         91.0905           13.48         99.8159 
        1.39901         90.4831         13.3369         99.4879 
        1.40515         90.1041         13.1956         99.1313 
         1.4113         89.5594         13.0563         98.7102 
        1.41742         89.3704         12.9196         98.2044 
        1.42355         88.6061         12.7846          97.582 
         1.4297         88.0588         12.6512         97.2555 
        1.43585         87.7936         12.5196         96.6327 
        1.44198         87.2217         12.3905          96.477 
        1.44809         86.5856         12.2634         95.8651 
        1.45423         86.3217         12.1377         95.2656 
        1.46036         85.5864         12.0139         94.8895 
        1.46649         85.0591         11.8918         94.6037 
        1.47263         84.7354         11.7713         94.2046 
        1.47877         84.3114         11.6526         93.5629 
        1.48491         83.6945         11.5352         93.1309 
        1.49104         83.3045         11.4198         92.9431 
        1.49718         82.7576         11.3059         92.2875 
        1.50333         82.1637         11.1933         91.7839 
        1.50947         82.0998         11.0825         91.4796 
         1.5156         81.4095         10.9733          91.114 
        1.52172         80.7956         10.8657          90.661 
        1.52787           80.59         10.7592         90.2293 
          1.534         80.2023         10.6544         89.8888 
        1.54013          79.687          10.551         89.5506 
        1.54627         79.2455         10.4488         89.1496 
        1.55241         78.8868         10.3479         88.6896 
        1.55855         78.2311         10.2485         88.2206 
        1.56467         77.8447         10.1507         87.9246 
         1.5708         77.3546         10.0539         87.5308 
        1.57695         77.0622         9.95824         87.1044 
        1.58308         76.5003         9.86401         86.8032 
        1.58922         76.1864         9.77093         86.4333 
        1.59535         75.9657         9.67909         86.0717 
         1.6015         75.3053         9.58831         85.6509 
        1.60764         74.9467         9.49872         85.2768 
        1.61376           74.84         9.41053         85.0385 
        1.61989         74.2338          9.3234         84.6677 
        1.62604         73.9544         9.23716         84.0308 
        1.63218         73.3012         9.15208         83.6237 
        1.63831         73.1238         9.06826         83.5061 
        1.64444         72.5328         8.98546         83.1186 
        1.65059         72.1185         8.90349         82.7321 
        1.65673         71.9122         8.82264         82.3331 
        1.66285           71.64         8.74302         82.0079 
        1.66898          70.979         8.66436         81.7556 
        1.67512         70.4933         8.58651         81.3556 
        1.68127         70.2892         8.50955         81.0546 
         1.6874         70.1161          8.4337         80.7623 
        1.69353         69.4462         8.35882         80.2935 
        1.69967         69.1496         8.28467          80.005 
        1.70581         68.7799         8.21146         79.7039 
        1.71193         68.4794          8.1394         79.3277 
        1.71806         67.9059         8.06806          79.029 
        1.72421         67.5962         7.99743         78.7232 
        1.73035         67.2811         7.92772         78.3922 
        1.73649         66.9558         7.85886         78.0314 
        1.74262         66.5187         7.79088         77.6327 
        1.74876         66.1207         7.72365         77.3299 
        1.75489         66.0854         7.65735         77.0656 
        1.76101          65.654         7.59185          76.761 
        1.76715         65.2472         7.52703          76.453 
        1.77329         64.8674         7.46289         76.1035 
        1.77943          64.466         7.39946         75.7784 
        1.78557         64.2491         7.33687         75.5268 
        1.79171          63.798         7.27499         75.2121 
        1.79785         63.5818         7.21381         74.8563 
        1.80399         63.1185         7.15335         74.5473 
        1.81012         62.7774         7.09367         74.2563 
        1.81625         62.4606         7.03469         73.9537 
        1.82239         62.1505         6.97629         73.6565 
        1.82853          61.837         6.91858         73.3824 
        1.83466         61.5139         6.86159         73.0606 
        1.84078         61.1539         6.80529         72.7566 
        1.84692         60.9012         6.74954         72.5814 
        1.85306         60.7164         6.69434         72.2289 
         1.8592         60.4049         6.63984         71.8192 
        1.86533         59.9231         6.58599         71.6146 
        1.87147         59.6109         6.53266         71.3471 
