# k  (h/Mpc)    Pcb(k)  (Mpc/h)^3    Pcb_linear(k) (Mpc/h)^3    Pcb_NL(k) (Mpc/h)^3   ShotnoiseSubtracted = false
     0.00783031         19198.8         19315.3         19130.9 
       0.013688         20934.6         21509.1         21342.6 
       0.019231         19563.5         19855.8         19707.5 
      0.0249154         16843.4         16715.4         16609.7 
      0.0312784         13070.8         13113.8         13059.6 
      0.0375637         10232.7         10324.6         10304.2 
      0.0433917         8625.63         8592.19          8568.4 
      0.0492413         7521.57         7532.06         7514.33 
      0.0555754         6902.23         6860.53         6845.46 
      0.0619321         6224.79         6375.48         6359.17 
       0.067871         5836.49         5887.77         5880.62 
      0.0738098         5300.95         5286.67         5246.88 
      0.0800417         4625.76          4568.3         4567.03 
      0.0862327         3928.28          3868.3         3935.13 
      0.0921407         3412.43         3304.99         3391.08 
      0.0982031         3041.97          2880.9         3015.06 
       0.104506         2705.17         2602.11         2762.31 
       0.110769         2553.34         2446.13         2561.87 
       0.116806         2475.72         2352.64         2443.46 
       0.122832         2349.78         2261.29         2344.54 
       0.129052         2203.74         2131.82         2205.89 
       0.135211         2091.63         1959.57         2043.76 
       0.141259         1878.55          1764.6         1880.63 
       0.147318         1693.59         1571.93         1726.98 
       0.153489         1548.72         1404.26         1546.36 
       0.159709         1463.87         1278.25         1438.54 
       0.165845         1343.18         1195.73         1377.18 
       0.171974         1315.59         1143.93         1306.66 
       0.178125         1273.69         1106.82         1274.36 
       0.184229         1184.09         1069.54         1219.12 
        0.19034         1157.16         1021.77         1161.57 
       0.196428          1110.4         961.391         1096.77 
       0.202534         1022.07         892.429         1039.91 
       0.208729         992.406         822.038         968.294 
       0.214876         933.391         759.567         930.948 
       0.220989         875.258          709.32         889.525 
       0.227147         848.961         671.372         853.217 
        0.23329         814.574         643.611         828.464 
       0.239377         807.215         621.731         796.527 
       0.245482         765.587         600.911         762.517 
       0.251667         736.232         577.689         743.026 
       0.257832         721.027         551.202         710.603 
       0.263955         680.923         522.373          681.48 
       0.270079         653.834         493.096         655.349 
        0.27624         624.462         465.481         627.521 
       0.282372         610.769         441.427         608.751 
        0.28843         600.626         421.606         591.089 
       0.294538         569.667         405.099         572.534 
       0.300721         555.396         390.857         556.286 
        0.30691         542.334         377.672         545.755 
       0.313033         516.891         364.627         526.128 
       0.319153         509.133         350.979         510.187 
       0.325316         499.354         336.689         496.497 
        0.33145         485.566         322.331         476.609 
       0.337538         466.664         308.599         463.579 
       0.343633         453.768         295.864         456.341 
       0.349808         441.878         284.305         446.051 
       0.355968         433.049         274.077         436.045 
       0.362074         415.845         264.977         425.675 
       0.368217         412.961         256.499         412.675 
       0.374374         405.541           248.3         402.849 
       0.380519         388.529         240.205         392.315 
       0.386598         383.819         232.188         387.662 
       0.392688         372.821         224.215         375.342 
        0.39888         363.889         216.333         367.367 
       0.405048         354.418         208.849         360.203 
       0.411186         353.828         201.878         350.571 
       0.417313         347.536         195.439         343.226 
       0.423458         338.752         189.434         337.176 
       0.429607           327.6         183.789         330.836 
       0.435692         322.507         178.466         321.832 
       0.441815         316.578         173.271         318.559 
       0.447964         308.985         168.165         312.973 
       0.454126         305.353         163.167         303.637 
       0.460267         300.005         158.324         301.339 
       0.466387         292.546         153.664          295.59 
        0.47254         289.378         149.184         289.911 
       0.478662         282.569         144.955         283.879 
       0.484765         277.848         140.957         278.428 
       0.490885         275.143         137.135         273.741 
       0.497035          268.46         133.458         269.926 
       0.503198         267.369         129.913         265.907 
       0.509342         261.514         126.493         261.667 
       0.515458         256.284         123.183         258.287 
       0.521598          252.22         119.953         253.622 
       0.527764         248.616         116.815         250.894 
       0.533884         245.837         113.814         247.116 
           0.54         242.243          110.93         242.401 
       0.546137         236.722         108.147         239.466 
       0.552299         235.076         105.459         235.343 
       0.558452         230.855         102.877         232.151 
       0.564573         229.708           100.4         230.077 
       0.570708         224.546         97.9997           227.2 
       0.576825         220.805         95.6813         222.474 
       0.582926         219.589         93.4367         220.287 
       0.589034         214.994          91.255         217.662 
       0.595184         213.447         89.1262         213.433 
       0.601379         209.922         87.0519         211.107 
       0.607522         204.875         85.0641         207.792 
       0.613639         204.096         83.1513         207.007 
       0.619772         202.966         81.2958         204.955 
       0.625918         198.879          79.495         201.069 
       0.632068         196.645         77.7479         198.552 
       0.638161         195.177         76.0678         197.495 
         0.6443          191.92         74.4244         194.754 
       0.650464         189.598         72.8229         190.812 
       0.656582         187.204         71.2799          189.48 
       0.662703         186.512         69.7815         187.496 
       0.668861         182.204         68.3183         185.944 
       0.675024         181.525         66.8967         183.936 
       0.681124         178.843         65.5306         181.035 
       0.687237         177.674         64.2003         179.141 
       0.693381         174.151         62.9011         176.982 
       0.699536         173.779         61.6358         175.471 
       0.705665         171.418         60.4108         173.309 
       0.711789         168.763         59.2202          172.18 
       0.717957         167.839         58.0536         170.754 
        0.72409         165.282          56.925         168.886 
       0.730186         165.827         55.8335         166.966 
       0.736317         163.156         54.7648         165.225 
       0.742472         161.316         53.7204         163.492 
       0.748622         159.328         52.7045         161.756 
        0.75476         158.979         51.7173         161.133 
       0.760888         156.901         50.7571         158.608 
       0.767043         154.257         49.8177         157.434 
       0.773185         152.535         48.9042         156.285 
       0.779291         151.756          48.019         154.303 
       0.785407         150.376         47.1545         152.809 
       0.791564         149.135          46.306         151.551 
       0.797719         146.636         45.4788         150.522 
       0.803834         146.813         44.6771         149.285 
       0.809972         144.784          43.892         147.932 
       0.816124         142.429         43.1242         146.672 
       0.822261         141.533         42.3768         145.576 
       0.828378         140.883         41.6495         143.941 
       0.834502         139.388         40.9387         142.653 
       0.840667         139.003           40.24         141.454 
       0.846816         136.486         39.5596         140.529 
       0.852925          136.11         38.8993         139.447 
       0.859047         134.456         38.2528         138.333 
       0.865192         133.779         37.6189         136.821 
       0.871341         132.634          36.999          135.77 
       0.877463         131.289         36.3959         135.055 
       0.883569         130.944         35.8079         134.459 
       0.889708         129.835         35.2299         132.806 
       0.895864         127.966         34.6633         132.015 
       0.902008         126.882         34.1103         130.731 
       0.908149         125.651         33.5698         129.753 
       0.914301         124.629         33.0402         128.634 
       0.920448         124.426         32.5226         127.889 
       0.926574         122.722         32.0178         126.742 
       0.932687          122.44         31.5249         126.069 
       0.938823         121.384         31.0407         125.111 
       0.944975         120.875         30.5656         124.157 
       0.951105         119.335         30.1021         123.195 
       0.957225         118.523         29.6491         122.284 
       0.963368         117.953          29.204         121.371 
       0.969511         116.631          28.768         120.389 
       0.975621         114.915         28.3432         120.014 
       0.981748          114.84          27.926         119.207 
       0.987916         114.105         27.5147         118.252 
        0.99406          113.08         27.1131         117.299 
        1.00019         112.657         26.7204         116.444 
        1.00632         111.533         26.3359         115.575 
        1.01246         110.669         25.9584         114.502 
        1.01859         109.706         25.5889         114.147 
        1.02471         108.965         25.2272         113.574 
        1.03085         108.329         24.8711         112.837 
        1.03698         107.545         24.5228          112.29 
        1.04314         106.988         24.1796         111.324 
        1.04929         106.301         23.8439         110.647 
        1.05541         105.824         23.5159         110.097 
        1.06154         104.548         23.1933         109.393 
        1.06769         103.935         22.8762         108.748 
        1.07382         103.077         22.5662         108.131 
        1.07993         102.619         22.2626         107.362 
        1.08607         102.382         21.9633         106.617 
        1.09222         101.053         21.6692         106.102 
        1.09836         100.512         21.3809          105.32 
        1.10449         100.034         21.0982          104.97 
        1.11063         98.9242         20.8202         104.052 
        1.11677         98.6559         20.5474         103.368 
         1.1229         97.6962           20.28         102.808 
        1.12903         96.7096         20.0171         102.167 
        1.13518         96.2132         19.7587         101.654 
        1.14131         96.0203         19.5049         100.808 
        1.14745          95.047         19.2558         100.346 
        1.15359          94.562          19.011         99.8724 
        1.15973          94.015         18.7704         99.3632 
        1.16584          93.241          18.535         98.5884 
        1.17197         92.8436         18.3033         98.2752 
        1.17811         92.1426         18.0749          97.552 
        1.18424         91.4808         17.8511          96.847 
        1.19038         91.0236         17.6304         96.6462 
        1.19652         90.2677         17.4135         95.9304 
        1.20267         89.6085         17.2003         95.5011 
        1.20881         88.9996         16.9907         94.7686 
        1.21495         88.8348          16.785         94.4195 
        1.22108         88.0017         16.5827         93.9339 
         1.2272         87.9424         16.3842         93.3213 
        1.23334         87.1453         16.1885         93.0801 
        1.23949         86.4607         15.9956         92.3744 
        1.24562         85.8018         15.8063          91.608 
        1.25174         85.8706         15.6204         91.1738 
        1.25789         85.0145          15.437         90.6665 
        1.26402         84.4735         15.2568         90.4195 
        1.27014          83.838         15.0799         90.0016 
        1.27628         83.5808         14.9053         89.7083 
        1.28244         83.0055         14.7332         88.9938 
        1.28858         82.6067          14.564          88.504 
        1.29471         82.0075         14.3978         88.1252 
        1.30084         81.4347         14.2344         87.4367 
        1.30697          80.893         14.0732         87.0679 
        1.31312          80.595         13.9144         86.6578 
        1.31925         79.7653         13.7585          86.307 
        1.32537         79.4157         13.6051         85.9722 
        1.33151         79.1456         13.4535         85.4416 
        1.33765         78.6238         13.3043         85.0635 
        1.34378           78.31         13.1577         84.6486 
        1.34992         77.7048         13.0132         84.1011 
        1.35606         77.4971         12.8705         83.7027 
         1.3622         76.9761         12.7303         83.3778 
        1.36833         76.4172         12.5924          82.775 
        1.37445         76.0029         12.4567         82.5323 
        1.38059         75.4891         12.3226         81.8978 
        1.38675         75.1959         12.1901         81.5454 
        1.39288         74.6429         12.0601         81.0829 
        1.39901          74.289         11.9321         80.8175 
        1.40515         73.8202         11.8056         80.5789 
         1.4113         73.3459         11.6811         80.2647 
        1.41742         73.2715         11.5588         79.8219 
        1.42355         72.6955          11.438         79.3001 
         1.4297         72.1828         11.3186         79.0163 
        1.43585         71.9577         11.2009         78.5069 
        1.44198         71.4222         11.0853         78.3568 
        1.44809         70.9509         10.9717         77.9092 
        1.45423         70.8362         10.8591         77.4161 
        1.46036          70.159         10.7484         77.0929 
        1.46649         69.7705         10.6392          76.843 
        1.47263         69.3316         10.5314         76.5004 
        1.47877         69.1673         10.4251         75.9815 
        1.48491         68.6421         10.3202         75.6533 
        1.49104         68.2735         10.2169         75.4885 
        1.49718         67.8427          10.115         74.9569 
        1.50333         67.4155         10.0143         74.5542 
        1.50947         67.3271         9.91512         74.2947 
         1.5156         66.7904         9.81748         73.9822 
        1.52172         66.2167         9.72115         73.6117 
        1.52787         66.1173         9.62592         73.2685 
          1.534         65.7961         9.53209         73.0339 
        1.54013         65.3478          9.4396         72.7376 
        1.54627         65.0072         9.34817          72.368 
        1.55241         64.7802         9.25794         72.0136 
        1.55855          64.163         9.16902         71.6799 
        1.56467         63.7942         9.08152         71.4102 
         1.5708         63.3944         8.99491         71.0664 
        1.57695         63.1757         8.90929         70.7451 
        1.58308         62.8974         8.82499         70.4845 
        1.58922         62.5636         8.74172         70.1615 
        1.59535         62.3911         8.65955         69.8992 
         1.6015         61.8166         8.57833         69.5466 
        1.60764         61.4832         8.49818         69.2202 
        1.61376         61.4319         8.41928         69.0616 
        1.61989         60.9346         8.34132         68.7599 
        1.62604         60.7067         8.26417         68.2268 
        1.63218         60.1804         8.18805         67.8978 
        1.63831         60.0356         8.11306         67.8177 
        1.64444         59.6335         8.03898         67.4878 
        1.65059         59.2723         7.96565         67.1468 
        1.65673         59.0904         7.89332         66.8419 
        1.66285         58.7491         7.82208         66.6045 
        1.66898         58.2548          7.7517         66.3898 
        1.67512         57.9527         7.68206         66.0624 
        1.68127         57.7231          7.6132         65.7804 
         1.6874         57.5719         7.54534         65.5189 
        1.69353          57.111         7.47835         65.1816 
        1.69967         56.8242         7.41201         64.9366 
        1.70581         56.5505         7.34651            64.7 
        1.71193          56.292         7.28204         64.4375 
        1.71806         55.9002         7.21822         64.1972 
        1.72421         55.6236         7.15503         63.9111 
        1.73035         55.3277         7.09266         63.6217 
        1.73649         55.0641         7.03106         63.3533 
        1.74262         54.7786         6.97023         63.0688 
        1.74876         54.4235         6.91008         62.8072 
        1.75489         54.3609         6.85077         62.5583 
        1.76101         54.0171         6.79217         62.3044 
        1.76715         53.6804         6.73418         62.0635 
        1.77329          53.395         6.67679         61.8096 
        1.77943          53.086         6.62005         61.5542 
        1.78557          52.951         6.56405          61.317 
        1.79171         52.4793         6.50869          61.067 
        1.79785         52.4177         6.45395         60.8041 
        1.80399         52.0794         6.39986          60.547 
        1.81012         51.7251         6.34646         60.3021 
        1.81625         51.5461         6.29369         60.0521 
        1.82239         51.1318         6.24145           59.81 
        1.82853         51.0397         6.18982          59.599 
        1.83466         50.7284         6.13883         59.3501 
        1.84078         50.3449         6.08846         59.1052 
        1.84692         50.2129         6.03858         58.9554 
        1.85306         50.1315          5.9892         58.6867 
         1.8592         49.7913         5.94044          58.368 
        1.86533         49.4348         5.89226         58.1745 
        1.87147         49.1814         5.84455         57.9359 
