# k  (h/Mpc)    P(k)  (Mpc/h)^3    P_linear(k)  (Mpc/h)^3     P_NL(k)  ShotnoiseSubtracted = false
     0.00783031         15925.9         16026.4         15875.1 
       0.013688         17405.1         17848.1           17715 
       0.019231         16256.8         16476.8         16360.2 
      0.0249154         13973.5         13871.1         13791.7 
      0.0312784         10857.7         10882.5         10847.3 
      0.0375637         8502.22         8567.93         8556.75 
      0.0433917         7160.61         7130.33         7116.82 
      0.0492413         6244.67          6250.6         6241.21 
      0.0555754         5730.02         5693.33          5684.1 
      0.0619321         5177.28         5290.82         5279.93 
       0.067871         4851.87          4886.1          4881.2 
      0.0738098         4399.55         4387.27         4359.69 
      0.0800417         3836.99         3791.11            3791 
      0.0862327         3255.16         3210.21         3258.62 
      0.0921407         2819.88         2742.73         2804.92 
      0.0982031         2508.77         2390.79         2487.24 
       0.104506          2231.3         2159.43          2274.3 
       0.110769         2105.49         2029.99         2112.31 
       0.116806          2042.9          1952.4         2016.76 
       0.122832         1938.48         1876.59          1935.9 
       0.129052         1822.08         1769.15          1821.6 
       0.135211         1722.71          1626.2         1686.44 
       0.141259         1546.68          1464.4         1547.12 
       0.147318         1389.71         1304.51          1416.2 
       0.153489         1267.85         1165.37         1266.82 
       0.159709         1193.83          1060.8         1175.19 
       0.165845         1094.59         992.312         1122.68 
       0.171974         1073.45         949.321         1065.15 
       0.178125         1037.82         918.526         1038.27 
       0.184229         968.576         887.589         994.635 
        0.19034         944.329         847.947         947.629 
       0.196428         904.321         797.841         893.119 
       0.202534         829.803         740.608         844.992 
       0.208729         803.911         682.193         786.304 
       0.214876         755.989          630.35         753.692 
       0.220989         705.481         588.651         718.175 
       0.227147         684.686         557.158         687.073 
        0.23329         657.072         534.118         666.557 
       0.239377         649.366         515.962         641.082 
       0.245482         615.939         498.684         613.389 
       0.251667         591.494         479.412         597.409 
       0.257832          579.85         457.433         570.844 
       0.263955         545.993         433.507         546.547 
       0.270079         522.594         409.211         524.789 
        0.27624         498.722         386.292         501.458 
       0.282372         486.087         366.328         485.219 
        0.28843         479.041         349.883         469.975 
       0.294538         453.752         336.184         455.218 
       0.300721         441.011         324.364         442.413 
        0.30691         431.625         313.422         432.894 
       0.313033         410.637         302.598         417.161 
       0.319153         403.716         291.271         404.268 
       0.325316         395.136         279.412         392.931 
        0.33145         383.817         267.496             377 
       0.337538         368.515           256.1         365.805 
       0.343633         357.415         245.531         359.607 
       0.349808         347.482         235.939         350.987 
       0.355968         340.381         227.451         342.985 
       0.362074           327.2         219.899         334.085 
       0.368217         324.291         212.864         323.401 
       0.374374         317.484         206.059         315.417 
       0.380519         304.052         199.341         306.853 
       0.386598         299.744         192.688         302.671 
       0.392688         290.877         186.072         292.777 
        0.39888         283.826         179.531         286.228 
       0.405048         276.454          173.32         280.763 
       0.411186         275.312         167.534         272.732 
       0.417313         269.968         162.191           266.4 
       0.423458         262.975         157.207         261.521 
       0.429607         254.431         152.523         256.368 
       0.435692         250.265         148.105         249.503 
       0.441815         245.449         143.795         246.606 
       0.447964         238.741         139.557         241.812 
       0.454126         235.663         135.409         234.477 
       0.460267         231.753          131.39         232.443 
       0.466387         225.778         127.523         227.667 
        0.47254         223.129         123.804         223.129 
       0.478662         217.372         120.296          218.53 
       0.484765         213.709         116.977         213.664 
       0.490885         210.995         113.806         210.261 
       0.497035         206.579         110.755         207.124 
       0.503198         205.159         107.813         203.775 
       0.509342         200.267         104.974         200.548 
       0.515458         196.452         102.227         197.828 
       0.521598         192.364         99.5467         193.743 
       0.527764           190.3         96.9425         191.347 
       0.533884         188.244         94.4517         188.412 
           0.54         184.773         92.0588         184.683 
       0.546137         180.329         89.7493         182.438 
       0.552299         178.605         87.5186         178.896 
       0.558452         175.476         85.3756         176.193 
       0.564573         174.548         83.3197         174.538 
       0.570708         170.173          81.328          172.27 
       0.576825         167.504         79.4041         168.571 
       0.582926          166.16         77.5412         166.626 
       0.589034         162.886         75.7307         164.773 
       0.595184         161.394         73.9641         161.335 
       0.601379         158.756         72.2426         159.663 
       0.607522         154.745         70.5931         156.969 
       0.613639         153.967         69.0056          156.05 
       0.619772         152.687         67.4658         154.183 
       0.625918         150.258         65.9713         151.379 
       0.632068         147.526         64.5215         149.212 
       0.638161         146.649         63.1272         148.353 
         0.6443          144.49         61.7633         146.263 
       0.650464         142.085         60.4343         143.172 
       0.656582         140.565         59.1538          142.11 
       0.662703         139.687         57.9102          140.33 
       0.668861         136.484          56.696         139.001 
       0.675024         136.069         55.5163         137.312 
       0.681124         134.056         54.3825         135.316 
       0.687237         132.892         53.2786         133.766 
       0.693381         130.243         52.2004         131.971 
       0.699536         129.738         51.1503         130.686 
       0.705665         128.047         50.1337         129.423 
       0.711789         125.934         49.1456          128.12 
       0.717957         124.946         48.1775         126.782 
        0.72409         123.113         47.2409         125.616 
       0.730186         123.358         46.3351         124.239 
       0.736317          121.55         45.4482          122.62 
       0.742472         119.663         44.5815         121.351 
       0.748622         117.923         43.7384         119.972 
        0.75476         118.079         42.9192         119.083 
       0.760888         116.411         42.1223         117.235 
       0.767043         114.311         41.3427         116.444 
       0.773185         112.929         40.5846         115.599 
       0.779291         112.193           39.85         114.091 
       0.785407          111.17         39.1326         112.786 
       0.791564         110.093         38.4284         111.922 
       0.797719         108.246         37.7419         111.203 
       0.803834         108.376         37.0767         109.957 
       0.809972         106.994         36.4251         108.941 
       0.816124         105.022         35.7879         108.041 
       0.822261         104.428         35.1677         107.028 
       0.828378         103.868         34.5641         105.727 
       0.834502         102.919         33.9742         104.721 
       0.840667         102.311         33.3944         104.025 
       0.846816         100.552         32.8298         103.193 
       0.852925         100.008         32.2818         102.353 
       0.859047         98.8667         31.7452         101.432 
       0.865192          98.208         31.2192         100.333 
       0.871341         97.4066         30.7047         99.4194 
       0.877463         96.4214         30.2043         98.8014 
       0.883569         96.2075         29.7163         98.2751 
       0.889708         95.2897         29.2366         97.1608 
       0.895864         94.1116         28.7664         96.5732 
       0.902008         93.0016         28.3075         95.5603 
       0.908149         92.0898         27.8589         94.7952 
       0.914301          91.399         27.4194         93.9629 
       0.920448         91.4572         26.9898          93.378 
       0.926574         89.7728          26.571          92.481 
       0.932687         89.5585         26.1619         91.9682 
       0.938823         88.9158         25.7601         91.0815 
       0.944975         88.2285         25.3658         90.3732 
       0.951105         87.2654         24.9812         89.6094 
       0.957225          86.721         24.6052         89.0065 
       0.963368         85.9737         24.2358          88.248 
       0.969511           85.27          23.874           87.51 
       0.975621         83.9658         23.5215         87.3435 
       0.981748         83.8107         23.1753         86.6516 
       0.987916         83.1648         22.8339         85.9564 
        0.99406         82.6174         22.5007         85.1623 
        1.00019         82.0442         22.1748         84.4627 
        1.00632         81.1822         21.8557         83.8569 
        1.01246         80.6264         21.5424         83.0551 
        1.01859         80.1015         21.2358         82.8182 
        1.02471         79.6082         20.9355         82.4362 
        1.03085         78.9086         20.6401         81.7814 
        1.03698         78.2051          20.351         81.2365 
        1.04314         77.8117         20.0662         80.5542 
        1.04929         77.3434         19.7876         80.1681 
        1.05541           76.71         19.5154         79.7407 
        1.06154         75.8477         19.2476         79.1422 
        1.06769         75.4472         18.9845         78.6527 
        1.07382         74.9879         18.7272          78.188 
        1.07993         74.6118         18.4753          77.623 
        1.08607         74.2039         18.2269          77.063 
        1.09222         73.4142         17.9829         76.6416 
        1.09836         72.9413         17.7436         76.0256 
        1.10449         72.5063          17.509         75.7029 
        1.11063         71.8452         17.2783         74.9619 
        1.11677         71.6269         17.0519         74.5153 
         1.1229         70.7135           16.83         74.2022 
        1.12903         70.2142         16.6118         73.6238 
        1.13518         69.6748         16.3973         73.2119 
        1.14131         69.4891         16.1868         72.6152 
        1.14745         69.0311           15.98         72.3061 
        1.15359         68.4305         15.7769         71.8915 
        1.15973         68.1404         15.5772         71.6098 
        1.16584           67.57         15.3818         70.8952 
        1.17197         67.2083         15.1896         70.7272 
        1.17811         66.7451              15         70.1919 
        1.18424         66.1916         14.8142          69.754 
        1.19038          65.881         14.6311         69.4467 
        1.19652         65.5188         14.4511         68.9744 
        1.20267         64.9526         14.2742         68.6289 
        1.20881         64.4373         14.1003         68.1011 
        1.21495          64.206         13.9295          67.813 
        1.22108         63.7591         13.7616         67.4685 
         1.2272         63.5686         13.5969         67.0305 
        1.23334         63.1719         13.4345         66.8233 
        1.23949         62.5604         13.2744         66.2442 
        1.24562         62.0533         13.1174         65.7525 
        1.25174         62.1061         12.9631         65.4534 
        1.25789         61.4823         12.8108         65.1011 
        1.26402         61.1124         12.6613         64.8824 
        1.27014          60.574         12.5145         64.5985 
        1.27628         60.3683         12.3696         64.2714 
        1.28244         60.1773         12.2268         63.7543 
        1.28858         59.7252         12.0864         63.3828 
        1.29471         59.2939         11.9485          63.106 
        1.30084         58.8178         11.8128         62.6051 
        1.30697         58.5342         11.6791         62.4063 
        1.31312         58.3182         11.5473         62.1619 
        1.31925          57.727         11.4179         61.7822 
        1.32537         57.4562         11.2906         61.5306 
        1.33151         57.3613         11.1648         61.1416 
        1.33765         56.8221          11.041         60.8498 
        1.34378         56.5493         10.9193         60.5688 
        1.34992          56.212         10.7994         60.1602 
        1.35606         56.0037          10.681         59.8875 
         1.3622         55.6221         10.5646         59.6289 
        1.36833         55.2622         10.4502         59.2551 
        1.37445         54.9599         10.3376         59.0643 
        1.38059         54.5952         10.2263         58.6362 
        1.38675         54.2987         10.1163         58.3466 
        1.39288         53.9459         10.0085         57.9942 
        1.39901         53.7172         9.90221         57.7932 
        1.40515         53.2748         9.79726         57.6422 
         1.4113         53.0403         9.69388         57.3998 
        1.41742           52.83         9.59238         57.0079 
        1.42355         52.5494         9.49215         56.6537 
         1.4297         52.1881         9.39304         56.4603 
        1.43585         52.0623          9.2954         56.0876 
        1.44198         51.5251         9.19951         55.9203 
        1.44809         51.1846         9.10516         55.6355 
        1.45423         51.2045         9.01179         55.2916 
        1.46036         50.7993         8.91989         55.0527 
        1.46649         50.4161         8.82925         54.8752 
        1.47263         50.0753         8.73979         54.6226 
        1.47877         49.9125         8.65162          54.215 
        1.48491         49.5155         8.56452         54.0242 
        1.49104         49.3498         8.47881         53.8642 
        1.49718         48.9991         8.39421         53.5375 
        1.50333         48.8233         8.31063         53.2658 
        1.50947         48.5709         8.22836         53.0499 
         1.5156         48.3765         8.14733         52.8049 
        1.52172         47.9419         8.06739         52.5356 
        1.52787          47.792         7.98837         52.3231 
          1.534         47.5021         7.91049         52.1325 
        1.54013           47.33         7.83374         51.8697 
        1.54627         46.9091         7.75786         51.5984 
        1.55241         46.8624         7.68298         51.3724 
        1.55855         46.3948         7.60919         51.1636 
        1.56467         46.0504         7.53657         50.9631 
         1.5708         46.0034          7.4647         50.6894 
        1.57695         45.6729         7.39365         50.4927 
        1.58308         45.5462         7.32369         50.3194 
        1.58922         45.2452         7.25458         50.0325 
        1.59535         45.1983         7.18639         49.8526 
         1.6015         44.8271         7.11899         49.5885 
        1.60764         44.6044         7.05248         49.3356 
        1.61376         44.4218           6.987          49.238 
        1.61989         44.0175          6.9223         49.0117 
        1.62604         43.9413         6.85828         48.6872 
        1.63218         43.6244          6.7951         48.4651 
        1.63831         43.4573         6.73287         48.3612 
        1.64444         43.2753         6.67139         48.1425 
        1.65059          42.991         6.61054          47.878 
        1.65673         42.7823         6.55051         47.6655 
        1.66285         42.4903         6.49139         47.5112 
        1.66898          42.234         6.43299         47.3453 
        1.67512         42.0157         6.37519         47.1018 
        1.68127         41.8982         6.31805         46.8654 
         1.6874         41.7081         6.26173         46.6826 
        1.69353         41.4606         6.20614         46.5258 
        1.69967         41.2469         6.15109         46.3272 
        1.70581         41.0453         6.09673         46.1308 
        1.71193         40.7577         6.04323         45.9593 
        1.71806         40.6218         5.99026         45.7859 
        1.72421         40.3647         5.93782         45.5893 
        1.73035         40.2049         5.88606         45.3705 
        1.73649         39.9628         5.83494         45.1633 
        1.74262         39.7687         5.78446         45.0118 
        1.74876         39.6512         5.73454          44.838 
        1.75489         39.4269         5.68532         44.6369 
        1.76101         39.2614         5.63669         44.4363 
        1.76715         39.0227         5.58856         44.2448 
        1.77329         38.8383         5.54094         44.0901 
        1.77943         38.6459         5.49385         43.9338 
        1.78557         38.5032         5.44737         43.7388 
        1.79171         38.1559         5.40143         43.5528 
        1.79785         38.1083         5.35601         43.3828 
        1.80399         37.8984         5.31112         43.2112 
        1.81012         37.6355          5.2668         43.0382 
        1.81625         37.5137         5.22301         42.8521 
        1.82239         37.2453         5.17966         42.6874 
        1.82853         37.1517         5.13681         42.5772 
        1.83466         36.8927         5.09449         42.3955 
        1.84078         36.6844          5.0527         42.1778 
        1.84692         36.6292          5.0113         42.0701 
        1.85306         36.4767         4.97032         41.9081 
         1.8592          36.186         4.92986         41.6893 
        1.86533         36.0771         4.88987         41.5308 
        1.87147         35.8142         4.85028         41.3646 
        1.87761         35.6375         4.81111         41.2017 
