# k  (h/Mpc)    Pcb(k)  (Mpc/h)^3    Pcb_linear(k) (Mpc/h)^3    Pcb_NL(k) (Mpc/h)^3   ShotnoiseSubtracted = false
     0.00783031         20355.6         20477.3         20280.9 
       0.013688         22178.1         22802.5         22623.6 
       0.019231         20729.2         21049.6         20889.2 
      0.0249154         17857.3         17720.2         17604.2 
      0.0312784         13851.2         13902.1         13839.9 
      0.0375637         10842.9         10945.1         10920.8 
      0.0433917         9142.74          9108.6         9080.43 
      0.0492413         7972.33         7984.74         7963.41 
      0.0555754         7315.87         7272.84         7255.32 
      0.0619321         6593.64         6758.63          6740.1 
       0.067871         6183.21         6241.62         6233.52 
      0.0738098         5619.26         5604.39         5559.58 
      0.0800417         4904.44         4842.84         4841.05 
      0.0862327         4166.58         4100.77         4174.94 
      0.0921407         3623.14          3503.6         3599.26 
      0.0982031         3232.08         3054.03         3203.27 
       0.104506         2874.23         2758.49         2936.81 
       0.110769         2713.16         2593.13         2722.37 
       0.116806         2629.84         2494.02         2595.58 
       0.122832         2496.47         2397.19         2490.09 
       0.129052         2339.32         2259.93         2342.79 
       0.135211         2223.36         2077.33         2171.16 
       0.141259         1997.15         1870.64         2000.07 
       0.147318         1802.85          1666.4         1838.68 
       0.153489         1649.99         1488.65         1647.06 
       0.159709         1561.64         1355.07         1533.77 
       0.165845         1433.46         1267.59         1469.36 
       0.171974         1403.18         1212.67         1394.26 
       0.178125          1359.2         1173.33         1359.99 
       0.184229         1261.95         1133.81         1300.44 
        0.19034         1234.32         1083.17         1239.08 
       0.196428          1185.2         1019.16         1170.84 
       0.202534         1092.36         946.059         1110.95 
       0.208729         1061.25         871.438         1034.69 
       0.214876         998.212         805.212         995.709 
       0.220989         937.751         751.947         952.322 
       0.227147         909.324         711.718         914.326 
        0.23329         872.445         682.288         888.029 
       0.239377         865.305         659.093         853.765 
       0.245482         820.791         637.023         817.509 
       0.251667         789.676         612.405         796.696 
       0.257832         773.058         584.327          762.21 
       0.263955          730.85         553.765          731.41 
       0.270079         702.601         522.729         703.712 
        0.27624         671.245         493.453         674.308 
       0.282372         657.313         467.954         654.773 
        0.28843         645.759         446.943         636.366 
       0.294538         612.913         429.443         616.344 
       0.300721         598.157         414.346         598.798 
        0.30691          583.56         400.368         588.017 
       0.313033         556.676         386.539         566.954 
       0.319153         548.702         372.071         549.891 
       0.325316         538.428         356.922         535.409 
        0.33145         523.702         341.701         514.078 
       0.337538         503.558         327.144         500.437 
       0.343633         490.075         313.644         492.759 
       0.349808         477.517          301.39         481.924 
       0.355968         467.994         290.547         471.127 
       0.362074          449.44           280.9         460.303 
       0.368217         446.511         271.913         446.549 
       0.374374         438.873         263.221          436.04 
       0.380519         420.614          254.64         424.822 
       0.386598         415.781         246.141         419.933 
       0.392688         403.954          237.69         406.861 
        0.39888          394.47         229.334         398.266 
       0.405048         384.177           221.4          390.41 
       0.411186         383.759          214.01         380.336 
       0.417313         377.087         207.184         372.646 
       0.423458         367.676         200.817         366.128 
       0.429607         355.603         194.833         359.387 
       0.435692         350.188         189.191          349.57 
       0.441815         343.802         183.684         346.183 
       0.447964         335.964         178.271         340.347 
       0.454126         332.048         172.972          330.26 
       0.460267         326.261         167.838         327.858 
       0.466387         318.221         162.898         321.764 
        0.47254          314.93         158.149         315.654 
       0.478662         307.669         153.666         309.106 
       0.484765         302.577         149.428         303.498 
       0.490885         299.925         145.376         298.275 
       0.497035         292.372         141.479         294.246 
       0.503198         291.359          137.72         289.981 
       0.509342         285.162         134.095         285.315 
       0.515458         279.387         130.585         281.704 
       0.521598         275.504         127.161         276.859 
       0.527764         271.164         123.835         273.992 
       0.533884         268.056         120.653         269.911 
           0.54         264.476         117.597         264.852 
       0.546137         258.631         114.646         261.652 
       0.552299         256.971         111.797         257.337 
       0.558452         252.347         109.059         253.975 
       0.564573         251.126         106.433         251.729 
       0.570708         245.716         103.889         248.592 
       0.576825         241.579         101.431          243.53 
       0.582926         240.434         99.0517         241.248 
       0.589034         235.336         96.7389         238.297 
       0.595184         233.739         94.4822         233.837 
       0.601379         229.811         92.2832         231.246 
       0.607522         224.495          90.176         227.659 
       0.613639         223.687         88.1482         226.921 
       0.619772         222.538         86.1812         224.841 
       0.625918         217.873         84.2722         220.573 
       0.632068         215.907         82.4201         217.978 
       0.638161         214.073         80.6391         216.768 
         0.6443         210.483         78.8968         213.773 
       0.650464         208.218         77.1991         209.538 
       0.656582         205.513         75.5634          208.11 
       0.662703          204.87         73.9749         206.041 
       0.668861         200.188         72.4238         204.441 
       0.675024         199.429         70.9168          202.29 
       0.681124          196.32         69.4686         199.055 
       0.687237         195.211         68.0584         197.015 
       0.693381         191.454         66.6811         194.743 
       0.699536         191.094         65.3397         193.165 
       0.705665         188.447         64.0411         190.618 
       0.711789         185.671         62.7789         189.547 
       0.717957         184.715         61.5422         188.125 
        0.72409         181.937         60.3459         185.947 
       0.730186         182.495         59.1887         183.813 
       0.736317         179.474         58.0558         182.075 
       0.742472          177.69         56.9487         180.193 
       0.748622         175.702         55.8717         178.276 
        0.75476         175.033         54.8252          177.78 
       0.760888         172.879         53.8073         175.042 
       0.767043         170.077         52.8115         173.687 
       0.773185          168.21         51.8431         172.411 
       0.779291         167.377         50.9046         170.285 
       0.785407         165.892         49.9882         168.733 
       0.791564         164.601         49.0887         167.295 
       0.797719         161.885         48.2118         166.118 
       0.803834         161.977          47.362         164.904 
       0.809972         159.701         46.5297         163.406 
       0.816124         157.348         45.7157         161.989 
       0.822261         156.244         44.9234         160.903 
       0.828378         155.572         44.1524         159.142 
       0.834502         153.776         43.3989         157.755 
       0.840667         153.467         42.6582         156.359 
       0.846816          150.76         41.9369         155.391 
       0.852925         150.451          41.237         154.211 
       0.859047         148.562         40.5516         153.006 
       0.865192         147.872         39.8796          151.37 
       0.871341         146.595         39.2224          150.26 
       0.877463         145.157         38.5831         149.478 
       0.883569         144.712         37.9598         148.913 
       0.889708         143.521          37.347         147.034 
       0.895864         141.403         36.7463         146.169 
       0.902008          140.33         36.1602         144.755 
       0.908149         138.951         35.5872          143.69 
       0.914301         137.921         35.0257         142.475 
       0.920448         137.449          34.477          141.67 
       0.926574         135.796         33.9419         140.444 
       0.932687         135.503         33.4194         139.632 
       0.938823         134.271         32.9061         138.728 
       0.944975         133.822         32.4024         137.645 
       0.951105         132.064         31.9111         136.635 
       0.957225         131.143         31.4309         135.582 
       0.963368         130.699         30.9589         134.612 
       0.969511         129.114         30.4967         133.566 
       0.975621          127.25         30.0465         133.085 
       0.981748         127.194         29.6042         132.254 
       0.987916          126.39         29.1681         131.176 
        0.99406         125.224         28.7425         130.175 
        1.00019         124.768         28.3262         129.261 
        1.00632         123.613         27.9185         128.298 
        1.01246         122.634         27.5184         127.129 
        1.01859         121.475         27.1267          126.71 
        1.02471          120.63         26.7432         126.045 
        1.03085         120.014         26.3658         125.272 
        1.03698          119.26         25.9965         124.728 
        1.04314         118.582         25.6327          123.65 
        1.04929         117.782         25.2768         122.848 
        1.05541         117.384         24.9291         122.254 
        1.06154         116.016          24.587         121.542 
        1.06769          115.32         24.2509         120.825 
        1.07382         114.209         23.9223         120.132 
        1.07993         113.754         23.6004         119.311 
        1.08607         113.536         23.2832         118.472 
        1.09222         112.061         22.9714         117.906 
        1.09836         111.466         22.6658         117.081 
        1.10449         110.968          22.366         116.715 
        1.11063         109.737         22.0714         115.731 
        1.11677         109.357         21.7822         114.931 
         1.1229         108.506         21.4987         114.308 
        1.12903         107.325           21.22         113.626 
        1.13518         106.834          20.946          113.07 
        1.14131         106.568         20.6771         112.175 
        1.14745         105.455          20.413         111.608 
        1.15359         104.946         20.1534         111.099 
        1.15973         104.332         19.8984         110.518 
        1.16584         103.552         19.6488         109.738 
        1.17197         103.091         19.4032         109.357 
        1.17811         102.241         19.1611         108.564 
        1.18424         101.586         18.9238         107.766 
        1.19038         101.068         18.6899         107.604 
        1.19652         100.115           18.46         106.751 
        1.20267         99.4726         18.2339         106.317 
        1.20881         98.8141         18.0118         105.524 
        1.21495         98.6399         17.7937         105.124 
        1.22108         97.7008         17.5792         104.558 
         1.2272         97.6412         17.3688         103.896 
        1.23334         96.6637         17.1613         103.629 
        1.23949         96.0149         16.9568         102.881 
        1.24562         95.2925         16.7562         102.014 
        1.25174         95.2832         16.5591         101.535 
        1.25789         94.4084         16.3646         100.954 
        1.26402         93.7686         16.1736         100.693 
        1.27014         93.1706         15.9861         100.235 
        1.27628         92.8732          15.801         99.9398 
        1.28244         92.1136         15.6185         99.1494 
        1.28858         91.7004         15.4392         98.6285 
        1.29471         90.9965          15.263         98.1863 
        1.30084         90.4714         15.0898         97.4366 
        1.30697          89.839          14.919         96.9939 
        1.31312         89.5225         14.7505         96.4857 
        1.31925         88.5496         14.5853         96.1511 
        1.32537         88.2329         14.4227         95.8008 
        1.33151         87.7503          14.262         95.2181 
        1.33765         87.3561         14.1038         94.7914 
        1.34378         86.9454         13.9484         94.3379 
        1.34992         86.2642         13.7952         93.7418 
        1.35606         86.0096          13.644         93.2605 
         1.3622         85.4424         13.4953         92.9253 
        1.36833         84.8497         13.3492         92.2598 
        1.37445          84.343         13.2053         91.9427 
        1.38059         83.8165         13.0631         91.2667 
        1.38675         83.4619         12.9227         90.8716 
        1.39288          82.863         12.7849         90.3854 
        1.39901         82.3796         12.6491         90.0901 
        1.40515         81.9726         12.5151         89.7999 
         1.4113         81.4391          12.383         89.4374 
        1.41742         81.3381         12.2534         88.9619 
        1.42355         80.6642         12.1253         88.3888 
         1.4297         80.1289         11.9987         88.0835 
        1.43585         79.8668          11.874         87.5133 
        1.44198         79.3362         11.7515         87.3662 
        1.44809         78.7748          11.631         86.8336 
        1.45423         78.5862         11.5117         86.2901 
        1.46036         77.8583         11.3943         85.9419 
        1.46649         77.4289         11.2785          85.674 
        1.47263          77.026         11.1643         85.3049 
        1.47877         76.7543         11.0516         84.7274 
        1.48491         76.1881         10.9404         84.3447 
        1.49104         75.8025         10.8309         84.1683 
        1.49718         75.3154         10.7228         83.5689 
        1.50333         74.7891         10.6161         83.1182 
        1.50947         74.7393          10.511         82.8385 
         1.5156         74.0998         10.4074         82.4969 
        1.52172         73.5019         10.3053         82.0829 
        1.52787         73.3623         10.2044          81.695 
          1.534         73.0139         10.1049         81.4121 
        1.54013         72.5121         10.0069         81.1005 
        1.54627         72.1481         9.90994          80.713 
        1.55241         71.8445         9.81429         80.3007 
        1.55855         71.2118         9.72003         79.9005 
        1.56467         70.8351         9.62726         79.6191 
         1.5708         70.3581         9.53545         79.2545 
        1.57695         70.1238         9.44469         78.8773 
        1.58308         69.7138         9.35532         78.5924 
        1.58922          69.393         9.26704         78.2538 
        1.59535         69.2008         9.17994         77.9425 
         1.6015         68.5735         9.09383         77.5533 
        1.60764         68.2118         9.00887         77.2074 
        1.61376         68.1619         8.92523         77.0149 
        1.61989         67.6109         8.84259         76.6743 
        1.62604         67.3379          8.7608         76.0814 
        1.63218          66.748          8.6801         75.7121 
        1.63831         66.5852          8.6006         75.6174 
        1.64444         66.0917         8.52207         75.2585 
        1.65059         65.6981         8.44434         74.8966 
        1.65673         65.5248         8.36766         74.5458 
        1.66285         65.2076         8.29214         74.2627 
        1.66898         64.6138         8.21753         74.0276 
        1.67512         64.2414          8.1437         73.6687 
        1.68127         64.0116         8.07071         73.3784 
         1.6874         63.8626         7.99877         73.0972 
        1.69353         63.2853         7.92775         72.6904 
        1.69967         62.9885         7.85743         72.4254 
        1.70581         62.6784         7.78799         72.1598 
        1.71193         62.4042         7.71965         71.8427 
        1.71806         61.9192         7.65199         71.5732 
        1.72421         61.6263           7.585         71.2728 
        1.73035          61.315         7.51889         70.9643 
        1.73649         61.0253         7.45358         70.6561 
        1.74262         60.6681          7.3891         70.3098 
        1.74876           60.27         7.32534         70.0229 
        1.75489          60.244         7.26246         69.7674 
        1.76101         59.8578         7.20034         69.4921 
        1.76715         59.4832         7.13886         69.2188 
        1.77329         59.1453         7.07802         68.9155 
        1.77943          58.784         7.01787         68.6237 
        1.78557         58.6199         6.95851         68.3796 
        1.79171         58.1564         6.89982         68.0999 
        1.79785         58.0276          6.8418         67.7909 
        1.80399         57.6201         6.78445         67.5029 
        1.81012         57.2675         6.72784          67.234 
        1.81625         57.0325         6.67191         66.9611 
        1.82239         56.6529         6.61652         66.6931 
        1.82853         56.4671         6.56179         66.4478 
        1.83466         56.1588         6.50773         66.1616 
        1.84078         55.7596         6.45434         65.8885 
        1.84692         55.5686         6.40146         65.7255 
        1.85306         55.4548         6.34911         65.4158 
         1.8592         55.1225         6.29743         65.0545 
        1.86533         54.6918         6.24634          64.855 
        1.87147         54.4238         6.19577          64.596 
