# k  (h/Mpc)    P(k)  (Mpc/h)^3    P_linear(k)  (Mpc/h)^3     P_NL(k)  ShotnoiseSubtracted = false
     0.00783031         3072.03         3096.89         3068.57 
       0.013688         3403.47         3451.18         3429.35 
       0.019231         3167.75         3186.87         3169.41 
      0.0249154         2694.25         2683.27         2674.49 
      0.0312784         2109.03         2105.36         2106.35 
      0.0375637         1655.77         1657.67         1660.09 
      0.0433917         1385.89         1379.58         1381.95 
      0.0492413         1210.55          1209.4         1211.65 
      0.0555754         1107.34          1101.6         1102.09 
      0.0619321         1014.32         1023.73         1023.32 
       0.067871         944.297         945.433         944.618 
      0.0738098         850.082          848.92         847.376 
      0.0800417         737.957         733.572          733.66 
      0.0862327          624.25         621.171         623.719 
      0.0921407         534.235         530.717         534.117 
      0.0982031         469.661         462.619          467.49 
       0.104506         419.902         417.853         423.318 
       0.110769         395.318         392.806         396.569 
       0.116806         382.603         377.794         380.474 
       0.122832         364.719         363.126           365.5 
       0.129052         344.996         342.336         344.308 
       0.135211         319.565         314.676         317.144 
       0.141259         286.863         283.367         286.849 
       0.147318         255.038         252.428         257.465 
       0.153489         229.511         225.504         229.981 
       0.159709         210.906         205.269         210.276 
       0.165845         194.714         192.017         197.823 
       0.171974         189.463         183.698         188.594 
       0.178125         182.568         177.739         182.815 
       0.184229         174.582         171.753         176.337 
        0.19034         168.293         164.082         168.259 
       0.196428         158.747         154.386         158.096 
       0.202534         145.537         143.312         147.492 
       0.208729         136.859         132.008         136.472 
       0.214876         127.859         121.976         127.475 
       0.220989          117.97         113.907         119.627 
       0.227147         113.492         107.813         113.332 
        0.23329         108.902         103.355         109.033 
       0.239377         105.715         99.8418         105.261 
       0.245482         101.423         96.4983         101.187 
       0.251667         96.8473         92.7691         97.7246 
       0.257832         94.0557         88.5161         93.2479 
       0.263955         88.2241         83.8863         88.5325 
       0.270079         83.4707         79.1848         83.9394 
        0.27624         78.8626         74.7499         79.4265 
       0.282372         75.2978         70.8867         75.8885 
        0.28843         73.3098         67.7045         72.7313 
       0.294538          70.057         65.0537         69.9946 
       0.300721         67.0509         62.7665         67.7492 
        0.30691         65.5583         60.6491         65.5931 
       0.313033         62.8738         58.5547         63.2166 
       0.319153         61.3894         56.3628          61.001 
       0.325316         58.3948          54.068         58.8085 
        0.33145         55.9864         51.7622         56.3302 
       0.337538         53.8214         49.5571         54.0468 
       0.343633         51.9517         47.5118         52.0756 
       0.349808         49.9253         45.6557          50.367 
       0.355968         48.2175         44.0133         48.9329 
       0.362074         47.1471         42.5519         47.2508 
       0.368217         45.6487         41.1905         45.5827 
       0.374374         44.4333         39.8738         44.3091 
       0.380519          42.569         38.5739         42.8538 
       0.386598         41.1735         37.2865         41.5893 
       0.392688         39.7009         36.0062         40.3162 
        0.39888         38.8078         34.7404         39.0064 
       0.405048          37.674         33.5386         37.7006 
       0.411186         36.4737          32.419         36.7487 
       0.417313         35.3226         31.3851         35.5641 
       0.423458         34.2261         30.4206         34.6268 
       0.429607         33.5289         29.5142         33.6198 
       0.435692         32.8551         28.6594         32.7545 
       0.441815          31.566         27.8253         31.9991 
       0.447964          30.418         27.0052         31.0254 
       0.454126         29.8642         26.2026         30.1277 
       0.460267         29.3808         25.4248         29.4741 
       0.466387         28.4666         24.6765         28.5753 
        0.47254          27.931         23.9569         27.8937 
       0.478662         26.9428          23.278         27.1664 
       0.484765         26.2974         22.6359         26.4086 
       0.490885         25.4797         22.0222         25.9219 
       0.497035         24.9757         21.4318         25.3669 
       0.503198         24.4393         20.8625         24.6252 
       0.509342         23.6657         20.3133         24.0974 
       0.515458         23.2415         19.7816         23.6498 
       0.521598          22.669          19.263         22.9191 
       0.527764         22.2674          18.759          22.312 
       0.533884         21.6896         18.2771         21.8242 
           0.54          21.208          17.814         21.3524 
       0.546137         20.5225         17.3671         20.9446 
       0.552299         20.1126         16.9355         20.3552 
       0.558452         19.6184         16.5208          19.922 
       0.564573         19.3377         16.1229         19.6084 
       0.570708         18.8346         15.7375         19.1848 
       0.576825         18.5282         15.3652         18.7617 
       0.582926         18.1335         15.0048         18.3833 
       0.589034         17.7183         14.6544         18.0853 
       0.595184         17.4544         14.3126         17.5844 
       0.601379         16.9534         13.9795         17.3489 
       0.607522         16.6058         13.6603          16.914 
       0.613639         16.3065         13.3531         16.5887 
       0.619772         15.9667         13.0551         16.3139 
       0.625918         15.6314         12.7659         15.9913 
       0.632068         15.4398         12.4854         15.6434 
       0.638161         15.0732         12.2156         15.3555 
         0.6443         14.8075         11.9516         15.0333 
       0.650464         14.4134         11.6945         14.8146 
       0.656582         14.2734         11.4467         14.5379 
       0.662703         14.0318          11.206         14.2356 
       0.668861         13.6546         10.9711         14.0474 
       0.675024         13.4186         10.7428         13.7177 
       0.681124         13.3419         10.5234         13.4778 
       0.687237         13.0312         10.3098         13.2185 
       0.693381         12.7174         10.1011         12.9699 
       0.699536         12.6072         9.89795         12.7877 
       0.705665         12.3215         9.70122         12.6181 
       0.711789         12.0927         9.51003         12.3324 
       0.717957         11.8077         9.32269         12.1345 
        0.72409         11.6848         9.14146         11.9616 
       0.730186           11.59         8.96617         11.7371 
       0.736317         11.3075         8.79455         11.5313 
       0.742472         11.1643         8.62684         11.3871 
       0.748622         10.9456         8.46369         11.1826 
        0.75476         10.6508         8.30516         11.0024 
       0.760888         10.5909         8.15097         10.8481 
       0.767043         10.3649         8.00011         10.6847 
       0.773185         10.2139         7.85342         10.5096 
       0.779291         10.1024         7.71126         10.3656 
       0.785407         9.92136         7.57243         10.1847 
       0.791564         9.79852         7.43617         10.0387 
       0.797719         9.55853         7.30334         9.88445 
       0.803834         9.50741          7.1746         9.72058 
       0.809972         9.29851         7.04852          9.6077 
       0.816124         9.17656         6.92521         9.44366 
       0.822261         9.04888          6.8052         9.30167 
       0.828378         8.92702          6.6884         9.16441 
       0.834502         8.80295         6.57426         9.04781 
       0.840667         8.69288         6.46205         8.90558 
       0.846816         8.48799         6.35279         8.78692 
       0.852925         8.43456         6.24676         8.69574 
       0.859047         8.29396         6.14293          8.5651 
       0.865192         8.16664         6.04113          8.4372 
       0.871341         8.05173         5.94159         8.33748 
       0.877463           7.928         5.84474         8.21427 
       0.883569          7.8544         5.75031         8.09556 
       0.889708         7.71093          5.6575          7.9948 
       0.895864         7.59991          5.5665         7.87711 
       0.902008         7.50377          5.4777         7.78702 
       0.908149           7.375         5.39091         7.67752 
       0.914301         7.30839         5.30585          7.6146 
       0.920448         7.20201         5.22273         7.47747 
       0.926574         7.13468         5.14167         7.38947 
       0.932687         7.00627         5.06252         7.25771 
       0.938823         6.89793         4.98476         7.18932 
       0.944975         6.85111         4.90846          7.1098 
       0.951105         6.73866         4.83403         6.99226 
       0.957225         6.68486         4.76129         6.93493 
       0.963368         6.56316          4.6898         6.83597 
       0.969511         6.48229         4.61978         6.75796 
       0.975621         6.40619         4.55158         6.66941 
       0.981748         6.30926         4.48458         6.58958 
       0.987916         6.25193         4.41852         6.50534 
        0.99406         6.16561         4.35404         6.43808 
        1.00019         6.10553         4.29098         6.37238 
        1.00632         6.04695         4.22923         6.29165 
        1.01246         5.95388         4.16861         6.23972 
        1.01859         5.88004         4.10927         6.15066 
        1.02471         5.79474         4.05118          6.0525 
        1.03085         5.75653           3.994           5.995 
        1.03698         5.68829         3.93806         5.93788 
        1.04314         5.60387         3.88296         5.86289 
        1.04929         5.52111         3.82904         5.80518 
        1.05541         5.47005         3.77637           5.751 
        1.06154         5.41046         3.72456         5.67472 
        1.06769         5.36529         3.67364         5.60957 
        1.07382          5.2678         3.62385         5.55297 
        1.07993         5.21861          3.5751         5.48816 
        1.08607         5.17552         3.52704         5.43622 
        1.09222         5.10097         3.47982         5.37817 
        1.09836         5.06761         3.43352         5.30229 
        1.10449         4.98281         3.38811         5.25207 
        1.11063         4.95533         3.34348         5.20071 
        1.11677         4.89955         3.29967         5.14271 
         1.1229         4.84715         3.25672         5.09727 
        1.12903         4.79191          3.2145         5.05413 
        1.13518         4.72736           3.173         4.99281 
        1.14131         4.67907         3.13225         4.93414 
        1.14745         4.60626         3.09225         4.88411 
        1.15359          4.5551         3.05294         4.83673 
        1.15973         4.51593         3.01429         4.78478 
        1.16584         4.47307         2.97649         4.74612 
        1.17197         4.41491         2.93929         4.70244 
        1.17811         4.37199         2.90261         4.64177 
        1.18424         4.33324         2.86667         4.59768 
        1.19038         4.30062         2.83123         4.55437 
        1.19652         4.25119          2.7964         4.50936 
        1.20267         4.21435         2.76216         4.46637 
        1.20881         4.14897         2.72851          4.4277 
        1.21495         4.11973         2.69547         4.38624 
        1.22108         4.07189         2.66298         4.34536 
         1.2272         4.02897          2.6311          4.2939 
        1.23334         4.00863         2.59968         4.26142 
        1.23949         3.95593          2.5687          4.2263 
        1.24562         3.91617         2.53831         4.18307 
        1.25174         3.89245         2.50845          4.1423 
        1.25789         3.82659         2.47899          4.0988 
        1.26402         3.80211         2.45005         4.06233 
        1.27014         3.77724         2.42165         4.02984 
        1.27628         3.72492         2.39362         3.98774 
        1.28244         3.70231         2.36597         3.95527 
        1.28858         3.66571          2.3388         3.91881 
        1.29471         3.61684         2.31211         3.88932 
        1.30084         3.58262         2.28587         3.86216 
        1.30697         3.56448         2.25999         3.81391 
        1.31312         3.52207         2.23448         3.78264 
        1.31925           3.489         2.20944         3.76147 
        1.32537         3.45827         2.18481         3.72884 
        1.33151         3.42375         2.16047         3.69309 
        1.33765         3.38979         2.13651         3.65574 
        1.34378          3.3784         2.11297          3.6257 
        1.34992         3.33868         2.08976         3.59786 
        1.35606         3.30654         2.06685         3.56321 
         1.3622         3.27185         2.04433         3.52936 
        1.36833         3.24712         2.02219         3.51512 
        1.37445         3.21305          2.0004         3.48021 
        1.38059         3.17768         1.97886         3.44384 
        1.38675         3.15477         1.95759         3.41964 
        1.39288         3.13256         1.93671         3.39834 
        1.39901         3.09429         1.91615          3.3679 
        1.40515          3.0717         1.89584          3.3383 
         1.4113         3.04481         1.87584         3.31205 
        1.41742         3.02515          1.8562         3.28606 
        1.42355         2.98988          1.8368          3.2594 
         1.4297         2.96425         1.81762         3.23248 
        1.43585         2.94711         1.79873         3.21189 
        1.44198         2.91511         1.78017         3.18141 
        1.44809         2.89219         1.76192         3.15799 
        1.45423         2.86556         1.74385          3.1339 
        1.46036          2.8464         1.72607         3.10926 
        1.46649         2.82282         1.70853         3.08736 
        1.47263         2.80013         1.69122         3.06436 
        1.47877          2.7754         1.67415         3.03414 
        1.48491         2.75484          1.6573         3.01603 
        1.49104         2.73117         1.64071         2.99351 
        1.49718         2.71258         1.62434         2.96947 
        1.50333         2.68462         1.60817         2.94727 
        1.50947         2.66085         1.59225         2.92565 
         1.5156         2.64381         1.57657         2.90652 
        1.52172         2.61843          1.5611         2.88683 
        1.52787         2.60395         1.54581         2.85539 
          1.534         2.57782         1.53074         2.83743 
        1.54013         2.56577         1.51589         2.81753 
        1.54627         2.53742         1.50121         2.79557 
        1.55241          2.5143         1.48672         2.77707 
        1.55855         2.50165         1.47244         2.75114 
        1.56467         2.48734         1.45838         2.73712 
         1.5708         2.45597         1.44448         2.72203 
        1.57695         2.43563         1.43073         2.69613 
        1.58308          2.4143         1.41719         2.67712 
        1.58922         2.40776         1.40382         2.66458 
        1.59535          2.3868         1.39062         2.64821 
         1.6015         2.35889         1.37758         2.62605 
        1.60764         2.34738         1.36471         2.60529 
        1.61376         2.32844         1.35204         2.58973 
        1.61989         2.30497         1.33952         2.57246 
        1.62604         2.29386         1.32713         2.55393 
        1.63218         2.27775          1.3149         2.53877 
        1.63831         2.26051         1.30286         2.52307 
        1.64444         2.24108         1.29097          2.5012 
        1.65059         2.22653         1.27919          2.4853 
        1.65673         2.21051         1.26757          2.4689 
        1.66285         2.19259         1.25613         2.45135 
        1.66898          2.1768         1.24483         2.43498 
        1.67512         2.16201         1.23365         2.41884 
        1.68127         2.14121         1.22259         2.40519 
         1.6874         2.12745         1.21169         2.39303 
        1.69353         2.10944         1.20093         2.37759 
        1.69967         2.09551         1.19028         2.35615 
        1.70581         2.07954         1.17976         2.34095 
        1.71193         2.06531         1.16941         2.33066 
        1.71806         2.05155         1.15916         2.31296 
        1.72421         2.03736         1.14901         2.29691 
        1.73035         2.02132           1.139         2.28266 
        1.73649         2.00826          1.1291         2.26833 
        1.74262         1.99218         1.11934         2.25519 
        1.74876         1.98159         1.10968         2.24227 
        1.75489         1.96514         1.10015         2.22652 
        1.76101         1.94832         1.09074         2.20905 
        1.76715         1.94478         1.08143         2.19695 
        1.77329         1.92555         1.07221         2.18472 
        1.77943         1.90715          1.0631         2.17061 
        1.78557         1.90203         1.05411         2.15677 
        1.79171         1.88499         1.04522         2.14224 
        1.79785         1.87666         1.03643          2.1287 
        1.80399         1.85856         1.02774         2.11763 
        1.81012         1.84965         1.01917         2.10563 
        1.81625           1.833         1.01069         2.09255 
        1.82239         1.82401          1.0023         2.08068 
        1.82853          1.8103        0.994013         2.07072 
        1.83466         1.79232        0.985824         2.05905 
        1.84078          1.7809        0.977736         2.04524 
        1.84692         1.76935        0.969725         2.03169 
        1.85306         1.75709        0.961795         2.01698 
         1.8592          1.7491        0.953965         2.00486 
        1.86533         1.73746        0.946227         1.99689 
        1.87147         1.72974        0.938566         1.98504 
        1.87761         1.71594        0.930986         1.97234 
