# k  (h/Mpc)    Pcb(k)  (Mpc/h)^3    Pcb_linear(k) (Mpc/h)^3    Pcb_NL(k) (Mpc/h)^3   ShotnoiseSubtracted = false
     0.00783031         9198.45         9263.05          9177.5 
       0.013688         10113.3         10318.5         10247.9 
       0.019231         9432.26         9526.74         9467.42 
      0.0249154         8071.11         8020.58         7985.29 
      0.0312784          6292.4         6292.78         6285.08 
      0.0375637         4931.74         4954.49         4955.45 
      0.0433917         4143.02         4123.24         4123.54 
      0.0492413         3614.82         3614.56         3615.92 
      0.0555754         3314.24         3292.34         3291.04 
      0.0619321         3011.16         3059.59         3056.52 
       0.067871          2815.8         2825.56          2823.6 
      0.0738098         2543.83          2537.1         2527.85 
      0.0800417         2214.53         2192.36         2193.13 
      0.0862327         1874.99         1856.43         1874.49 
      0.0921407          1613.8          1586.1         1609.26 
      0.0982031         1428.16         1382.58         1417.67 
       0.104506         1271.89         1248.79         1290.03 
       0.110769         1199.16         1173.93         1203.02 
       0.116806         1163.86         1129.06         1151.51 
       0.122832         1105.25         1085.23         1106.04 
       0.129052         1043.51         1023.09         1041.23 
       0.135211         976.841         940.429         961.827 
       0.141259         876.613         846.859         876.013 
       0.147318           782.3         754.397         794.707 
       0.153489         709.214          673.93         709.864 
       0.159709         660.584         613.456         653.826 
       0.165845         606.093         573.853          620.52 
       0.171974         594.353         548.991         589.508 
       0.178125         573.049         531.182         573.366 
       0.184229         540.876         513.291         551.261 
        0.19034         524.421         490.367         525.419 
       0.196428         498.909         461.389         493.724 
       0.202534          456.01         428.293         464.157 
       0.208729         437.097         394.512         431.157 
       0.214876         410.574          364.53         408.913 
       0.220989         379.544         340.416         386.793 
       0.227147         368.011         322.204         367.939 
        0.23329         353.322         308.881         355.781 
       0.239377         346.269         298.381         342.813 
       0.245482         329.511         288.389         328.119 
       0.251667         315.215         277.244         318.677 
       0.257832          309.01         264.533         304.139 
       0.263955         289.328         250.697          289.97 
       0.270079         275.085         236.647         276.966 
        0.27624         261.672         223.393         263.269 
       0.282372         252.589         211.849         253.317 
        0.28843         248.945         202.337         243.988 
       0.294538         236.144         194.415         235.876 
       0.300721         227.405          187.58         229.173 
        0.30691         223.207         181.252          222.87 
       0.313033         212.449         174.992         214.616 
       0.319153         208.203         168.442         207.601 
       0.325316         201.495         161.584         201.198 
        0.33145         194.659         154.693         192.884 
       0.337538         186.838         148.103         185.978 
       0.343633         180.398         141.991         181.447 
       0.349808         174.537         136.443           176.5 
       0.355968         170.231         131.535         172.096 
       0.362074         165.195         127.168         166.834 
       0.368217         162.027         123.099         161.124 
       0.374374         157.526         119.164         156.823 
       0.380519         150.843          115.28         152.158 
       0.386598         147.648         111.432         148.845 
       0.392688         142.705         107.606         144.323 
        0.39888         139.764         103.823         140.238 
       0.405048         135.963         100.231         137.096 
       0.411186         133.795         96.8855         133.323 
       0.417313         130.331         93.7952          129.41 
       0.423458         126.928         90.9131           126.6 
       0.429607         123.419         88.2039         123.738 
       0.435692         121.289         85.6496         120.574 
       0.441815         117.945         83.1565         118.606 
       0.447964         113.967          80.706         115.613 
       0.454126         111.877         78.3072         112.066 
       0.460267         110.588          75.983         110.623 
       0.466387          107.46         73.7463          107.81 
        0.47254          106.09         71.5963         105.535 
       0.478662         102.396          69.567         103.331 
       0.484765         100.643         67.6481         100.416 
       0.490885         98.4199         65.8141         98.8805 
       0.497035         97.2173         64.0495         97.2172 
       0.503198         95.3364         62.3482         95.1306 
       0.509342         92.7748         60.7067         93.4731 
       0.515458         91.0341         59.1179         92.0847 
       0.521598          88.653         57.5679         89.5533 
       0.527764         87.7979          56.062         87.7043 
       0.533884         86.8379         54.6216         86.3124 
           0.54         84.3542         53.2378         84.6287 
       0.546137         82.2611         51.9022         83.4181 
       0.552299         80.7306         50.6122         81.3673 
       0.558452         79.3109         49.3728         79.7918 
       0.564573          78.726         48.1839         78.8587 
       0.570708         76.4421         47.0321         77.5747 
       0.576825         75.4943         45.9194         75.9536 
       0.582926         74.5569         44.8422           74.66 
       0.589034         73.0493         43.7952         73.8337 
       0.595184         71.9598         42.7735         72.2847 
       0.601379         70.4312          41.778         71.3662 
       0.607522         68.7979         40.8241         69.7562 
       0.613639          68.197         39.9061         68.9755 
       0.619772         66.8663         39.0156         67.8244 
       0.625918         66.2713         38.1513         66.8517 
       0.632068         64.7516         37.3128         65.7032 
       0.638161         63.7895         36.5065         64.9044 
         0.6443         63.3075         35.7178         63.7768 
       0.650464         61.7187         34.9492         62.4586 
       0.656582         61.4066         34.2087         61.9032 
       0.662703         60.4222         33.4896         60.7937 
       0.668861         59.1012         32.7874         60.0807 
       0.675024         58.8722         32.1051         59.0663 
       0.681124         57.8551         31.4495         58.2131 
       0.687237          56.852         30.8111         57.4155 
       0.693381         56.0714         30.1876         56.4896 
       0.699536         55.4454         29.5803         55.9921 
       0.705665         54.6549         28.9924         55.3954 
       0.711789         53.7317          28.421         54.2676 
       0.717957         52.9472         27.8611         53.6967 
        0.72409         52.3365         27.3195         53.1889 
       0.730186         51.9841         26.7956         52.5084 
       0.736317         51.1288         26.2828         51.6405 
       0.742472         50.2119         25.7816         51.0343 
       0.748622         49.4364          25.294         50.3383 
        0.75476         49.1675         24.8202         49.6649 
       0.760888         48.7589         24.3594         48.9672 
       0.767043         47.6865         23.9086          48.658 
       0.773185         46.9421         23.4702         48.1361 
       0.779291         46.4634         23.0453         47.5009 
       0.785407         45.9358         22.6304         46.7808 
       0.791564         45.6711         22.2232         46.2771 
       0.797719         44.7724         21.8262         45.9531 
       0.803834         44.5139         21.4415         45.2287 
       0.809972         44.0365         21.0647         44.7024 
       0.816124         43.3656         20.6962         44.2869 
       0.822261         42.7224         20.3375         43.6957 
       0.828378         42.5924         19.9885         43.0899 
       0.834502         42.0133         19.6474         42.7494 
       0.840667         41.5882          19.312         42.4113 
       0.846816         41.1103         18.9855         41.9309 
       0.852925         40.5732         18.6686         41.4733 
       0.859047         40.3375         18.3583         40.9653 
       0.865192          39.713         18.0541         40.5783 
       0.871341         39.2904         17.7566         40.1318 
       0.877463          38.845         17.4672         39.7257 
       0.883569         38.7305          17.185          39.471 
       0.889708         38.2386         16.9076         38.9884 
       0.895864         37.8951         16.6356         38.6109 
       0.902008         37.4343         16.3703         38.1412 
       0.908149         36.9387         16.1109         37.8808 
       0.914301         36.6406         15.8567         37.5761 
       0.920448         36.5396         15.6083         37.1288 
       0.926574          35.806          15.366          36.744 
       0.932687         35.5155         15.1295         36.4268 
       0.938823         35.1443         14.8971         35.9714 
       0.944975         34.7095         14.6691         35.6812 
       0.951105         34.4415         14.4466         35.4088 
       0.957225         34.1916         14.2292         35.0425 
       0.963368           33.86         14.0156         34.6828 
       0.969511         33.5389         13.8064          34.355 
       0.975621          33.192         13.6025         34.1778 
       0.981748         32.9013         13.4023         33.8699 
       0.987916         32.5466         13.2049         33.6078 
        0.99406         32.3555         13.0122         33.2137 
        1.00019          31.956         12.8237         32.8847 
        1.00632         31.7109         12.6392         32.6086 
        1.01246         31.4388          12.458          32.319 
        1.01859         31.1956         12.2807         32.1746 
        1.02471         30.8807          12.107         31.9198 
        1.03085         30.5994         11.9362         31.5574 
        1.03698         30.4151          11.769         31.2747 
        1.04314         30.1265         11.6043         30.9632 
        1.04929         29.7292         11.4432         30.7842 
        1.05541         29.6617         11.2858         30.6518 
        1.06154         29.3512         11.1309         30.3299 
        1.06769          29.029         10.9788         30.0602 
        1.07382          28.767           10.83         29.8451 
        1.07993         28.6327         10.6843         29.5935 
        1.08607         28.3292         10.5407         29.3971 
        1.09222         28.1658         10.3995         29.1608 
        1.09836         27.9215         10.2612          28.918 
        1.10449         27.7283         10.1255         28.6988 
        1.11063         27.4468         9.99208         28.4181 
        1.11677         27.3632         9.86115         28.1815 
         1.1229           27.05          9.7328         28.0425 
        1.12903         26.8434         9.60663         27.8397 
        1.13518          26.722          9.4826         27.6027 
        1.14131         26.4588         9.36083         27.3976 
        1.14745         26.2433         9.24127         27.2446 
        1.15359         25.9173         9.12378         26.9799 
        1.15973         25.8778          9.0083         26.8384 
        1.16584         25.6378         8.89533         26.5709 
        1.17197         25.3811         8.78415         26.4643 
        1.17811         25.2143         8.67453         26.2308 
        1.18424         24.8758         8.56711         26.0455 
        1.19038          24.735          8.4612         25.8959 
        1.19652         24.6199         8.35712         25.6531 
        1.20267         24.4211          8.2548         25.5253 
        1.20881         24.2418         8.15421         25.3662 
        1.21495          24.181         8.05547         25.1977 
        1.22108         24.0545         7.95838         25.0084 
         1.2272         23.7395         7.86313         24.8709 
        1.23334         23.6457         7.76921         24.6845 
        1.23949         23.4656         7.67662         24.4602 
        1.24562         23.2891         7.58579         24.3271 
        1.25174         23.1188         7.49658         24.1988 
        1.25789         22.9491         7.40853         24.0226 
        1.26402         22.8212         7.32205         23.8357 
        1.27014         22.7021         7.23717         23.7374 
        1.27628         22.4638         7.15338         23.5639 
        1.28244         22.4789         7.07076         23.4369 
        1.28858         22.1805         6.98956         23.2637 
        1.29471         21.9822         6.90981         23.1527 
        1.30084         21.8317         6.83138         22.9926 
        1.30697         21.7842         6.75405         22.8016 
        1.31312         21.6014          6.6778         22.6801 
        1.31925         21.4305         6.60298         22.5414 
        1.32537         21.2608         6.52937          22.438 
        1.33151         21.1004         6.45662         22.2835 
        1.33765         21.0745         6.38502         22.1374 
        1.34378          20.955         6.31466         22.0309 
        1.34992         20.7291          6.2453         21.9016 
        1.35606         20.5394         6.17684         21.7675 
         1.3622         20.4801         6.10953         21.6488 
        1.36833         20.4182         6.04338         21.5579 
        1.37445         20.2078         5.97825         21.3997 
        1.38059         20.0652         5.91388         21.2855 
        1.38675         19.9875          5.8503         21.1755 
        1.39288         19.8499         5.78792         21.0444 
        1.39901         19.6812         5.72647         20.9126 
        1.40515         19.5853         5.66578         20.7905 
         1.4113         19.5253         5.60599         20.6601 
        1.41742         19.3819         5.54729         20.5376 
        1.42355         19.1781         5.48933          20.463 
         1.4297         19.1642         5.43202         20.3031 
        1.43585         19.0227         5.37555         20.2196 
        1.44198         18.8904          5.3201         20.1102 
        1.44809         18.7396         5.26553         19.9998 
        1.45423          18.678         5.21154         19.8535 
        1.46036         18.6004         5.15839         19.7529 
        1.46649         18.4358         5.10597         19.6792 
        1.47263         18.3221         5.05424         19.5898 
        1.47877         18.2183         5.00325         19.4758 
        1.48491         18.0983         4.95288         19.3752 
        1.49104         17.9883         4.90332         19.2697 
        1.49718         17.9634         4.85439         19.1737 
        1.50333         17.8599         4.80606         19.0616 
        1.50947         17.6522         4.75848         18.9635 
         1.5156         17.6531         4.71162         18.8772 
        1.52172         17.5119         4.66539         18.7768 
        1.52787         17.4729         4.61969         18.6676 
          1.534          17.291         4.57465         18.5703 
        1.54013            17.3         4.53027         18.4655 
        1.54627         17.1329         4.48639          18.368 
        1.55241         17.0509         4.44308         18.2849 
        1.55855         16.9357         4.40041         18.1976 
        1.56467         16.8141         4.35842           18.13 
         1.5708         16.7852         4.31685         18.0273 
        1.57695          16.691         4.27576         17.9184 
        1.58308         16.5487          4.2353         17.8465 
        1.58922         16.4735         4.19534         17.7606 
        1.59535         16.3965         4.15591         17.6633 
         1.6015         16.3453         4.11693         17.5738 
        1.60764         16.2042         4.07846          17.483 
        1.61376         16.1139          4.0406         17.4012 
        1.61989         16.0129         4.00318         17.3508 
        1.62604         15.9202         3.96616         17.2682 
        1.63218         15.8062         3.92962         17.1872 
        1.63831         15.7644         3.89363         17.1281 
        1.64444         15.7032         3.85808         17.0399 
        1.65059         15.5922         3.82289         16.9364 
        1.65673         15.5302         3.78817         16.8644 
        1.66285         15.4515         3.75399         16.8063 
        1.66898         15.3685         3.72021         16.7211 
        1.67512         15.3125         3.68678         16.6216 
        1.68127         15.2092         3.65374         16.5561 
         1.6874         15.1488         3.62117         16.4806 
        1.69353         15.0407         3.58902         16.3533 
        1.69967         14.9614         3.55719         16.3056 
        1.70581         14.9151         3.52575         16.2598 
        1.71193         14.8276         3.49481         16.1854 
        1.71806         14.7616         3.46418          16.129 
        1.72421         14.6846         3.43385           16.05 
        1.73035         14.6102         3.40392         15.9839 
        1.73649          14.493         3.37436         15.9289 
        1.74262         14.4392         3.34516          15.823 
        1.74876         14.4204          3.3163         15.7321 
        1.75489         14.2835         3.28783         15.6846 
        1.76101         14.2414         3.25971          15.648 
        1.76715         14.1371         3.23188         15.5637 
        1.77329         14.0693         3.20434         15.4738 
        1.77943         14.0339          3.1771         15.4013 
        1.78557         13.9923         3.15023         15.3374 
        1.79171         13.8973         3.12366          15.282 
        1.79785         13.8116         3.09739         15.2291 
        1.80399         13.7189         3.07143         15.1701 
        1.81012         13.6998          3.0458         15.1027 
        1.81625          13.593         3.02048         15.0372 
        1.82239         13.5388         2.99541          14.978 
        1.82853          13.479         2.97063         14.9196 
        1.83466         13.4057         2.94616         14.8605 
        1.84078          13.341         2.92199          14.793 
        1.84692         13.2797         2.89805         14.7136 
        1.85306         13.2196         2.87435         14.6664 
         1.8592         13.1916         2.85095          14.627 
        1.86533         13.1181         2.82782         14.5506 
        1.87147         13.0252         2.80493         14.4783 
