# k  (h/Mpc)    Pcb(k)  (Mpc/h)^3    Pcb_linear(k) (Mpc/h)^3    Pcb_NL(k) (Mpc/h)^3   ShotnoiseSubtracted = false
     0.00783031         6557.68         6606.22         6545.61 
       0.013688         7230.46         7359.98         7311.23 
       0.019231         6738.56         6795.59         6755.44 
      0.0249154         5753.34          5721.4         5699.06 
      0.0312784         4492.35         4488.97         4486.87 
      0.0375637         3522.89         3534.34         3537.01 
      0.0433917          2955.6         2941.39         2943.75 
      0.0492413         2579.69         2578.52         2581.24 
      0.0555754         2363.55         2348.67         2348.71 
      0.0619321         2153.67         2182.64         2181.16 
       0.067871         2011.02         2015.69          2014.3 
      0.0738098          1814.1         1809.92         1804.91 
      0.0800417         1577.67         1563.99         1564.54 
      0.0862327         1335.03         1324.35         1334.19 
      0.0921407         1146.17         1131.49         1144.21 
      0.0982031         1011.79         986.307         1005.25 
       0.104506         902.115         890.865         912.867 
       0.110769         850.111         837.464         852.884 
       0.116806         824.539         805.457         817.187 
       0.122832          783.88         774.185         785.011 
       0.129052         740.988          729.86         739.201 
       0.135211         690.662         670.888         682.075 
       0.141259         619.785         604.137         619.403 
       0.147318         551.966         538.176         559.529 
       0.153489         498.952         480.772         499.712 
       0.159709         462.282         437.631         458.862 
       0.165845         424.877         409.379         434.013 
       0.171974         415.832         391.643         412.819 
       0.178125          400.68         378.938         401.005 
       0.184229         380.181         366.175         386.106 
        0.19034         367.774         349.821         368.143 
       0.196428         348.703         329.149         345.789 
       0.202534         318.781         305.539         324.086 
       0.208729         303.482         281.439         300.679 
       0.214876         284.662         260.051         283.515 
       0.220989         262.588         242.849         267.308 
       0.227147         254.078         229.856         253.781 
        0.23329         243.933         220.352         244.931 
       0.239377         238.127         212.861         236.218 
       0.245482         227.219         205.733         226.366 
       0.251667         217.077         197.783         219.423 
       0.257832         212.343         188.714         209.381 
       0.263955          198.69         178.844         199.264 
       0.270079         188.499         168.821         189.776 
        0.27624         178.878         159.366          180.03 
       0.282372         171.905         151.131           172.8 
        0.28843         168.883         144.345         166.089 
       0.294538         160.606         138.693         160.293 
       0.300721         154.111         133.817         155.564 
        0.30691         151.184         129.303         150.967 
       0.313033         144.244         124.837          145.39 
       0.319153         141.218         120.164         140.513 
       0.325316         135.689         115.272          135.95 
        0.33145         130.654         110.356          130.29 
       0.337538         125.483         105.655         125.334 
       0.343633         121.117         101.295         121.677 
       0.349808         116.876         97.3371         118.137 
       0.355968         113.589         93.8355         115.061 
       0.362074         110.748         90.7199         111.344 
       0.368217          107.99         87.8173         107.452 
       0.374374         104.934         85.0103         104.535 
       0.380519         100.455          82.239         101.287 
       0.386598         97.8831         79.4941         98.7061 
       0.392688         94.4795         76.7645         95.8099 
        0.39888         92.6203         74.0659         92.8678 
       0.405048         90.0363         71.5036          90.405 
       0.411186         87.9771          69.117         88.0957 
       0.417313         85.4475         66.9123         85.3365 
       0.423458          83.144         64.8563         83.3446 
       0.429607         81.1209         62.9236         81.2505 
       0.435692          79.718         61.1014         79.2005 
       0.441815         77.0074         59.3228         77.7071 
       0.447964         74.3022         57.5747         75.5392 
       0.454126         72.9015         55.8634         73.2638 
       0.460267         72.0633         54.2053          72.103 
       0.466387         69.9574         52.6097         70.1044 
        0.47254         68.9613         51.0759         68.5986 
       0.478662         66.4085         49.6283         67.0592 
       0.484765         65.1535         48.2594         65.1212 
       0.490885         63.4149          46.951         64.0814 
       0.497035         62.6443         45.6921         62.9167 
       0.503198         61.2166         44.4784         61.3595 
       0.509342         59.4965         43.3075         60.2132 
       0.515458         58.3841          42.174          59.267 
       0.521598         56.8721         41.0683         57.5115 
       0.527764         56.1468          39.994         56.0992 
       0.533884         55.3736         38.9664         55.1236 
           0.54         53.7948         37.9792         54.0597 
       0.546137         52.3082         37.0264         53.1847 
       0.552299         51.2542         36.1061          51.792 
       0.558452         50.2291         35.2219         50.7196 
       0.564573         49.7862         34.3738         50.0546 
       0.570708         48.3203         33.5522         49.1465 
       0.576825         47.7497         32.7584         48.1325 
       0.582926         47.0298         31.9899         47.2297 
       0.589034          45.993          31.243         46.6281 
       0.595184         45.2685         30.5141         45.6049 
       0.601379         44.1534         29.8039         44.9578 
       0.607522         43.1947         29.1234         43.8505 
       0.613639         42.7378         28.4685          43.257 
       0.619772         41.7859         27.8332         42.4971 
       0.625918         41.2548         27.2167         41.8905 
       0.632068         40.5663         26.6185         41.0938 
       0.638161         39.7357         26.0433         40.4624 
         0.6443         39.3419         25.4807         39.6936 
       0.650464         38.3033         24.9324         38.9679 
       0.656582         38.0821         24.4041         38.4973 
       0.662703         37.3984         23.8911         37.7514 
       0.668861         36.5339         23.3901         37.2954 
       0.675024         36.2221         22.9034          36.557 
       0.681124         35.7476         22.4357         36.0001 
       0.687237         35.0138         21.9803          35.454 
       0.693381         34.4678         21.5355         34.8336 
       0.699536         34.0951         21.1022         34.5281 
       0.705665         33.5012         20.6828         34.0606 
       0.711789         32.9342         20.2752         33.2911 
       0.717957         32.3387         19.8758           32.97 
        0.72409         31.9571         19.4894         32.5613 
       0.730186         31.7071         19.1157         32.0723 
       0.736317         31.0841         18.7498         31.5436 
       0.742472         30.6534         18.3923         31.1325 
       0.748622         30.1254         18.0444         30.6648 
        0.75476          29.637         17.7065         30.2629 
       0.760888         29.5206         17.3777         29.8437 
       0.767043         28.8513         17.0561         29.5564 
       0.773185         28.4216         16.7433         29.1531 
       0.779291         28.0682         16.4403         28.7831 
       0.785407         27.7048         16.1443         28.3127 
       0.791564         27.5872         15.8538         27.9569 
       0.797719         26.9181         15.5706         27.7243 
       0.803834         26.7754         15.2961         27.2671 
       0.809972         26.3523         15.0273         26.9164 
       0.816124         26.0268         14.7644         26.6127 
       0.822261         25.6232         14.5086         26.2379 
       0.828378         25.4638         14.2595         25.8452 
       0.834502         25.1164         14.0162         25.6421 
       0.840667         24.8368          13.777         25.3484 
       0.846816         24.4432          13.544         25.0372 
       0.852925         24.1967          13.318         24.7971 
       0.859047         24.0144         13.0966         24.4452 
       0.865192          23.603         12.8796         24.1584 
       0.871341         23.3273         12.6674         23.9059 
       0.877463         23.0308         12.4609         23.6354 
       0.883569          22.891         12.2596         23.4074 
       0.889708         22.5717         12.0617         23.1125 
       0.895864         22.2844         11.8677         22.8188 
       0.902008         22.0673         11.6784          22.573 
       0.908149         21.7491         11.4933         22.4017 
       0.914301         21.5357          11.312         22.2147 
       0.920448         21.3554         11.1347          21.877 
       0.926574         21.0557         10.9619         21.6235 
       0.932687         20.7898         10.7932         21.4076 
       0.938823         20.4941         10.6274         21.1307 
       0.944975         20.3115         10.4647          20.945 
       0.951105         20.1521         10.3061         20.7266 
       0.957225         19.9516          10.151         20.5102 
       0.963368         19.6978         9.99856         20.2838 
       0.969511         19.4969         9.84929         20.0576 
       0.975621         19.3346         9.70388          19.915 
       0.981748         19.0882         9.56104         19.7196 
       0.987916         18.9237          9.4202         19.5201 
        0.99406         18.6853         9.28273         19.3003 
        1.00019         18.5354         9.14828         19.1062 
        1.00632         18.3864         9.01663           18.94 
        1.01246         18.1546         8.88739         18.7665 
        1.01859         17.9801         8.76089           18.63 
        1.02471         17.7977         8.63703         18.4355 
        1.03085         17.6672         8.51514          18.226 
        1.03698         17.5362         8.39587         18.0506 
        1.04314         17.3217         8.27839         17.8592 
        1.04929          17.062         8.16344          17.752 
        1.05541         17.0167         8.05114         17.6498 
        1.06154         16.8549         7.94068         17.4168 
        1.06769         16.6019         7.83214         17.2317 
        1.07382         16.4856         7.72598         17.1104 
        1.07993         16.3564         7.62204         16.9436 
        1.08607          16.184         7.51958         16.8154 
        1.09222         16.0465          7.4189         16.6981 
        1.09836         15.8667         7.32019         16.5355 
        1.10449         15.7877         7.22339         16.3738 
        1.11063         15.6276         7.12823         16.2254 
        1.11677         15.5479         7.03483         16.0694 
         1.1229         15.3637         6.94327         15.9658 
        1.12903         15.1983         6.85326         15.8307 
        1.13518         15.1462         6.76477          15.682 
        1.14131         14.9899          6.6779          15.548 
        1.14745         14.8108         6.59261         15.4473 
        1.15359         14.6313          6.5088         15.2743 
        1.15973         14.5728         6.42641         15.1897 
        1.16584         14.4304         6.34583         15.0549 
        1.17197         14.2693         6.26651         14.9798 
        1.17811         14.1784         6.18831         14.7829 
        1.18424         14.0141         6.11167         14.6856 
        1.19038         13.9522         6.03612          14.617 
        1.19652         13.7835         5.96187         14.4496 
        1.20267         13.7364         5.88888         14.3619 
        1.20881         13.5783         5.81712         14.2512 
        1.21495         13.5171         5.74668         14.1558 
        1.22108           13.42         5.67742         14.0328 
         1.2272         13.2772         5.60946         13.9458 
        1.23334         13.2122         5.54247         13.8357 
        1.23949         13.0844         5.47641          13.695 
        1.24562         12.9407         5.41162         13.6119 
        1.25174         12.8842         5.34797           13.52 
        1.25789         12.7908         5.28516         13.4223 
        1.26402         12.6818         5.22347         13.2965 
        1.27014         12.5934         5.16291         13.2166 
        1.27628         12.4679         5.10314         13.1053 
        1.28244         12.4539          5.0442         13.0509 
        1.28858         12.2932         4.98627         12.9386 
        1.29471         12.1787         4.92938         12.8492 
        1.30084         12.0822         4.87343         12.7871 
        1.30697         12.0114         4.81826         12.6656 
        1.31312         11.9228         4.76387         12.5774 
        1.31925         11.8452         4.71049         12.5039 
        1.32537         11.7316         4.65797          12.428 
        1.33151         11.6339         4.60608         12.3416 
        1.33765         11.6084           4.555         12.2427 
        1.34378         11.5155          4.5048         12.1701 
        1.34992         11.4006         4.45532          12.101 
        1.35606         11.3012         4.40648         11.9997 
         1.3622         11.2382         4.35847         11.9206 
        1.36833         11.1877         4.31128          11.864 
        1.37445         11.0953         4.26481         11.7672 
        1.38059         11.0009         4.21889         11.6859 
        1.38675         10.9577         4.17354         11.6286 
        1.39288         10.8443         4.12903         11.5336 
        1.39901         10.7578          4.0852         11.4609 
        1.40515         10.7125          4.0419         11.3831 
         1.4113         10.6393         3.99925         11.3066 
        1.41742         10.5721         3.95737         11.2542 
        1.42355         10.4746         3.91602         11.1933 
         1.4297         10.4148         3.87514         11.0972 
        1.43585         10.3383         3.83485         11.0444 
        1.44198         10.3068          3.7953         10.9787 
        1.44809         10.2197         3.75637         10.9182 
        1.45423          10.145         3.71785         10.8232 
        1.46036         10.0831         3.67994         10.7577 
        1.46649         10.0085         3.64254         10.7168 
        1.47263         9.94261         3.60564         10.6669 
        1.47877         9.86219         3.56926          10.589 
        1.48491         9.81448         3.53333         10.5153 
        1.49104         9.75078         3.49797          10.448 
        1.49718         9.71481         3.46307         10.4034 
        1.50333         9.65803         3.42859         10.3408 
        1.50947         9.56262         3.39464         10.2819 
         1.5156         9.52857         3.36121          10.227 
        1.52172         9.45631         3.32823         10.1584 
        1.52787         9.43024         3.29563         10.0907 
          1.534         9.34957         3.26351         10.0352 
        1.54013         9.30311         3.23184         9.97302 
        1.54627         9.21902         3.20054         9.90718 
        1.55241           9.146         3.16965         9.85223 
        1.55855         9.11485          3.1392          9.8071 
        1.56467         9.05155         3.10924         9.76306 
         1.5708          9.0174         3.07959         9.70435 
        1.57695         8.95872         3.05028         9.64491 
        1.58308         8.89638         3.02142         9.60139 
        1.58922         8.84111         2.99291         9.55487 
        1.59535         8.78916         2.96478         9.49103 
         1.6015         8.72593         2.93697         9.44074 
        1.60764         8.68006         2.90953         9.38783 
        1.61376         8.63615         2.88251          9.3289 
        1.61989         8.55834         2.85582         9.30386 
        1.62604         8.52613         2.82941         9.25456 
        1.63218         8.47235         2.80335         9.20107 
        1.63831         8.42166         2.77767         9.16591 
        1.64444         8.37699         2.75231         9.11828 
        1.65059          8.3261          2.7272         9.05413 
        1.65673         8.27829         2.70244         9.00534 
        1.66285          8.2148         2.67805           8.966 
        1.66898         8.18301         2.65396         8.91494 
        1.67512         8.16558         2.63011          8.8595 
        1.68127         8.09758         2.60654         8.82265 
         1.6874         8.07318          2.5833         8.77953 
        1.69353          7.9817         2.56037         8.70825 
        1.69967         7.94802         2.53766         8.67894 
        1.70581         7.91671         2.51523         8.64623 
        1.71193          7.8615         2.49316         8.60122 
        1.71806         7.81667          2.4713         8.57797 
        1.72421         7.78012         2.44967         8.53131 
        1.73035          7.7421         2.42832         8.48903 
        1.73649          7.6965         2.40723         8.45638 
        1.74262         7.66014          2.3864         8.39157 
        1.74876         7.61928         2.36581          8.3446 
        1.75489         7.57251          2.3455          8.3123 
        1.76101         7.51304         2.32544         8.27408 
        1.76715         7.49879         2.30558         8.23689 
        1.77329         7.44895         2.28594         8.18964 
        1.77943         7.40618         2.26651         8.14202 
        1.78557         7.39731         2.24734         8.10704 
        1.79171         7.33195         2.22838         8.07098 
        1.79785         7.28267         2.20964         8.03412 
        1.80399          7.2569         2.19112         8.00209 
        1.81012         7.21521         2.17284         7.96784 
        1.81625         7.18025         2.15478         7.93647 
        1.82239         7.13733         2.13689         7.90541 
        1.82853         7.09855         2.11921         7.86458 
        1.83466         7.05354         2.10175         7.82732 
        1.84078         7.01623         2.08451         7.79156 
        1.84692         7.00652         2.06743         7.74447 
        1.85306         6.96107         2.05053         7.70995 
         1.8592         6.92837         2.03383         7.68604 
        1.86533         6.88134         2.01734            7.65 
        1.87147         6.85056           2.001         7.60676 
