# k  (h/Mpc)    P(k)  (Mpc/h)^3    P_linear(k)  (Mpc/h)^3     P_NL(k)  ShotnoiseSubtracted = false
     0.00783031         24201.2         24339.7         24100.7 
       0.013688         26296.3           27101         26877.5 
       0.019231         24592.9         25016.5         24812.8 
      0.0249154         21226.6         21059.2         20904.6 
      0.0312784         16438.8         16521.4         16427.9 
      0.0375637           12866         13007.2         12966.9 
      0.0433917         10859.4         10824.6         10778.9 
      0.0492413         9468.99         9488.98         9453.13 
      0.0555754         8688.35         8642.94         8615.68 
      0.0619321         7814.82         8031.84         8004.74 
       0.067871         7330.78         7417.41         7405.68 
      0.0738098         6676.64         6660.13         6595.97 
      0.0800417         5830.65         5755.12         5751.27 
      0.0862327         4960.66         4873.26         4975.33 
      0.0921407         4329.09         4163.59         4295.71 
      0.0982031         3871.11         3629.32         3835.93 
       0.104506         3442.98         3278.11         3525.31 
       0.110769          3251.1          3081.6         3262.92 
       0.116806         3147.05         2963.82         3107.08 
       0.122832         2989.91         2848.74         2978.97 
       0.129052         2793.12         2685.64         2802.71 
       0.135211         2666.81         2468.63         2599.58 
       0.141259         2396.98         2223.01         2403.86 
       0.147318         2174.04         1980.29         2217.74 
       0.153489         1995.17         1769.07         1989.95 
       0.159709         1896.34         1610.33         1859.27 
       0.165845         1743.78         1506.36         1784.99 
       0.171974         1702.72          1441.1         1694.92 
       0.178125          1652.4         1394.35         1653.66 
       0.184229         1528.08         1347.39         1579.04 
        0.19034         1499.18         1287.21         1504.85 
       0.196428          1442.2         1211.15         1425.96 
       0.202534         1336.08         1124.27          1356.2 
       0.208729         1299.35         1035.59         1264.26 
       0.214876         1222.72          956.89         1219.78 
       0.220989         1156.07          893.59         1170.35 
       0.227147         1119.79         845.781         1127.36 
        0.23329         1074.31         810.806         1095.63 
       0.239377         1067.98         783.246         1053.64 
       0.245482         1014.14         757.016         1009.85 
       0.251667         977.007         727.761         984.273 
       0.257832         955.192         694.397         943.035 
       0.263955         906.317         658.076         906.802 
       0.270079         874.822         621.193         873.825 
        0.27624         836.785         586.402         839.153 
       0.282372         822.569         556.096         817.619 
        0.28843         804.884         531.132         797.154 
       0.294538         766.481         510.336         771.791 
       0.300721         750.256         492.394         749.735 
        0.30691         729.572         475.783         738.431 
       0.313033          698.63         459.352         712.403 
       0.319153         690.233         442.157         691.387 
       0.325316         677.884         424.154         674.551 
        0.33145         659.732         406.066         648.326 
       0.337538         635.744         388.767         632.686 
       0.343633         620.311         372.722         623.179 
       0.349808         605.773         358.161         610.783 
       0.355968         593.459         345.277         596.904 
       0.362074         571.194         333.812         584.804 
       0.368217         567.622         323.133         569.029 
       0.374374         558.879         312.803         556.031 
       0.380519         536.895         302.605         542.721 
       0.386598         531.603         292.506         536.572 
       0.392688         516.754         282.462         521.663 
        0.39888         506.139         272.532          510.35 
       0.405048         492.815         263.104         499.888 
       0.411186         492.759         254.321         488.975 
       0.417313         484.415          246.21          480.12 
       0.423458         472.931         238.644         471.668 
       0.429607         458.101         231.533         463.756 
       0.435692         451.506         224.827         451.126 
       0.441815         443.434         218.285         447.438 
       0.447964         435.108         211.851         441.016 
       0.454126         429.659         205.555         428.163 
       0.460267          423.04         199.453         425.303 
       0.466387         412.587         193.582         418.079 
        0.47254         409.275         187.938         410.457 
       0.478662         400.016         182.612          402.28 
       0.484765         393.811         177.574         396.239 
       0.490885         391.419          172.76         388.955 
       0.497035         380.955         168.128         384.294 
       0.503198         379.916         163.662         379.198 
       0.509342         372.491         159.354         372.831 
       0.515458         365.014         155.183         368.442 
       0.521598         362.158         151.114          363.08 
       0.527764         354.833         147.161         359.657 
       0.533884         350.196          143.38          354.62 
           0.54         346.912         139.748         348.529 
       0.546137         340.284         136.242         344.402 
       0.552299         338.088         132.855         339.346 
       0.558452         332.257         129.602         335.444 
       0.564573          331.06         126.481         332.523 
       0.570708         324.597         123.458         328.261 
       0.576825         319.337         120.537         322.306 
       0.582926         318.173         117.709         319.674 
       0.589034         311.574         114.961         315.443 
       0.595184         309.427         112.279         310.366 
       0.601379         303.987         109.666         306.906 
       0.607522         298.233         107.162         302.137 
       0.613639         297.143         104.752          301.44 
       0.619772         295.417         102.415         299.355 
       0.625918         289.426         100.146         294.005 
       0.632068         288.138         97.9452         291.361 
       0.638161         284.544         95.8286         289.197 
         0.6443         280.349         93.7582         285.272 
       0.650464         278.009         91.7407         280.225 
       0.656582         274.391         89.7969         278.434 
       0.662703          273.61         87.9092         275.995 
       0.668861         268.052         86.0659         274.328 
       0.675024         267.097         84.2751          271.52 
       0.681124          261.77          82.554         267.416 
       0.687237         261.035         80.8782         264.646 
       0.693381          256.86         79.2415         261.981 
       0.699536          256.39         77.6475         260.191 
       0.705665         252.658         76.1042         256.361 
       0.711789         249.903         74.6043         255.143 
       0.717957         248.375         73.1346          253.79 
        0.72409         244.995         71.7129         250.427 
       0.730186         245.317         70.3378         247.648 
       0.736317         241.011         68.9915         246.016 
       0.742472          239.32         67.6758         243.827 
       0.748622         237.703          66.396         241.057 
        0.75476         235.295         65.1523         240.998 
       0.760888         233.449         63.9427         237.578 
       0.767043         230.289         62.7593         235.424 
       0.773185         227.783         61.6085         233.787 
       0.779291         226.495         60.4933         231.245 
       0.785407         224.817         59.4042         229.437 
       0.791564         223.332         58.3352         227.488 
       0.797719         219.913         57.2932         225.743 
       0.803834          219.34         56.2833         224.482 
       0.809972         216.237         55.2943         222.421 
       0.816124         214.442         54.3269         220.346 
       0.822261         212.518         53.3854         219.401 
       0.828378         211.517         52.4692         217.178 
       0.834502         208.586         51.5737         215.498 
       0.840667          208.13         50.6935         213.513 
       0.846816         205.404         49.8364         212.247 
       0.852925         205.225         49.0046         210.756 
       0.859047         202.113         48.1901         209.072 
       0.865192         201.396         47.3915           207.1 
       0.871341         199.614         46.6105         205.652 
       0.877463         198.141         45.8508         204.567 
       0.883569          197.21           45.11         204.234 
       0.889708         195.505         44.3819         201.628 
       0.895864         192.741         43.6681         200.619 
       0.902008         191.606         42.9715         198.563 
       0.908149         189.495         42.2906          197.15 
       0.914301         188.832         41.6233         195.572 
       0.920448         186.975         40.9712         194.577 
       0.926574         185.511         40.3354         193.169 
       0.932687         185.168         39.7144         191.613 
       0.938823         183.337         39.1044          191.07 
       0.944975         182.965         38.5058         189.382 
       0.951105         180.819          37.922         188.302 
       0.957225         179.323         37.3513         186.723 
       0.963368         179.113         36.7905         185.544 
       0.969511         176.747         36.2413         184.354 
       0.975621          174.55         35.7062         183.398 
       0.981748         174.288         35.1806         182.546 
       0.987916         173.174         34.6624         180.964 
        0.99406         171.589         34.1565         179.826 
        1.00019         170.563         33.6618         178.658 
        1.00632         169.573         33.1774         177.335 
        1.01246         168.285         32.7018         175.831 
        1.01859         166.623         32.2364         175.174 
        1.02471         165.341         31.7806         174.143 
        1.03085         164.718         31.3321         173.152 
        1.03698         163.726         30.8933         172.579 
        1.04314         162.768          30.461         171.084 
        1.04929         161.456          30.038         169.856 
        1.05541         161.314         29.6248         169.115 
        1.06154         159.628         29.2184         168.397 
        1.06769         158.587          28.819         167.369 
        1.07382         156.632         28.4284         166.378 
        1.07993         156.383         28.0459         165.447 
        1.08607          155.67         27.6689         164.164 
        1.09222         154.085         27.2984         163.427 
        1.09836         153.084         26.9352         162.451 
        1.10449         152.483          26.579         161.947 
        1.11063         151.213         26.2289         160.753 
        1.11677         150.003         25.8852         159.601 
         1.1229         149.715         25.5483         158.712 
        1.12903         147.853         25.2171         157.831 
        1.13518         147.148         24.8915         157.025 
        1.14131          146.49         24.5719         156.094 
        1.14745          145.33          24.258         154.998 
        1.15359          144.43         23.9496         154.453 
        1.15973          143.75         23.6465         153.599 
        1.16584         142.884           23.35         152.885 
        1.17197         142.171         23.0581         152.202 
        1.17811         140.581         22.7704         151.142 
        1.18424         140.069         22.4884         150.142 
        1.19038         139.233         22.2104         149.914 
        1.19652         137.817         21.9372         148.597 
        1.20267         137.188         21.6686         148.226 
        1.20881         136.403         21.4046         147.268 
        1.21495         135.837         21.1454         146.519 
        1.22108         134.672         20.8905          145.69 
         1.2272         134.309         20.6405         144.993 
        1.23334         133.017         20.3939         144.429 
        1.23949         132.606         20.1509         143.527 
        1.24562         131.573         19.9125         142.421 
        1.25174         131.119         19.6783         141.776 
        1.25789         130.039         19.4471         140.926 
        1.26402         129.291         19.2202         140.579 
        1.27014         128.657         18.9973         139.937 
        1.27628          128.18         18.7774         139.576 
        1.28244         126.973         18.5605         138.556 
        1.28858         126.205         18.3474           137.9 
        1.29471          125.26          18.138         137.151 
        1.30084         124.807         17.9322         136.244 
        1.30697         124.066         17.7292         135.575 
        1.31312         123.543          17.529         134.762 
        1.31925         122.448         17.3326          134.38 
        1.32537         122.053         17.1394         133.831 
        1.33151          120.86         16.9484         133.069 
        1.33765         120.694         16.7605         132.456 
        1.34378         119.927         16.5758         131.895 
        1.34992         119.024         16.3937         131.168 
        1.35606         118.476          16.214         130.376 
         1.3622          117.78         16.0373         130.001 
        1.36833         117.202         15.8637         129.234 
        1.37445           116.3         15.6927          128.54 
        1.38059         115.626         15.5237         127.874 
        1.38675         114.903         15.3569         127.177 
        1.39288         114.218         15.1931         126.661 
        1.39901         113.545         15.0318         126.198 
        1.40515           112.9         14.8725         125.623 
         1.4113         112.482         14.7155         125.009 
        1.41742         111.881         14.5615         124.418 
        1.42355         110.869         14.4093         123.738 
         1.4297         110.294         14.2589         123.258 
        1.43585         110.086         14.1106         122.655 
        1.44198         109.219         13.9651          122.34 
        1.44809         108.628         13.8219         121.546 
        1.45423         108.094         13.6801         120.853 
        1.46036         107.459         13.5406         120.355 
        1.46649         106.549          13.403         119.964 
        1.47263         106.405         13.2672         119.466 
        1.47877         105.557         13.1334         118.636 
        1.48491         104.774         13.0012         118.092 
        1.49104           104.3          12.871         117.864 
        1.49718         103.606         12.7426         117.121 
        1.50333         102.931         12.6157         116.423 
        1.50947         102.607         12.4909         116.007 
         1.5156         101.918         12.3678         115.607 
        1.52172         101.325         12.2465         115.083 
        1.52787         100.838         12.1265         114.534 
          1.534         100.329         12.0083         114.032 
        1.54013         99.9905         11.8918         113.597 
        1.54627         99.1704         11.7766         113.149 
        1.55241         98.6555         11.6629         112.579 
        1.55855         97.9067         11.5509         111.929 
        1.56467         97.4919         11.4407         111.559 
         1.5708         97.1266         11.3316         111.067 
        1.57695         96.5596         11.2237         110.534 
        1.58308         95.6765         11.1175         110.179 
        1.58922         95.3185         11.0126         109.668 
        1.59535         94.8321         10.9091         109.155 
         1.6015         94.1786         10.8068         108.684 
        1.60764         93.8053         10.7058          108.22 
        1.61376          93.422         10.6064         107.804 
        1.61989         92.8072         10.5082         107.382 
        1.62604         92.4906          10.411         106.662 
        1.63218         91.6265         10.3151         106.143 
        1.63831         91.4226         10.2207         105.941 
        1.64444         90.6787         10.1273         105.478 
        1.65059         90.1293          10.035         104.987 
        1.65673         89.7733         9.94383         104.466 
        1.66285         89.6051         9.85409         104.075 
        1.66898         88.9069         9.76543         103.796 
        1.67512         88.0073         9.67769         103.246 
        1.68127         87.9212         9.59094         102.846 
         1.6874         87.5468         9.50546         102.498 
        1.69353         86.7766         9.42106         101.915 
        1.69967         86.4825         9.33749         101.558 
        1.70581         85.8471         9.25497         101.159 
        1.71193         85.5944         9.17376          100.65 
        1.71806         84.7958         9.09335         100.274 
        1.72421         84.3927         9.01374         99.9174 
        1.73035         84.1089         8.93518         99.5145 
        1.73649         83.6575         8.85757         99.0366 
        1.74262         82.9852         8.78094         98.4937 
        1.74876         82.5859         8.70517         98.1148 
        1.75489         82.4161         8.63045         97.8045 
        1.76101         81.9473         8.55663         97.4268 
        1.76715         81.4106         8.48357         97.0343 
        1.77329         80.9719         8.41127         96.5838 
        1.77943         80.4061         8.33979         96.1703 
        1.78557         79.9999         8.26924         95.8529 
        1.79171         79.5838          8.1995         95.4234 
        1.79785         79.1297         8.13055         94.9745 
        1.80399         78.6085          8.0624         94.6585 
        1.81012         78.2963         7.99513         94.2741 
        1.81625         77.6578         7.92866         93.8532 
        1.82239         77.4785         7.86284         93.4767 
        1.82853          76.972          7.7978         93.0986 
        1.83466          76.519         7.73356          92.689 
        1.84078         76.2356         7.67011         92.3241 
        1.84692         75.8014         7.60727         92.0811 
        1.85306         75.3714         7.54506         91.6481 
         1.8592          75.052         7.48364         91.1601 
        1.86533         74.5357         7.42293         90.8966 
        1.87147         74.1278         7.36283         90.5819 
        1.87761         73.7825         7.30337         90.1784 
