# k  (h/Mpc)    Pcb(k)  (Mpc/h)^3    Pcb_linear(k) (Mpc/h)^3    Pcb_NL(k) (Mpc/h)^3   ShotnoiseSubtracted = false
     0.00783031         18603.7         18717.3           18539 
       0.013688         20294.3         20843.6         20683.4 
       0.019231         18963.2         19241.6         19099.3 
      0.0249154         16321.6         16198.3         16097.8 
      0.0312784           12669         12708.2         12657.9 
      0.0375637         9918.57         10005.2         9986.78 
      0.0433917         8359.45         8326.45         8304.79 
      0.0492413         7289.57         7299.11         7283.13 
      0.0555754         6689.29         6648.35         6634.49 
      0.0619321          6034.8         6178.31          6163.1 
       0.067871         5657.89         5705.69            5699 
      0.0738098         5137.13         5123.18         5085.85 
      0.0800417         4482.35         4427.02         4426.01 
      0.0862327         3805.74         3748.67         3811.86 
      0.0921407         3304.23         3202.78         3284.14 
      0.0982031         2944.42         2791.81          2918.5 
       0.104506         2618.45         2521.64         2672.86 
       0.110769         2471.36         2370.48         2479.56 
       0.116806          2396.6         2279.88         2365.41 
       0.122832         2274.53         2191.36         2269.84 
       0.129052          2134.1          2065.9         2135.64 
       0.135211         2024.07         1898.97          1978.4 
       0.141259         1817.74         1710.03         1819.43 
       0.147318         1637.68         1523.32         1669.81 
       0.153489         1496.93         1360.84         1494.85 
       0.159709         1413.94         1238.72          1389.9 
       0.165845         1297.13         1158.76         1330.11 
       0.171974         1270.85         1108.55         1261.95 
       0.178125         1230.04         1072.59         1230.66 
       0.184229         1144.32         1036.46         1177.61 
        0.19034         1117.79         990.174            1122 
       0.196428         1072.23          931.66         1059.01 
       0.202534         986.299         864.831         1003.72 
       0.208729         957.344         796.617         934.478 
       0.214876         900.385         736.078         897.968 
       0.220989         843.514         687.385         857.574 
       0.227147          818.28          650.61         822.161 
        0.23329          785.16         623.707         798.192 
       0.239377         777.696         602.504         767.451 
       0.245482         737.565         582.329         734.597 
       0.251667         709.109         559.825         715.769 
       0.257832         694.605         534.157         684.412 
       0.263955         655.601         506.219         656.158 
       0.270079         629.134         477.848         630.828 
        0.27624         600.779         451.086         603.811 
       0.282372          587.23         427.776         585.459 
        0.28843         577.751         408.569         568.199 
       0.294538         547.793         392.572         550.377 
       0.300721         533.777          378.77         534.784 
        0.30691         521.463         365.993         524.399 
       0.313033         496.794         353.351         505.501 
       0.319153         489.158         340.126         490.131 
       0.325316         479.616         326.277         476.859 
        0.33145         466.296         312.363         457.709 
       0.337538         448.044         299.056         444.997 
       0.343633         435.455         286.715         437.967 
       0.349808         423.915         275.513         427.968 
       0.355968         415.426         265.601         418.351 
       0.362074         398.943         256.783         408.227 
       0.368217         396.064         248.567         395.633 
       0.374374         388.747         240.622         386.151 
       0.380519         372.391         232.777         375.975 
       0.386598         367.744         225.008         371.423 
       0.392688         357.158         217.282         359.518 
        0.39888          348.54         209.643         351.833 
       0.405048         339.477         202.391         345.011 
       0.411186         338.788         195.635         335.633 
       0.417313         332.679         189.395         328.467 
       0.423458          324.22         183.576         322.645 
       0.429607          313.55         178.105         316.518 
       0.435692         308.623         172.947         307.925 
       0.441815         302.917         167.913         304.714 
       0.447964         295.462         162.965         299.263 
       0.454126         291.955         158.121         290.306 
       0.460267         286.854         153.428         288.056 
       0.466387         279.681         148.912         282.486 
        0.47254         276.591          144.57         277.023 
       0.478662         269.994         140.473          271.26 
       0.484765         265.468         136.598         265.897 
       0.490885         262.742         132.895         261.471 
       0.497035         256.502         129.331         257.771 
       0.503198         255.359         125.896         253.877 
       0.509342         249.677         122.582         249.843 
       0.515458         244.725         119.373         246.584 
       0.521598         240.597         116.244         242.015 
       0.527764         237.339         113.203         239.352 
       0.533884         234.713         110.294         235.731 
           0.54          231.12           107.5         231.196 
       0.546137         225.781         104.803         228.396 
       0.552299         224.127         102.198         224.371 
       0.558452         220.115         99.6956         221.267 
       0.564573         219.008          97.295         219.277 
       0.570708         213.976         94.9692         216.524 
       0.576825         210.441         92.7224          211.98 
       0.582926         209.187         90.5472         209.839 
       0.589034         204.852          88.433         207.371 
       0.595184         203.318         86.3701         203.272 
       0.601379         199.985         84.3599          201.08 
       0.607522         195.101         82.4336         197.893 
       0.613639         194.328         80.5799          197.08 
       0.619772         193.186         78.7818         195.047 
       0.625918         189.413         77.0367         191.364 
       0.632068         187.046         75.3436         188.897 
       0.638161         185.735         73.7155         187.899 
         0.6443          182.67         72.1229         185.286 
       0.650464         180.315         70.5709         181.498 
       0.656582         178.087         69.0756         180.216 
       0.662703         177.361         67.6235          178.27 
       0.668861         173.256         66.2056         176.749 
       0.675024         172.622          64.828         174.806 
       0.681124         170.117         63.5041         172.082 
       0.687237         168.931          62.215         170.256 
       0.693381         165.547          60.956         168.157 
       0.699536         165.159         59.7298         166.682 
       0.705665         162.938         58.5426         164.711 
       0.711789         160.364         57.3888         163.544 
       0.717957         159.438         56.2583         162.122 
        0.72409         157.006         55.1647         160.403 
       0.730186          157.52         54.1069         158.592 
       0.736317         155.023         53.0712         156.858 
       0.742472         153.157         52.0592         155.208 
       0.748622         151.187         51.0747         153.551 
        0.75476         150.976          50.118         152.866 
       0.760888         148.955         49.1875         150.458 
       0.767043         146.402         48.2771         149.369 
       0.773185         144.749         47.3919         148.283 
       0.779291         143.986          46.534         146.381 
       0.785407         142.666         45.6963         144.918 
       0.791564          141.45          44.874         143.747 
       0.797719         139.069         44.0724         142.788 
       0.803834         139.267         43.2956          141.54 
       0.809972         137.361         42.5347         140.256 
       0.816124          135.04         41.7906         139.071 
       0.822261         134.233         41.0664         137.977 
       0.828378         133.591         40.3615         136.405 
       0.834502         132.231         39.6727         135.168 
       0.840667         131.799         38.9956          134.07 
       0.846816         129.405         38.3363         133.164 
       0.852925         128.992         37.6964         132.133 
       0.859047         127.444         37.0699         131.058 
       0.865192         126.772         36.4556         129.615 
       0.871341         125.697         35.8548          128.59 
       0.877463          124.41         35.2704         127.902 
       0.883569         124.103         34.7006         127.302 
       0.889708         123.033         34.1405         125.762 
       0.895864         121.296         33.5914         125.012 
       0.902008         120.201         33.0555         123.785 
       0.908149          119.04         32.5317         122.848 
       0.914301         118.048         32.0185          121.78 
       0.920448         117.948         31.5168         121.066 
       0.926574         116.225         31.0277         119.963 
       0.932687         115.953         30.5501         119.342 
       0.938823         114.984         30.0808         118.372 
       0.944975         114.437         29.6204         117.475 
       0.951105         113.016         29.1712         116.542 
       0.957225         112.254         28.7323           115.7 
       0.963368         111.626         28.3009         114.816 
       0.969511         110.437         27.8783         113.873 
       0.975621         108.799         27.4668         113.547 
       0.981748         108.709         27.0625         112.754 
       0.987916         108.001         26.6638         111.857 
        0.99406         107.057         26.2747         110.931 
        1.00019         106.628         25.8941         110.105 
        1.00632         105.535         25.5215         109.284 
        1.01246         104.729         25.1557         108.259 
        1.01859         103.867         24.7976         107.934 
        1.02471         103.177          24.447         107.405 
        1.03085         102.526          24.102         106.683 
        1.03698         101.734         23.7644         106.134 
        1.04314         101.229         23.4319         105.224 
        1.04929         100.593         23.1065          104.61 
        1.05541         100.076         22.7887         104.081 
        1.06154         98.8582          22.476         103.388 
        1.06769         98.2888         22.1688         102.777 
        1.07382         97.5424         21.8683         102.196 
        1.07993         97.0926         21.5741         101.458 
        1.08607         96.8258         21.2841         100.754 
        1.09222         95.5885         20.9991         100.264 
        1.09836         95.0663         20.7197         99.5057 
        1.10449         94.5979         20.4457         99.1622 
        1.11063         93.5671         20.1764         98.2769 
        1.11677         93.3303          19.912          97.648 
         1.1229         92.3401         19.6529         97.1277 
        1.12903         91.4506         19.3981         96.4996 
        1.13518         90.9435         19.1476         96.0076 
        1.14131         90.7751         18.9018         95.1973 
        1.14745         89.8916         18.6603         94.7769 
        1.15359         89.3986         18.4231         94.3195 
        1.15973         88.8966         18.1899         93.8528 
        1.16584         88.1391         17.9618         93.0831 
        1.17197         87.7621         17.7373         92.7996 
        1.17811         87.1215          17.516         92.1148 
        1.18424         86.4701          17.299         91.4598 
        1.19038         86.0384         17.0852         91.2363 
        1.19652         85.3804          16.875         90.5808 
        1.20267          84.724         16.6684         90.1608 
        1.20881          84.135         16.4653          89.462 
        1.21495          83.964         16.2659          89.134 
        1.22108         83.1939         16.0699         88.6815 
         1.2272         83.1256         15.8775         88.0996 
        1.23334          82.417         15.6879         87.8662 
        1.23949         81.7272         15.5009         87.1806 
        1.24562         81.0981         15.3175         86.4695 
        1.25174         81.1885         15.1374         86.0579 
        1.25789         80.3488         14.9596          85.587 
        1.26402         79.8617          14.785         85.3452 
        1.27014         79.2164         14.6136         84.9505 
        1.27628         78.9745         14.4444         84.6547 
        1.28244         78.4887         14.2776         83.9789 
        1.28858         78.0824         14.1136         83.5062 
        1.29471         77.5332         13.9526         83.1521 
        1.30084         76.9532         13.7942         82.4989 
        1.30697         76.4624          13.638         82.1671 
        1.31312         76.1752         13.4841         81.8001 
        1.31925         75.4118          13.333         81.4403 
        1.32537         75.0573         13.1844         81.1144 
        1.33151         74.8689         13.0375         80.6106 
        1.33765         74.2993         12.8929         80.2549 
        1.34378         74.0156         12.7508         79.8639 
        1.34992         73.4575         12.6108         79.3422 
        1.35606         73.2654         12.4725         78.9779 
         1.3622         72.7663         12.3366         78.6602 
        1.36833          72.238          12.203         78.0981 
        1.37445         71.8569         12.0715         77.8797 
        1.38059         71.3579         11.9415         77.2741 
        1.38675          71.082         11.8132         76.9381 
        1.39288         70.5573         11.6872          76.491 
        1.39901         70.2561         11.5631         76.2403 
        1.40515         69.7613         11.4406         76.0226 
         1.4113         69.3312         11.3198         75.7275 
        1.41742         69.2446         11.2013         75.2997 
        1.42355         68.7254         11.0843         74.8038 
         1.4297         68.2316         10.9685         74.5356 
        1.43585         68.0314         10.8545          74.055 
        1.44198         67.4842         10.7425         73.9003 
        1.44809         67.0525         10.6324         73.4945 
        1.45423         66.9744         10.5233         73.0246 
        1.46036         66.3385          10.416          72.715 
        1.46649         65.9543         10.3102         72.4767 
        1.47263         65.5165         10.2057         72.1479 
        1.47877         65.3795         10.1028          71.655 
        1.48491         64.8757         10.0011         71.3554 
        1.49104         64.5293         9.90096         71.1941 
        1.49718         64.1201         9.80217         70.7004 
        1.50333         63.7515         9.70458         70.3225 
        1.50947         63.6272         9.60851          70.072 
         1.5156         63.1606         9.51388         69.7742 
        1.52172         62.6027         9.42053         69.4257 
        1.52787         62.5079         9.32825         69.1059 
          1.534         62.1967         9.23732          68.888 
        1.54013         61.7888         9.14769         68.5958 
        1.54627         61.4405         9.05909         68.2392 
        1.55241         61.2574         8.97165         67.9155 
        1.55855         60.6504         8.88548         67.6128 
        1.56467         60.2877         8.80068         67.3504 
         1.5708         59.9482         8.71675         67.0149 
        1.57695         59.7188         8.63378         66.7227 
        1.58308         59.4921         8.55209          66.479 
        1.58922         59.1553         8.47139         66.1597 
        1.59535         58.9977         8.39177         65.9198 
         1.6015         58.4562         8.31305         65.5856 
        1.60764         58.1464         8.23539         65.2669 
        1.61376         58.0746         8.15893          65.121 
        1.61989         57.5977         8.08338         64.8394 
        1.62604         57.4068         8.00861         64.3439 
        1.63218         56.9138         7.93484         64.0358 
        1.63831         56.7742         7.86217         63.9569 
        1.64444         56.4185         7.79038         63.6444 
        1.65059         56.0735         7.71932         63.3143 
        1.65673         55.8779         7.64922         63.0306 
        1.66285         55.5324         7.58019         62.8145 
        1.66898         55.0936         7.51199         62.6093 
        1.67512         54.8172          7.4445         62.2963 
        1.68127         54.5953         7.37777         62.0196 
         1.6874         54.4379         7.31201         61.7716 
        1.69353         54.0368         7.24709         61.4716 
        1.69967          53.757         7.18281         61.2357 
        1.70581         53.4957         7.11933         61.0089 
        1.71193         53.2376         7.05686         60.7692 
        1.71806         52.8975           6.995         60.5453 
        1.72421         52.6254         6.93376         60.2716 
        1.73035         52.3462         6.87333         59.9911 
        1.73649         52.0912         6.81363          59.737 
        1.74262         51.8346         6.75468         59.4853 
        1.74876         51.5191          6.6964         59.2409 
        1.75489         51.4233         6.63892          58.996 
        1.76101          51.104         6.58213         58.7492 
        1.76715         50.7889         6.52593         58.5221 
        1.77329         50.5293         6.47032         58.2925 
        1.77943         50.2492         6.41533         58.0566 
        1.78557         50.1192         6.36106         57.8245 
        1.79171         49.6499         6.30741         57.5876 
        1.79785         49.6125         6.25437         57.3458 
        1.80399          49.306         6.20195         57.1058 
        1.81012         48.9599          6.1502         56.8745 
        1.81625         48.7989         6.09907         56.6351 
        1.82239         48.3912         6.04844         56.4058 
        1.82853         48.3195         5.99841         56.2154 
        1.83466         48.0073         5.94899         55.9841 
        1.84078         47.6543         5.90018         55.7487 
        1.84692         47.5485         5.85184         55.6061 
        1.85306         47.4642         5.80399         55.3573 
         1.8592         47.1261         5.75674         55.0574 
        1.86533          46.817         5.71004          54.868 
        1.87147          46.557         5.66381         54.6437 
