# k  (h/Mpc)    Pcb(k)  (Mpc/h)^3    Pcb_linear(k) (Mpc/h)^3    Pcb_NL(k) (Mpc/h)^3   ShotnoiseSubtracted = false
     0.00783031         24944.4         25086.5         24838.9 
       0.013688         27096.3         27932.2         27700.5 
       0.019231         25342.8         25783.7         25572.2 
      0.0249154         21878.3           21705         21543.7 
      0.0312784         16940.8           17028         16929.4 
      0.0375637         13258.8           13406         13363.2 
      0.0433917           11192         11156.5         11108.1 
      0.0492413          9759.1         9779.93          9741.8 
      0.0555754         8954.45         8907.94         8879.13 
      0.0619321         8052.63          8278.1         8249.63 
       0.067871         7554.06         7644.83         7632.51 
      0.0738098          6881.7         6864.33         6796.97 
      0.0800417         6010.04         5931.57         5927.44 
      0.0862327         5114.17         5022.67         5129.49 
      0.0921407         4464.79         4291.25         4429.56 
      0.0982031         3993.47          3740.6          3956.9 
       0.104506         3551.93         3378.62         3637.42 
       0.110769         3354.12         3176.09         3366.19 
       0.116806         3246.28         3054.69         3204.99 
       0.122832         3084.54         2936.09         3072.63 
       0.129052         2880.61         2767.98         2890.84 
       0.135211         2751.62         2544.32         2681.57 
       0.141259         2473.44         2291.17         2480.69 
       0.147318         2244.55         2041.01         2289.46 
       0.153489         2060.47         1823.31         2054.72 
       0.159709         1959.24         1659.69         1920.48 
       0.165845         1802.02         1552.55         1844.14 
       0.171974         1759.09         1485.28         1751.26 
       0.178125         1707.46          1437.1         1708.64 
       0.184229         1578.42          1388.7         1631.32 
        0.19034         1549.09         1326.67         1554.73 
       0.196428         1490.47         1248.28         1473.69 
       0.202534         1381.62         1158.73         1401.95 
       0.208729         1343.68         1067.34         1307.05 
       0.214876         1264.55         986.225         1261.34 
       0.220989         1196.44         920.985         1210.65 
       0.227147         1158.77         871.713         1166.59 
        0.23329         1111.72         835.667         1133.82 
       0.239377         1105.37         807.258         1090.43 
       0.245482         1049.83         780.226         1045.23 
       0.251667         1011.51         750.075         1018.76 
       0.257832         988.825         715.684         976.242 
       0.263955         938.582         678.251         938.944 
       0.270079         906.351         640.238         904.945 
        0.27624         867.074         604.382          869.23 
       0.282372         852.663          573.15         847.245 
        0.28843         833.968         547.415         826.306 
       0.294538         794.509         525.982         799.986 
       0.300721         777.901         507.491         777.142 
        0.30691         756.205         490.371         765.647 
       0.313033         724.479         473.433         738.706 
       0.319153         715.945         455.713          716.96 
       0.325316          703.16         437.158         699.671 
        0.33145         684.367         418.516         672.559 
       0.337538         659.665         400.686         656.489 
       0.343633         643.801         384.151         646.624 
       0.349808         628.875         369.142         633.916 
       0.355968         616.047         355.863         619.473 
       0.362074         593.173         344.047         607.084 
       0.368217         589.427         333.039         590.929 
       0.374374         580.393         322.393         577.466 
       0.380519         557.755         311.884         563.775 
       0.386598         552.334         301.474         557.351 
       0.392688         536.941         291.122         542.115 
        0.39888         526.126         280.888         530.286 
       0.405048         512.271          271.17         519.381 
       0.411186         512.239         262.119         508.294 
       0.417313         503.548         253.759         499.185 
       0.423458         491.689         245.961         490.362 
       0.429607         476.401         238.632         482.233 
       0.435692         469.571         231.721         469.127 
       0.441815         461.199         224.976         465.363 
       0.447964         452.736         218.346         458.824 
       0.454126         446.991         211.857         445.468 
       0.460267         440.268         205.568         442.508 
       0.466387         429.358         199.517         435.061 
        0.47254         426.034           193.7         427.174 
       0.478662         416.382          188.21         418.719 
       0.484765         409.992         183.019         412.547 
       0.490885          407.59         178.057         404.925 
       0.497035         396.687         173.283         400.138 
       0.503198         395.603          168.68         394.885 
       0.509342         387.934         164.239         388.224 
       0.515458         380.199         159.941         383.685 
       0.521598         377.421         155.747         378.201 
       0.527764         369.657         151.673         374.665 
       0.533884          364.75         147.776         369.461 
           0.54         361.483         144.032         363.194 
       0.546137         354.699         140.419         358.911 
       0.552299         352.356         136.929          353.69 
       0.558452         346.338         133.576         349.679 
       0.564573          345.17         130.359         346.635 
       0.570708         338.465         127.243         342.162 
       0.576825         333.034         124.233         336.057 
       0.582926         331.812         121.318         333.353 
       0.589034         324.995         118.486         328.913 
       0.595184         322.715         115.722         323.707 
       0.601379         317.048         113.028         320.114 
       0.607522         311.188         110.448         315.128 
       0.613639         310.045         107.964         314.406 
       0.619772         308.183         105.555         312.297 
       0.625918         302.044         103.217         306.777 
       0.632068         300.765         100.948         304.114 
       0.638161         296.908         98.7667         301.772 
         0.6443         292.633         96.6328         297.684 
       0.650464         290.212         94.5535         292.505 
       0.656582         286.462           92.55         290.644 
       0.662703         285.618         90.6044         288.129 
       0.668861         279.932         88.7046         286.435 
       0.675024         278.944         86.8589           283.5 
       0.681124         273.267         85.0851         279.281 
       0.687237         272.557         83.3579         276.373 
       0.693381         268.304          81.671         273.621 
       0.699536         267.808         80.0281         271.781 
       0.705665         263.897         78.4375         267.771 
       0.711789         261.145         76.8916         266.483 
       0.717957         259.488         75.3769         265.118 
        0.72409         256.011         73.9116         261.571 
       0.730186          256.31         72.4943         258.697 
       0.736317         251.808         71.1067         257.061 
       0.742472         250.067         69.7507         254.829 
       0.748622         248.497         68.4317         251.911 
        0.75476         245.807         67.1499         251.888 
       0.760888         244.032         65.9032         248.349 
       0.767043         240.798         64.6834         246.057 
       0.773185         238.176         63.4974         244.369 
       0.779291         236.801          62.348         241.749 
       0.785407         235.088         61.2255         239.877 
       0.791564         233.566         60.1238         237.873 
       0.797719         230.008         59.0498         236.042 
       0.803834         229.342         58.0089         234.733 
       0.809972         226.125         56.9895         232.578 
       0.816124         224.378         55.9925         230.396 
       0.822261         222.349         55.0222         229.452 
       0.828378         221.273         54.0778         227.148 
       0.834502         218.203         53.1549         225.425 
       0.840667         217.667         52.2477         223.363 
       0.846816         214.954         51.3643         222.028 
       0.852925         214.784          50.507         220.484 
       0.859047         211.462         49.6675         218.703 
       0.865192         210.729         48.8445         216.678 
       0.871341         208.866         48.0396         215.154 
       0.877463         207.381         47.2566         214.023 
       0.883569         206.387         46.4931         213.709 
       0.889708         204.563         45.7426         210.992 
       0.895864         201.728         45.0069         209.963 
       0.902008         200.569         44.2889         207.802 
       0.908149         198.324         43.5872         206.325 
       0.914301         197.701         42.8995          204.67 
       0.920448          195.65         42.2274         203.651 
       0.926574         194.184          41.572         202.217 
       0.932687         193.805         40.9321         200.541 
       0.938823         191.905         40.3033         200.031 
       0.944975         191.535         39.6864         198.253 
       0.951105         189.347         39.0847         197.155 
       0.957225         187.746         38.4965         195.495 
       0.963368         187.529         37.9185         194.269 
       0.969511         185.064         37.3524         193.051 
       0.975621          182.82         36.8009         192.015 
       0.981748           182.5         36.2592         191.163 
       0.987916         181.341         35.7251         189.502 
        0.99406         179.683         35.2038          188.33 
        1.00019         178.537         34.6939          187.11 
        1.00632          177.57         34.1946         185.727 
        1.01246         176.244         33.7045         184.174 
        1.01859         174.537         33.2247         183.477 
        1.02471         173.193          32.755         182.387 
        1.03085         172.552         32.2928         181.353 
        1.03698         171.443         31.8404         180.763 
        1.04314         170.487         31.3949         179.203 
        1.04929         169.095          30.959         177.916 
        1.05541         168.962         30.5331         177.148 
        1.06154         167.204         30.1142         176.409 
        1.06769         166.102         29.7025          175.32 
        1.07382         164.073            29.3         174.282 
        1.07993         163.841         28.9058         173.328 
        1.08607         163.019         28.5172          171.98 
        1.09222          161.43         28.1354         171.212 
        1.09836         160.356          27.761         170.204 
        1.10449         159.724         27.3939         169.666 
        1.11063         158.459         27.0331         168.427 
        1.11677         157.126         26.6788         167.239 
         1.1229         156.864         26.3316         166.293 
        1.12903         154.926         25.9902         165.391 
        1.13518         154.157         25.6547         164.521 
        1.14131         153.439         25.3252         163.576 
        1.14745         152.298         25.0018         162.411 
        1.15359         151.319         24.6839         161.861 
        1.15973         150.633         24.3715         160.947 
        1.16584         149.729         24.0659         160.241 
        1.17197         148.976         23.7651         159.515 
        1.17811         147.285         23.4685         158.397 
        1.18424         146.766         23.1779          157.37 
        1.19038          145.88         22.8913         157.113 
        1.19652         144.434         22.6098         155.743 
        1.20267         143.753         22.3329         155.366 
        1.20881         142.968         22.0608         154.381 
        1.21495         142.321         21.7937         153.559 
        1.22108         141.123          21.531         152.713 
         1.2272         140.693         21.2733         152.008 
        1.23334         139.379         21.0192         151.385 
        1.23949         138.986         20.7687          150.46 
        1.24562         137.885          20.523         149.318 
        1.25174         137.391         20.2816         148.647 
        1.25789         136.262         20.0434         147.748 
        1.26402         135.493         19.8094         147.387 
        1.27014          134.82         19.5798         146.708 
        1.27628         134.304         19.3531          146.33 
        1.28244          133.07         19.1296         145.271 
        1.28858         132.255         18.9099         144.591 
        1.29471         131.282         18.6941         143.797 
        1.30084         130.798         18.4819         142.856 
        1.30697         130.031         18.2727         142.166 
        1.31312         129.481         18.0664         141.324 
        1.31925         128.389          17.864         140.913 
        1.32537         127.951         17.6649         140.314 
        1.33151         126.702          17.468         139.522 
        1.33765         126.508         17.2743         138.882 
        1.34378         125.696          17.084         138.293 
        1.34992          124.77         16.8963         137.537 
        1.35606         124.175         16.7111         136.709 
         1.3622         123.441          16.529         136.325 
        1.36833         122.866           16.35         135.532 
        1.37445         121.931         16.1738          134.79 
        1.38059         121.192         15.9997         134.125 
        1.38675         120.413         15.8277         133.383 
        1.39288         119.721         15.6589          132.85 
        1.39901         119.059         15.4927         132.351 
        1.40515         118.329         15.3285         131.735 
         1.4113         117.923         15.1667          131.08 
        1.41742         117.241         15.0079         130.462 
        1.42355           116.2         14.8511         129.778 
         1.4297         115.603          14.696         129.253 
        1.43585         115.377         14.5433         128.663 
        1.44198         114.465         14.3932         128.301 
        1.44809         113.891         14.2456         127.471 
        1.45423         113.295         14.0995         126.769 
        1.46036         112.664         13.9558         126.238 
        1.46649         111.698         13.8139         125.816 
        1.47263         111.553          13.674         125.296 
        1.47877         110.632          13.536          124.42 
        1.48491         109.829         13.3998         123.859 
        1.49104         109.328         13.2657         123.615 
        1.49718         108.588         13.1333         122.855 
        1.50333         107.903         13.0025         122.111 
        1.50947         107.513         12.8738         121.666 
         1.5156         106.822          12.747         121.258 
        1.52172         106.224          12.622         120.719 
        1.52787         105.678         12.4983         120.144 
          1.534         105.154         12.3765         119.607 
        1.54013         104.841         12.2564         119.156 
        1.54627         103.947         12.1377         118.692 
        1.55241         103.401         12.0205         118.092 
        1.55855          102.63         11.9051         117.408 
        1.56467         102.195         11.7915         117.015 
         1.5708         101.841          11.679           116.5 
        1.57695         101.215         11.5678         115.946 
        1.58308         100.303         11.4584         115.572 
        1.58922          99.916         11.3503         115.033 
        1.59535         99.3719         11.2436          114.49 
         1.6015         98.7167         11.1381         114.003 
        1.60764         98.3142         11.0341         113.519 
        1.61376         97.8924         10.9316         113.068 
        1.61989         97.2756         10.8304          112.63 
        1.62604         96.9365         10.7302         111.889 
        1.63218         96.0206         10.6314         111.344 
        1.63831         95.7947          10.534          111.12 
        1.64444         95.0661         10.4378          110.64 
        1.65059         94.4502         10.3426         110.127 
        1.65673         94.0779         10.2487         109.583 
        1.66285         93.8982         10.1562         109.178 
        1.66898         93.1885         10.0648         108.891 
        1.67512         92.2378          9.9744         108.311 
        1.68127         92.1449         9.88499         107.878 
         1.6874         91.7239         9.79689         107.509 
        1.69353         90.9391         9.70991         106.911 
        1.69967         90.6358         9.62377         106.536 
        1.70581         89.9468         9.53872         106.114 
        1.71193         89.7067         9.45502         105.583 
        1.71806         88.8931         9.37215         105.188 
        1.72421         88.4431          9.2901         104.815 
        1.73035         88.1667         9.20913         104.395 
        1.73649         87.6865         9.12914         103.896 
        1.74262         86.9718         9.05016         103.322 
        1.74876         86.5461         8.97207         102.919 
        1.75489         86.3518         8.89505         102.596 
        1.76101         85.8901         8.81897         102.208 
        1.76715         85.3288         8.74367         101.795 
        1.77329         84.8666         8.66916         101.325 
        1.77943         84.2502         8.59548         100.893 
        1.78557         83.8152         8.52277         100.553 
        1.79171         83.3858         8.45089           100.1 
        1.79785         82.9071         8.37982         99.6339 
        1.80399         82.3688         8.30959         99.3111 
        1.81012         82.0542         8.24026         98.9027 
        1.81625         81.3673         8.17174         98.4559 
        1.82239         81.1815         8.10391         98.0628 
        1.82853         80.6618         8.03687         97.6629 
        1.83466         80.1887         7.97066         97.2334 
        1.84078         79.8834         7.90527         96.8513 
        1.84692         79.4111          7.8405         96.5879 
        1.85306         78.9419         7.77638         96.1412 
         1.8592         78.6005         7.71308         95.6421 
        1.86533         78.0745         7.65052         95.3593 
        1.87147         77.6588         7.58857         95.0228 
