# k  (h/Mpc)    Pcb(k)  (Mpc/h)^3    Pcb_linear(k) (Mpc/h)^3    Pcb_NL(k) (Mpc/h)^3   ShotnoiseSubtracted = false
     0.00783031         10506.8           10579         10480.9 
       0.013688         11537.2         11783.7         11701.7 
       0.019231         10763.7         10879.2         10809.8 
      0.0249154         9219.35         9159.13         9116.57 
      0.0312784          7182.6         7185.99          7174.5 
      0.0375637         5628.21         5657.72         5657.24 
      0.0433917         4730.75         4708.47         4707.08 
      0.0492413         4127.08         4127.58         4127.71 
      0.0555754         3784.84         3759.61         3757.31 
      0.0619321         3434.47         3493.83         3489.69 
       0.067871         3213.43         3226.58         3224.25 
      0.0738098         2905.14         2897.18         2885.26 
      0.0800417         2530.12         2503.51          2504.3 
      0.0862327         2142.91         2119.91          2142.8 
      0.0921407         1846.69          1811.2         1840.55 
      0.0982031         1636.09          1578.8         1623.53 
       0.104506         1456.48         1426.02         1478.79 
       0.110769         1373.47         1340.54         1377.87 
       0.116806         1333.21          1289.3         1318.22 
       0.122832         1265.63         1239.25         1266.06 
       0.129052         1194.06         1168.29         1191.74 
       0.135211         1120.03          1073.9          1101.4 
       0.141259         1005.17         967.047         1004.54 
       0.147318         898.067         861.462         913.063 
       0.153489         815.237         769.575         815.723 
       0.159709          761.13         700.519         752.411 
       0.165845          698.01         655.295         715.139 
       0.171974         684.808         626.904           679.1 
       0.178125         660.544         606.568         660.858 
       0.184229          621.96         586.138         634.925 
        0.19034         603.691          559.96         605.079 
       0.196428         575.175          526.87         568.798 
       0.202534         525.887         489.077         535.475 
       0.208729         505.459         450.501         497.621 
       0.214876         474.983         416.265          473.12 
       0.220989         439.731         388.728         448.205 
       0.227147         426.615         367.932         426.799 
        0.23329         409.564         352.718         413.023 
       0.239377          402.11         340.727         397.796 
       0.245482          382.27         329.317         380.623 
       0.251667         365.958         316.591         369.949 
       0.257832         358.917         302.075         353.118 
       0.263955         336.319         286.276         336.957 
       0.270079          320.13         270.232         322.245 
        0.27624          304.79         255.097         306.619 
       0.282372         294.812         241.915         295.352 
        0.28843          290.78         231.053         284.769 
       0.294538         275.599         222.006         275.475 
       0.300721         265.898         214.202         267.724 
        0.30691          260.95         206.976         260.652 
       0.313033         248.199         199.826         251.014 
       0.319153         243.356         192.347         242.907 
       0.325316         236.218         184.516         235.563 
        0.33145         228.528         176.647         225.863 
       0.337538         219.312         169.122         218.041 
       0.343633         211.856         162.142          213.16 
       0.349808           205.2         155.808           207.5 
       0.355968         200.402         150.203         202.425 
       0.362074         194.012         145.215         196.406 
       0.368217         190.794         140.569         189.759 
       0.374374         185.657         136.076         184.749 
       0.380519         177.799          131.64         179.362 
       0.386598         174.341         127.246         175.789 
       0.392688         168.641         122.877         170.324 
        0.39888         165.024         118.557         165.725 
       0.405048         160.592         114.456         162.242 
       0.411186         158.512         110.636         157.643 
       0.417313         154.632         107.107         153.199 
       0.423458         150.607         103.815         149.988 
       0.429607         146.238         100.722          146.73 
       0.435692         143.709          97.805         142.948 
       0.441815         140.124         94.9581         140.768 
       0.447964         135.528         92.1598         137.397 
       0.454126         133.159         89.4206         133.167 
       0.460267         131.524         86.7665         131.601 
       0.466387         127.863         84.2124         128.395 
        0.47254         126.275         81.7573         125.698 
       0.478662         122.094         79.4399         123.117 
       0.484765          120.04         77.2487         119.743 
       0.490885         117.645         75.1545         117.925 
       0.497035         116.075         73.1394         115.992 
       0.503198         114.117         71.1966         113.662 
       0.509342         111.094         69.3222         111.738 
       0.515458         109.029         67.5079         110.107 
       0.521598         106.202          65.738          107.22 
       0.527764         105.272         64.0183         105.225 
       0.533884         104.153         62.3734         103.584 
           0.54         101.323         60.7932         101.537 
       0.546137         98.8554         59.2681         100.159 
       0.552299         97.1622         57.7951         97.7852 
       0.558452         95.5053         56.3798         95.9709 
       0.564573         94.8512         55.0222         94.9057 
       0.570708         92.1498         53.7069         93.4372 
       0.576825         90.9462         52.4363         91.4608 
       0.582926         89.8929         51.2062         89.9992 
       0.589034         88.1401         50.0106         89.0387 
       0.595184         86.9031          48.844          87.161 
       0.601379          85.183         47.7072         86.1272 
       0.607522          83.153         46.6178         84.2923 
       0.613639         82.4745         45.5695          83.425 
       0.619772         81.0379         44.5526         82.1054 
       0.625918         80.3358         43.5657         80.8702 
       0.632068         78.3633         42.6083         79.5324 
       0.638161         77.4269         41.6875         78.6911 
         0.6443          76.808         40.7869          77.395 
       0.650464         74.9559         39.9092          75.747 
       0.656582         74.5326         39.0636         75.1308 
       0.662703         73.4712         38.2424         73.8482 
       0.668861         71.8765         37.4406         73.0107 
       0.675024         71.6813         36.6615         71.8544 
       0.681124         70.3917         35.9128         70.8435 
       0.687237         69.3126         35.1838         69.9059 
       0.693381         68.3055         34.4718         68.8174 
       0.699536          67.612         33.7783         68.1721 
       0.705665         66.6925          33.107         67.5369 
       0.711789         65.5835         32.4545         66.2791 
       0.717957         64.6943         31.8152         65.5312 
        0.72409         63.9425         31.1967         64.9738 
       0.730186         63.6043         30.5985         64.1962 
       0.736317         62.6429         30.0128           63.15 
       0.742472         61.4292         29.4405         62.4507 
       0.748622         60.4997         28.8837         61.6194 
        0.75476         60.4084         28.3427         60.8138 
       0.760888         59.7655         27.8165         59.9576 
       0.767043          58.512         27.3017         59.6056 
       0.773185         57.6218          26.801         59.0336 
       0.779291         57.0712         26.3159         58.2517 
       0.785407         56.4831         25.8421         57.4166 
       0.791564         56.0548         25.3771         56.8586 
       0.797719         55.0453         24.9238         56.4607 
       0.803834         54.7817         24.4845         55.5939 
       0.809972         54.2371         24.0542         54.9855 
       0.816124         53.3332         23.6334         54.5052 
       0.822261          52.648         23.2238          53.814 
       0.828378         52.4847         22.8252         53.0903 
       0.834502          51.825         22.4357         52.6451 
       0.840667         51.3112         22.0528         52.2961 
       0.846816         50.7226         21.6799          51.725 
       0.852925         50.0901         21.3181         51.1666 
       0.859047         49.7424         20.9637         50.5798 
       0.865192         49.0806         20.6163          50.119 
       0.871341         48.5857         20.2766         49.5645 
       0.877463         48.0612         19.9461         49.0913 
       0.883569         47.9483         19.6239         48.8152 
       0.889708         47.3603         19.3071          48.235 
       0.895864         46.9682         18.9966         47.8316 
       0.902008         46.3399         18.6935         47.2404 
       0.908149         45.7567         18.3973         46.8993 
       0.914301         45.4718         18.1071         46.5226 
       0.920448         45.3866         17.8234         46.0524 
       0.926574         44.3937         17.5468         45.5816 
       0.932687         44.1306         17.2767         45.2038 
       0.938823         43.7479         17.0113         44.6756 
       0.944975         43.1869         16.7509         44.3086 
       0.951105          42.813         16.4969         43.9738 
       0.957225         42.5784         16.2487         43.5653 
       0.963368         42.1463         16.0047         43.1319 
       0.969511         41.8032         15.7657          42.757 
       0.975621         41.2914          15.533           42.58 
       0.981748         40.9973         15.3044         42.2058 
       0.987916         40.5589         15.0789         41.8842 
        0.99406         40.4017         14.8588         41.4018 
        1.00019         39.8532         14.6436         40.9948 
        1.00632         39.5275         14.4329           40.67 
        1.01246         39.2541          14.226         40.3127 
        1.01859         38.9842         14.0235         40.1592 
        1.02471         38.6232         13.8253         39.8815 
        1.03085         38.2337         13.6302         39.4361 
        1.03698         37.9915         13.4393         39.1008 
        1.04314         37.6624         13.2512         38.7375 
        1.04929         37.2496         13.0672         38.5165 
        1.05541          37.063         12.8874         38.3489 
        1.06154         36.7096         12.7106         37.9837 
        1.06769         36.3962         12.5369         37.6732 
        1.07382         36.0095          12.367         37.4088 
        1.07993         35.8803         12.2006         37.1232 
        1.08607         35.5216         12.0366          36.873 
        1.09222         35.3415         11.8754         36.5544 
        1.09836         35.0483         11.7174         36.2642 
        1.10449         34.7881         11.5625         36.0256 
        1.11063         34.4651         11.4102         35.6591 
        1.11677         34.3623         11.2606         35.3868 
         1.1229         33.9534         11.1141          35.255 
        1.12903         33.7495           10.97         34.9877 
        1.13518         33.5384         10.8284         34.7044 
        1.14131           33.25         10.6893         34.4623 
        1.14745         33.0327         10.5528         34.2808 
        1.15359         32.6086         10.4186          33.974 
        1.15973         32.5843         10.2868          33.805 
        1.16584         32.2913         10.1578         33.4466 
        1.17197         31.9952         10.0308         33.3415 
        1.17811         31.7896         9.90562         33.0741 
        1.18424         31.3561         9.78295         32.8637 
        1.19038         31.2008         9.66201         32.6303 
        1.19652         31.0838         9.54316         32.3686 
        1.20267         30.7826         9.42631         32.2245 
        1.20881         30.5886         9.31146         32.0176 
        1.21495         30.4783          9.1987         31.7893 
        1.22108         30.3694         9.08783          31.603 
         1.2272         29.9767         8.97906          31.415 
        1.23334         29.8717         8.87182         31.2063 
        1.23949         29.6359         8.76608         30.9354 
        1.24562         29.4222         8.66237         30.7442 
        1.25174         29.2376         8.56049         30.6168 
        1.25789         29.0405         8.45994         30.3892 
        1.26402         28.8546          8.3612         30.1857 
        1.27014         28.7303         8.26427         30.0747 
        1.27628         28.4418         8.16859         29.8471 
        1.28244         28.4498         8.07424         29.6574 
        1.28858          28.094         7.98151         29.4676 
        1.29471         27.8368         7.89045         29.3485 
        1.30084          27.626         7.80089         29.1218 
        1.30697         27.6171         7.71258         28.9227 
        1.31312         27.4028         7.62552         28.7817 
        1.31925         27.1701         7.54007         28.5919 
        1.32537         26.9747         7.45601         28.4723 
        1.33151         26.7885         7.37294         28.2711 
        1.33765         26.7259         7.29118         28.0992 
        1.34378         26.5719         7.21083         27.9656 
        1.34992         26.3296         7.13163         27.7997 
        1.35606          26.071         7.05345         27.6473 
         1.3622         26.0138         6.97659         27.5001 
        1.36833         25.9393         6.90105         27.3913 
        1.37445         25.6551         6.82668         27.2107 
        1.38059         25.5035         6.75317          27.079 
        1.38675         25.3864         6.68058         26.9226 
        1.39288         25.2574         6.60933         26.7739 
        1.39901         25.0298         6.53917         26.6144 
        1.40515         24.9188         6.46986         26.4869 
         1.4113         24.8466         6.40159         26.3327 
        1.41742         24.6548         6.33456         26.1462 
        1.42355         24.4303         6.26837         26.0656 
         1.4297         24.4175         6.20293         25.8816 
        1.43585          24.236         6.13844         25.7712 
        1.44198         24.0384         6.07512         25.6394 
        1.44809          23.853         6.01282         25.4837 
        1.45423         23.7992         5.95115         25.3274 
        1.46036          23.709         5.89047         25.2066 
        1.46649         23.4783         5.83061         25.1081 
        1.47263         23.3568         5.77154         24.9977 
        1.47877         23.2361         5.71331         24.8505 
        1.48491         23.0696         5.65579         24.7192 
        1.49104         22.9544         5.59919         24.6093 
        1.49718         22.8739         5.54332         24.4914 
        1.50333         22.7762         5.48813         24.3473 
        1.50947          22.527          5.4338         24.2208 
         1.5156         22.5211         5.38029         24.1149 
        1.52172         22.3195          5.3275         24.0037 
        1.52787         22.3049         5.27531         23.8755 
          1.534         22.0575         5.22389         23.7477 
        1.54013         22.0922          5.1732         23.6171 
        1.54627         21.8672          5.1231         23.5006 
        1.55241         21.7824         5.07364         23.3968 
        1.55855         21.6311         5.02492         23.2857 
        1.56467         21.4611         4.97696         23.2032 
         1.5708         21.4525          4.9295         23.0871 
        1.57695         21.3301         4.88258         22.9622 
        1.58308         21.1572         4.83638         22.8613 
        1.58922         21.0446         4.79074         22.7402 
        1.59535         20.9838         4.74571         22.6368 
         1.6015         20.9202          4.7012         22.5187 
        1.60764         20.7168         4.65727         22.4037 
        1.61376         20.5984         4.61404         22.3233 
        1.61989         20.4942         4.57131         22.2324 
        1.62604         20.3704         4.52903         22.1272 
        1.63218         20.1939         4.48731         22.0325 
        1.63831         20.1782         4.44621         21.9496 
        1.64444         20.0887         4.40562         21.8418 
        1.65059         19.9476         4.36543         21.7232 
        1.65673         19.8792         4.32579         21.6356 
        1.66285         19.7849         4.28675         21.5648 
        1.66898         19.6858         4.24818         21.4686 
        1.67512         19.5653         4.21001          21.343 
        1.68127         19.4769         4.17228         21.2443 
         1.6874         19.4105         4.13509         21.1517 
        1.69353          19.257         4.09837         21.0276 
        1.69967         19.1861         4.06202         20.9519 
        1.70581         19.1002         4.02612         20.8895 
        1.71193         18.9958         3.99079         20.8046 
        1.71806         18.9228         3.95581         20.7005 
        1.72421         18.8015         3.92118         20.6102 
        1.73035         18.7306         3.88701         20.5428 
        1.73649         18.5976         3.85324          20.467 
        1.74262         18.4874         3.81991         20.3373 
        1.74876         18.5131         3.78695         20.2266 
        1.75489         18.3113         3.75444         20.1639 
        1.76101         18.2855         3.72233         20.1149 
        1.76715          18.113         3.69054         20.0185 
        1.77329         18.0334         3.65909         19.9168 
        1.77943         18.0148           3.628         19.8319 
        1.78557         17.9532         3.59731         19.7518 
        1.79171         17.8283         3.56697         19.6745 
        1.79785         17.7452         3.53697         19.6034 
        1.80399         17.6216         3.50733         19.5352 
        1.81012         17.5763         3.47806         19.4454 
        1.81625         17.4341         3.44915         19.3528 
        1.82239         17.3719         3.42051         19.2774 
        1.82853          17.309         3.39222         19.2103 
        1.83466         17.2019         3.36427         19.1337 
        1.84078         17.1308         3.33667         19.0447 
        1.84692         17.0279         3.30934         18.9582 
        1.85306         16.9574         3.28227         18.8987 
         1.8592         16.9192         3.25555         18.8385 
        1.86533         16.8267         3.22914         18.7473 
        1.87147         16.7335           3.203         18.6624 
