# k  (h/Mpc)    P(k)  (Mpc/h)^3    P_linear(k)  (Mpc/h)^3     P_NL(k)  ShotnoiseSubtracted = false
     0.00783031         24639.5         24799.2         24554.5 
       0.013688         26765.1         27612.4         27383.4 
       0.019231           25033         25488.5         25279.4 
      0.0249154         21610.8         21456.5         21297.1 
      0.0312784         16733.7         16833.1         16735.6 
      0.0375637         13096.7         13252.6         13210.2 
      0.0433917         11055.2         11028.8         10980.9 
      0.0492413         9639.79         9667.95         9630.25 
      0.0555754         8844.97         8805.94         8777.46 
      0.0619321         7954.17         8183.32         8155.17 
       0.067871          7461.7          7557.3         7545.12 
      0.0738098         6797.56         6785.74         6719.15 
      0.0800417         5936.56         5863.65         5859.58 
      0.0862327         5051.64         4965.16         5070.76 
      0.0921407         4410.21         4242.11         4378.84 
      0.0982031         3944.64         3697.77         3911.59 
       0.104506         3508.51         3339.94         3595.77 
       0.110769         3313.11         3139.72         3327.65 
       0.116806         3206.59         3019.72          3168.3 
       0.122832         3046.83         2902.47         3037.44 
       0.129052         2845.39         2736.28         2857.74 
       0.135211         2717.98         2515.19         2650.86 
       0.141259          2443.2         2264.94         2452.29 
       0.147318          2217.1         2017.64         2263.25 
       0.153489         2035.28         1802.43          2031.2 
       0.159709         1935.29         1640.69         1898.49 
       0.165845         1779.99         1534.77         1823.02 
       0.171974         1737.59         1468.28         1731.21 
       0.178125         1686.58         1420.65         1689.08 
       0.184229         1559.12          1372.8         1612.65 
        0.19034         1530.15         1311.49         1536.93 
       0.196428         1472.25         1233.99         1456.82 
       0.202534         1364.72         1145.47          1385.9 
       0.208729         1327.26         1055.12         1292.08 
       0.214876         1249.09         974.935          1246.9 
       0.220989         1181.81         910.441         1196.79 
       0.227147          1144.6         861.731         1153.23 
        0.23329         1098.13         826.097         1120.83 
       0.239377         1091.86         798.017         1077.95 
       0.245482         1036.99         771.292         1033.26 
       0.251667         999.145         741.486         1007.09 
       0.257832         976.735         707.492         965.068 
       0.263955         927.107         670.487         928.195 
       0.270079          895.27         632.908         894.584 
        0.27624         856.473          597.46         859.276 
       0.282372         842.238         566.583         837.537 
        0.28843         823.771         541.148         816.846 
       0.294538         784.795          519.96         790.827 
       0.300721          768.39          501.68         768.243 
        0.30691          746.96         484.755         756.879 
       0.313033         715.622         468.015         730.252 
       0.319153         707.191         450.495         708.752 
       0.325316         694.562         432.153         691.661 
        0.33145             676         413.724         664.858 
       0.337538           651.6         396.099         648.973 
       0.343633          635.93         379.751         639.219 
       0.349808         621.186         364.916         626.658 
       0.355968         608.515         351.788          612.38 
       0.362074         585.921         340.108         600.134 
       0.368217         582.221         329.227         584.165 
       0.374374         573.297         318.702         570.853 
       0.380519         550.936         308.312         557.319 
       0.386598         545.581         298.022          550.97 
       0.392688         530.377         287.789         535.908 
        0.39888         519.693         277.672         524.215 
       0.405048         506.008         268.066         513.435 
       0.411186         505.976         259.117         502.472 
       0.417313         497.391         250.853          493.47 
       0.423458         485.677         243.144         484.746 
       0.429607         470.576           235.9         476.712 
       0.435692          463.83         229.067         463.755 
       0.441815          455.56         222.401         460.037 
       0.447964         447.201         215.846          453.57 
       0.454126         441.526         209.431         440.368 
       0.460267         434.885         203.214         437.441 
       0.466387         424.109         197.233         430.081 
        0.47254         420.825         191.482         422.281 
       0.478662         411.291         186.056         413.925 
       0.484765         404.979         180.923         407.823 
       0.490885         402.607         176.018         400.289 
       0.497035         391.837         171.299         395.557 
       0.503198         390.766         166.749         390.364 
       0.509342         383.191         162.359         383.779 
       0.515458          375.55         158.109         379.292 
       0.521598         372.806         153.964         373.871 
       0.527764         365.138         149.936         370.375 
       0.533884          360.29         146.084         365.231 
           0.54         357.063         142.383         359.035 
       0.546137         350.362         138.811         354.801 
       0.552299         348.048         135.361          349.64 
       0.558452         342.104         132.046         345.676 
       0.564573          340.95         128.867         342.666 
       0.570708         334.327         125.786         338.245 
       0.576825         328.963         122.811          332.21 
       0.582926         327.755         119.929         329.536 
       0.589034         321.022         117.129         325.147 
       0.595184         318.769         114.397         320.001 
       0.601379         313.171         111.734         316.449 
       0.607522         307.383         109.183          311.52 
       0.613639         306.255         106.728         310.806 
       0.619772         304.415         104.346         308.721 
       0.625918         298.351         102.035         303.264 
       0.632068         297.088         99.7923         300.632 
       0.638161         293.278         97.6358         298.317 
         0.6443         289.055         95.5264         294.276 
       0.650464         286.663         93.4708         289.156 
       0.656582          282.96         91.4903         287.316 
       0.662703         282.126          89.567          284.83 
       0.668861          276.51          87.689         283.155 
       0.675024         275.534         85.8644         280.254 
       0.681124         269.926         84.1109         276.083 
       0.687237         269.224         82.4034         273.209 
       0.693381         265.024         80.7359         270.488 
       0.699536         264.533         79.1118         268.669 
       0.705665         260.671         77.5394         264.705 
       0.711789         257.952         76.0112         263.431 
       0.717957         256.315         74.5139         262.082 
        0.72409         252.881         73.0653         258.576 
       0.730186         253.176         71.6643         255.734 
       0.736317         248.729         70.2926         254.117 
       0.742472          247.01         68.9521         251.912 
       0.748622         245.459         67.6481         249.027 
        0.75476         242.802          66.381         249.004 
       0.760888         241.049         65.1486         245.506 
       0.767043         237.854         63.9428         243.239 
       0.773185         235.264         62.7703         241.571 
       0.779291         233.906         61.6341         238.981 
       0.785407         232.214         60.5245          237.13 
       0.791564          230.71         59.4354         235.149 
       0.797719         227.195         58.3737          233.34 
       0.803834         226.538         57.3447         232.045 
       0.809972          223.36          56.337         229.915 
       0.816124         221.635         55.3514         227.758 
       0.822261          219.63         54.3922         226.825 
       0.828378         218.568         53.4586         224.548 
       0.834502         215.535         52.5463         222.844 
       0.840667         215.006         51.6495         220.805 
       0.846816         212.326         50.7762         219.486 
       0.852925         212.158         49.9287         217.959 
       0.859047         208.877         49.0988         216.198 
       0.865192         208.153         48.2852         214.197 
       0.871341         206.312         47.4895         212.691 
       0.877463         204.846         46.7155         211.572 
       0.883569         203.864         45.9607         211.262 
       0.889708         202.061         45.2189         208.577 
       0.895864         199.261         44.4916         207.559 
       0.902008         198.117         43.7818         205.423 
       0.908149         195.899         43.0881         203.962 
       0.914301         195.284         42.4083         202.326 
       0.920448         193.258         41.7439         201.319 
       0.926574          191.81          41.096         199.902 
       0.932687         191.436         40.4634         198.245 
       0.938823         189.559         39.8419          197.74 
       0.944975         189.193          39.232         195.983 
       0.951105         187.032         38.6372         194.897 
       0.957225         185.451         38.0557         193.257 
       0.963368         185.236         37.4843         192.045 
       0.969511         182.802         36.9247         190.841 
       0.975621         180.584         36.3796         189.817 
       0.981748         180.269         35.8441         188.974 
       0.987916         179.124          35.316         187.333 
        0.99406         177.486         34.8007         186.174 
        1.00019         176.354         34.2966         184.967 
        1.00632         175.398         33.8031         183.601 
        1.01246         174.089         33.3186         182.066 
        1.01859         172.404         32.8443         181.376 
        1.02471         171.075           32.38         180.299 
        1.03085         170.442          31.923         179.276 
        1.03698         169.347         31.4759         178.693 
        1.04314         168.402         31.0354         177.152 
        1.04929         167.027         30.6045         175.879 
        1.05541         166.896         30.1835          175.12 
        1.06154          165.16         29.7694         174.389 
        1.06769         164.071         29.3625         173.313 
        1.07382         162.067         28.9645         172.287 
        1.07993         161.837         28.5748         171.343 
        1.08607         161.026         28.1907         170.011 
        1.09222         159.456         27.8132         169.251 
        1.09836         158.396         27.4432         168.255 
        1.10449         157.772         27.0803         167.723 
        1.11063         156.522         26.7235         166.498 
        1.11677         155.205         26.3734         165.324 
         1.1229         154.946         26.0301         164.389 
        1.12903         153.032         25.6927         163.497 
        1.13518         152.272         25.3609         162.638 
        1.14131         151.563         25.0353         161.703 
        1.14745         150.436         24.7155         160.551 
        1.15359         149.469         24.4013         160.008 
        1.15973         148.791         24.0924         159.104 
        1.16584         147.898         23.7903         158.407 
        1.17197         147.155          23.493         157.688 
        1.17811         145.485         23.1998         156.584 
        1.18424         144.971         22.9125         155.568 
        1.19038         144.097         22.6292         155.314 
        1.19652         142.669         22.3509         153.959 
        1.20267         141.996         22.0772         153.587 
        1.20881         141.221         21.8082         152.614 
        1.21495         140.581         21.5441         151.801 
        1.22108         139.398         21.2845         150.965 
         1.2272         138.973         21.0297         150.268 
        1.23334         137.674         20.7785         149.652 
        1.23949         137.287         20.5309         148.737 
        1.24562         136.199          20.288         147.608 
        1.25174         135.712         20.0494         146.945 
        1.25789         134.596         19.8139         146.056 
        1.26402         133.836         19.5826         145.699 
        1.27014         133.171         19.3556         145.028 
        1.27628         132.662         19.1315         144.654 
        1.28244         131.443         18.9105         143.608 
        1.28858         130.638         18.6934         142.935 
        1.29471         129.677         18.4801         142.151 
        1.30084         129.199         18.2703          141.22 
        1.30697         128.441         18.0635         140.538 
        1.31312         127.898         17.8596         139.706 
        1.31925         126.819         17.6595         139.299 
        1.32537         126.387         17.4626         138.708 
        1.33151         125.153          17.268         137.924 
        1.33765         124.961         17.0766         137.292 
        1.34378         124.159         16.8884          136.71 
        1.34992         123.244         16.7029         135.962 
        1.35606         122.657         16.5198         135.144 
         1.3622         121.931         16.3397         134.764 
        1.36833         121.364         16.1628         133.981 
        1.37445          120.44         15.9886         133.247 
        1.38059          119.71         15.8165          132.59 
        1.38675         118.941         15.6465         131.856 
        1.39288         118.257         15.4796         131.329 
        1.39901         117.603         15.3153         130.836 
        1.40515         116.882          15.153         130.227 
         1.4113         116.481         14.9931         129.579 
        1.41742         115.807         14.8361         128.969 
        1.42355         114.779          14.681         128.292 
         1.4297          114.19         14.5278         127.773 
        1.43585         113.967         14.3767          127.19 
        1.44198         113.065         14.2284         126.832 
        1.44809         112.499         14.0825         126.012 
        1.45423         111.909         13.9381         125.318 
        1.46036         111.287          13.796         124.793 
        1.46649         110.332         13.6558         124.375 
        1.47263         110.189         13.5174         123.861 
        1.47877         109.279          13.381         122.995 
        1.48491         108.486         13.2463         122.441 
        1.49104         107.992         13.1138         122.199 
        1.49718         107.261         12.9829         121.449 
        1.50333         106.584         12.8537         120.713 
        1.50947         106.199         12.7264         120.273 
         1.5156         105.516         12.6011          119.87 
        1.52172         104.926         12.4774         119.337 
        1.52787         104.386         12.3552         118.768 
          1.534         103.868         12.2348         118.237 
        1.54013         103.559         12.1161         117.791 
        1.54627         102.676         11.9987         117.333 
        1.55241         102.137         11.8829          116.74 
        1.55855         101.375         11.7688         116.064 
        1.56467         100.945         11.6565         115.676 
         1.5708         100.596         11.5453         115.166 
        1.57695         99.9771         11.4354         114.619 
        1.58308          99.077         11.3272         114.249 
        1.58922         98.6944         11.2203         113.716 
        1.59535          98.157         11.1148         113.179 
         1.6015         97.5097         11.0106         112.697 
        1.60764         97.1122         10.9077         112.219 
        1.61376         96.6955         10.8064         111.773 
        1.61989         96.0863         10.7064         111.341 
        1.62604         95.7513         10.6074         110.608 
        1.63218         94.8466         10.5097         110.069 
        1.63831         94.6235         10.4134         109.848 
        1.64444         93.9038         10.3183         109.374 
        1.65059         93.2954         10.2242         108.866 
        1.65673         92.9277         10.1314         108.328 
        1.66285         92.7501         10.0399         107.928 
        1.66898         92.0492         9.94959         107.644 
        1.67512         91.1101         9.86019         107.071 
        1.68127         91.0183         9.77181         106.643 
         1.6874         90.6025         9.68471         106.278 
        1.69353         89.8272         9.59873         105.687 
        1.69967         89.5277         9.51358         105.316 
        1.70581         88.8471         9.42951         104.899 
        1.71193         88.6099         9.34676         104.374 
        1.71806         87.8062         9.26484         103.984 
        1.72421         87.3618         9.18373         103.615 
        1.73035         87.0887         9.10368           103.2 
        1.73649         86.6144         9.02461         102.706 
        1.74262         85.9085         8.94654         102.139 
        1.74876         85.4879         8.86934         101.741 
        1.75489          85.296         8.79321         101.421 
        1.76101           84.84         8.71799         101.038 
        1.76715         84.2855         8.64356          100.63 
        1.77329          83.829          8.5699         100.164 
        1.77943         83.2202         8.49706         99.7374 
        1.78557         82.7905         8.42519          99.402 
        1.79171         82.3663         8.35413         98.9534 
        1.79785         81.8935         8.28388         98.4931 
        1.80399         81.3617         8.21445          98.174 
        1.81012          81.051         8.14591         97.7703 
        1.81625         80.3725         8.07818         97.3286 
        1.82239          80.189         8.01112           96.94 
        1.82853         79.6756         7.94485         96.5447 
        1.83466         79.2083          7.8794         96.1201 
        1.84078         78.9068         7.81476         95.7424 
        1.84692         78.4402         7.75073         95.4819 
        1.85306         77.9767         7.68734         95.0404 
         1.8592         77.6395         7.62477         94.5471 
        1.86533           77.12         7.56292         94.2674 
        1.87147         76.7093         7.50168         93.9348 
        1.87761         76.3623          7.4411         93.5153 
