# k  (h/Mpc)    P(k)  (Mpc/h)^3    P_linear(k)  (Mpc/h)^3     P_NL(k)  ShotnoiseSubtracted = false
     0.00783031         602.294         607.733         602.079 
       0.013688         671.264         677.595         673.402 
       0.019231         623.719         625.815         622.554 
      0.0249154         527.923          526.97         525.438 
      0.0312784         414.484         413.496         413.918 
      0.0375637         325.977          325.58          326.21 
      0.0433917         272.016         270.967         271.584 
      0.0492413         237.906         237.545         238.081 
      0.0555754         217.047         216.373         216.498 
      0.0619321         200.208         201.081         200.985 
       0.067871          185.55         185.702         185.476 
      0.0738098         166.745         166.746         166.514 
      0.0800417         144.434          144.09          144.04 
      0.0862327         122.263         122.012         122.172 
      0.0921407         104.451         104.245           104.5 
      0.0982031         91.4004         90.8692          91.202 
       0.104506         82.1114         82.0763         82.3975 
       0.110769         77.2019         77.1566         77.3607 
       0.116806         74.4306         74.2079         74.2938 
       0.122832         71.2498         71.3268         71.3625 
       0.129052         67.3106         67.2432         67.2467 
       0.135211         62.0206         61.8101         61.8472 
       0.141259         55.7527         55.6604         55.7684 
       0.147318         49.5965         49.5833         49.7863 
       0.153489         44.4364         44.2947          44.493 
       0.159709         40.5433         40.3201          40.544 
       0.165845         37.6977          37.717         37.9633 
       0.171974          36.325          36.083         36.2758 
       0.178125         35.0603         34.9126         35.0986 
       0.184229         33.7585         33.7367         33.8916 
        0.19034         32.3956         32.2299         32.3645 
       0.196428         30.4564         30.3255         30.4421 
       0.202534         28.1026         28.1501         28.2931 
       0.208729          26.078         25.9298         26.0965 
       0.214876         24.2075         23.9593         24.1731 
       0.220989         22.4618         22.3744         22.5994 
       0.227147         21.4077         21.1773         21.3895 
        0.23329         20.5232         20.3016         20.5173 
       0.239377         19.8389         19.6115         19.8137 
       0.245482         19.1451         18.9548         19.1217 
       0.251667         18.3289         18.2223         18.3997 
       0.257832         17.5989         17.3869         17.5556 
       0.263955         16.6143         16.4775         16.6432 
       0.270079         15.6861          15.554         15.7253 
        0.27624         14.7819         14.6828         14.8528 
       0.282372         14.0376          13.924          14.112 
        0.28843         13.4989         13.2989         13.4886 
       0.294538         12.9551         12.7783         12.9608 
       0.300721         12.4386          12.329         12.5122 
        0.30691         12.0813         11.9131         12.0939 
       0.313033          11.646         11.5017         11.6699 
       0.319153         11.2935         11.0711         11.2394 
       0.325316         10.7335         10.6204         10.7935 
        0.33145          10.278         10.1675         10.3342 
       0.337538         9.86342         9.73432         9.89811 
       0.343633          9.4943         9.33257         9.49498 
       0.349808         9.10487         8.96798         9.13895 
       0.355968         8.76608         8.64537         8.83094 
       0.362074         8.52095         8.35832            8.53 
       0.368217         8.23805         8.09091          8.2463 
       0.374374         8.01164         7.83226         7.99369 
       0.380519         7.71046         7.57693          7.7294 
       0.386598         7.43753         7.32405         7.47898 
       0.392688          7.1689         7.07256         7.22697 
        0.39888         6.95185         6.82393         6.98039 
       0.405048         6.72414         6.58786         6.73252 
       0.411186         6.49301         6.36794         6.52484 
       0.417313         6.28871         6.16486         6.31762 
       0.423458         6.07363         5.97541         6.12832 
       0.429607         5.93086         5.79736         5.94324 
       0.435692         5.77079         5.62946         5.77733 
       0.441815         5.58325         5.46563         5.61821 
       0.447964         5.39096         5.30454         5.44885 
       0.454126         5.26402         5.14688         5.28938 
       0.460267         5.13044         4.99411          5.1418 
       0.466387         4.97263         4.84711         4.98587 
        0.47254         4.84404         4.70577         4.84566 
       0.478662         4.69594         4.57242          4.7083 
       0.484765         4.57169         4.44629         4.58016 
       0.490885          4.4329         4.32575         4.46935 
       0.497035         4.30488         4.20977         4.35534 
       0.503198         4.21401         4.09794         4.23057 
       0.509342         4.08161         3.99006         4.12404 
       0.515458         3.99312         3.88563         4.02479 
       0.521598          3.8947         3.78376          3.9112 
       0.527764         3.80944         3.68477         3.81103 
       0.533884         3.68359          3.5901         3.71434 
           0.54         3.60371         3.49915         3.62146 
       0.546137         3.50074         3.41136         3.53765 
       0.552299         3.42267         3.32657         3.44163 
       0.558452         3.33711         3.24512         3.36256 
       0.564573         3.26185         3.16697          3.2926 
       0.570708         3.18719         3.09127         3.21273 
       0.576825           3.115         3.01814         3.13579 
       0.582926         3.03465         2.94733         3.06647 
       0.589034         2.97484         2.87852          3.0023 
       0.595184         2.91618         2.81137         2.92004 
       0.601379         2.83648         2.74594         2.86626 
       0.607522         2.77012         2.68324         2.79923 
       0.613639         2.70327          2.6229          2.7359 
       0.619772          2.6534         2.56437         2.68138 
       0.625918         2.59455         2.50756         2.61857 
       0.632068         2.54218         2.45246         2.56015 
       0.638161         2.48351         2.39946         2.50794 
         0.6443         2.42928         2.34762         2.45239 
       0.650464         2.37907          2.2971         2.40734 
       0.656582          2.3376         2.24843         2.35573 
       0.662703         2.28765         2.20116         2.30531 
       0.668861         2.22825         2.15501         2.26236 
       0.675024         2.18563         2.11017         2.21472 
       0.681124         2.16324         2.06708         2.16853 
       0.687237         2.10899         2.02512         2.12181 
       0.693381         2.05543         1.98413         2.07836 
       0.699536         2.02689         1.94422         2.03966 
       0.705665         1.98678         1.90558         2.00773 
       0.711789         1.93844         1.86802         1.96632 
       0.717957         1.90208         1.83122         1.92547 
        0.72409         1.86861         1.79563          1.8914 
       0.730186         1.84421         1.76119         1.85366 
       0.736317         1.79762         1.72748         1.81725 
       0.742472         1.77227         1.69454         1.78865 
       0.748622          1.7402         1.66249         1.75748 
        0.75476         1.69878         1.63136         1.72156 
       0.760888         1.67537         1.60107         1.69099 
       0.767043         1.62935         1.57143         1.66222 
       0.773185          1.6072         1.54262         1.63406 
       0.779291          1.5903          1.5147         1.60498 
       0.785407           1.556         1.48743         1.57517 
       0.791564         1.52614         1.46066         1.54817 
       0.797719         1.49974         1.43457         1.51865 
       0.803834         1.47473         1.40928         1.49387 
       0.809972         1.44811         1.38452         1.47212 
       0.816124          1.4232          1.3603         1.44366 
       0.822261         1.40109         1.33672         1.41826 
       0.828378         1.37646         1.31378         1.39587 
       0.834502         1.35185         1.29136         1.37112 
       0.840667          1.3337         1.26932         1.34984 
       0.846816         1.30796         1.24786         1.33116 
       0.852925          1.2853         1.22703         1.30718 
       0.859047         1.26437         1.20664         1.28944 
       0.865192           1.244         1.18664         1.26654 
       0.871341         1.22659         1.16709         1.24611 
       0.877463         1.20222         1.14806         1.22488 
       0.883569          1.1852         1.12951         1.20792 
       0.889708         1.16857         1.11128         1.18912 
       0.895864         1.14997         1.09341         1.16931 
       0.902008         1.12775         1.07597         1.15188 
       0.908149         1.11305         1.05892         1.13373 
       0.914301         1.09747         1.04221         1.11645 
       0.920448         1.08254         1.02588         1.09884 
       0.926574          1.0682         1.00996         1.08417 
       0.932687         1.05073        0.994414         1.06438 
       0.938823         1.02935        0.979139         1.05276 
       0.944975         1.01843        0.964152         1.03412 
       0.951105        0.996802        0.949533         1.01929 
       0.957225         0.98599        0.935244         1.00579 
       0.963368        0.973202        0.921202        0.990108 
       0.969511         0.96004        0.907449        0.976581 
       0.975621        0.942022        0.894052          0.9601 
       0.981748        0.924903        0.880892        0.946251 
       0.987916        0.914188        0.867915        0.935962 
        0.99406        0.903796        0.855249        0.923682 
        1.00019        0.890336        0.842863        0.910466 
        1.00632        0.880525        0.830733        0.895975 
        1.01246         0.86696        0.818825        0.883597 
        1.01859         0.85509        0.807171        0.872598 
        1.02471        0.839896        0.795759        0.859918 
        1.03085        0.827907        0.784529        0.846735 
        1.03698        0.818801         0.77354        0.835322 
        1.04314        0.806629        0.762716        0.824305 
        1.04929        0.798578        0.752126         0.81372 
        1.05541         0.78377        0.741779        0.803935 
        1.06154        0.775663        0.731602        0.793187 
        1.06769        0.766346        0.721602        0.783126 
        1.07382        0.754501        0.711821        0.772114 
        1.07993         0.74439        0.702245        0.761726 
        1.08607        0.736109        0.692805        0.753378 
        1.09222        0.724712        0.683529        0.741901 
        1.09836        0.717766        0.674434        0.732945 
        1.10449        0.704822        0.665516        0.724265 
        1.11063        0.696011        0.656749        0.713413 
        1.11677        0.688739        0.648143        0.705717 
         1.1229        0.677544        0.639707        0.697002 
        1.12903        0.671229        0.631414         0.68799 
        1.13518        0.661564        0.623262        0.679203 
        1.14131        0.653881        0.615259         0.67085 
        1.14745        0.647363          0.6074        0.661222 
        1.15359        0.637509        0.599678        0.655004 
        1.15973        0.630261        0.592088        0.647027 
        1.16584        0.622162        0.584663        0.637995 
        1.17197        0.613114        0.577355        0.631406 
        1.17811        0.605524         0.57015          0.6241 
        1.18424        0.598602         0.56309        0.615469 
        1.19038        0.590491        0.556129        0.608229 
        1.19652        0.585124        0.549288        0.601995 
        1.20267        0.579286        0.542563        0.593359 
        1.20881        0.569275        0.535952         0.58691 
        1.21495        0.563774        0.529461        0.581853 
        1.22108        0.557592         0.52308        0.573614 
         1.2272        0.549212        0.516819        0.566422 
        1.23334        0.543734        0.510647         0.56066 
        1.23949        0.537876        0.504561         0.55486 
        1.24562        0.531432        0.498591        0.548368 
        1.25174        0.526212        0.492727        0.541473 
        1.25789        0.517885         0.48694        0.535471 
        1.26402        0.512981        0.481256        0.529448 
        1.27014        0.505282        0.475677         0.52337 
        1.27628        0.501417         0.47017        0.517079 
        1.28244        0.495154         0.46474        0.511485 
        1.28858        0.488841        0.459403        0.505462 
        1.29471        0.483479        0.454161        0.500125 
        1.30084        0.478511        0.449006        0.495976 
        1.30697        0.474723        0.443923        0.490083 
        1.31312        0.468516        0.438912        0.484396 
        1.31925        0.463248        0.433994        0.479993 
        1.32537        0.458334        0.429156        0.474746 
        1.33151        0.452864        0.424374        0.469605 
        1.33765        0.447947        0.419668        0.464649 
        1.34378        0.442793        0.415043        0.459676 
        1.34992        0.439253        0.410485        0.454806 
        1.35606        0.433361        0.405985        0.449291 
         1.3622         0.42931        0.401561         0.44488 
        1.36833        0.424965        0.397213        0.441007 
        1.37445        0.420124        0.392932        0.436431 
        1.38059        0.415961        0.388701        0.431713 
        1.38675        0.411117        0.384523        0.426606 
        1.39288        0.406618        0.380422        0.422531 
        1.39901        0.402482        0.376384        0.418335 
        1.40515        0.398169        0.372394        0.413736 
         1.4113        0.395471        0.368465        0.410129 
        1.41742        0.390461        0.364607        0.406869 
        1.42355        0.385121        0.360797        0.400842 
         1.4297        0.382437         0.35703        0.398688 
        1.43585        0.377865        0.353319        0.393994 
        1.44198        0.374714        0.349674        0.389002 
        1.44809        0.370458        0.346088        0.386625 
        1.45423        0.366577        0.342539        0.381556 
        1.46036        0.363091        0.339046         0.37821 
        1.46649        0.359357          0.3356        0.375307 
        1.47263         0.35508          0.3322          0.3713 
        1.47877         0.35382        0.328849        0.367606 
        1.48491        0.347737        0.325538        0.364653 
        1.49104        0.346279         0.32228        0.360034 
        1.49718        0.341401        0.319065        0.357769 
        1.50333        0.338794        0.315888        0.353453 
        1.50947        0.335614        0.312761        0.349763 
         1.5156        0.332239        0.309681        0.347191 
        1.52172        0.329091        0.306642        0.343621 
        1.52787        0.325191        0.303638        0.340162 
          1.534        0.323001        0.300678        0.337498 
        1.54013        0.319599        0.297761        0.334283 
        1.54627        0.316626        0.294877         0.33084 
        1.55241        0.313559        0.292031        0.327796 
        1.55855         0.31043        0.289226        0.324762 
        1.56467        0.307657        0.286466         0.32201 
         1.5708        0.304648        0.283734        0.318696 
        1.57695        0.301489        0.281033        0.315615 
        1.58308        0.298193        0.278374        0.313261 
        1.58922        0.296213        0.275747        0.310492 
        1.59535         0.29298        0.273155        0.307522 
         1.6015        0.290355        0.270593        0.304464 
        1.60764        0.287491        0.268065         0.30201 
        1.61376        0.284914        0.265576        0.299947 
        1.61989        0.282323        0.263117        0.297138 
        1.62604        0.279346        0.260684        0.294363 
        1.63218        0.277394        0.258282        0.291902 
        1.63831        0.274525        0.255917        0.289321 
        1.64444        0.272571         0.25358         0.28639 
        1.65059        0.269561        0.251267        0.283951 
        1.65673        0.266987        0.248985        0.281696 
        1.66285        0.264885        0.246738        0.279235 
        1.66898        0.262686        0.244518        0.276574 
        1.67512        0.259533        0.242321        0.274249 
        1.68127        0.257292         0.24015        0.272034 
         1.6874        0.255736        0.238009         0.26992 
        1.69353         0.25281        0.235896        0.267818 
        1.69967        0.250939        0.233803        0.265091 
        1.70581        0.249076        0.231737        0.262805 
        1.71193        0.246928        0.229704        0.260893 
        1.71806         0.24466         0.22769         0.25837 
        1.72421        0.242168        0.225697        0.256415 
        1.73035        0.239745         0.22373        0.254294 
        1.73649        0.238487        0.221787        0.251732 
        1.74262        0.235743        0.219868        0.249798 
        1.74876        0.234213        0.217971        0.248198 
        1.75489        0.232332          0.2161        0.246227 
        1.76101        0.229976        0.214251        0.243897 
        1.76715        0.228072        0.212422        0.242104 
        1.77329        0.226118        0.210612        0.240296 
        1.77943        0.224169        0.208822        0.238158 
        1.78557        0.222871        0.207055        0.235923 
        1.79171        0.220772        0.205309        0.233847 
        1.79785        0.218728        0.203583        0.232097 
        1.80399        0.216235        0.201876        0.230493 
        1.81012        0.215107        0.200192        0.228246 
        1.81625        0.213651        0.198527        0.226324 
        1.82239        0.211985        0.196879        0.225105 
        1.82853        0.209683        0.195251        0.223599 
        1.83466        0.207997        0.193642        0.221621 
        1.84078        0.206153        0.192054        0.219598 
        1.84692        0.204684         0.19048        0.218042 
        1.85306        0.203165        0.188922        0.216119 
         1.8592         0.20144        0.187384        0.214159 
        1.86533        0.200032        0.185865         0.21281 
        1.87147        0.197753         0.18436        0.211184 
        1.87761        0.196281        0.182871        0.209636 
