# k  (h/Mpc)    Pcb(k)  (Mpc/h)^3    Pcb_linear(k) (Mpc/h)^3    Pcb_NL(k) (Mpc/h)^3   ShotnoiseSubtracted = false
     0.00783031         15481.5           15580         15433.3 
       0.013688         16927.8         17351.4           17223 
       0.019231         15809.2         16018.4         15906.3 
      0.0249154         13583.8         13485.2         13409.7 
      0.0312784         10557.9         10579.8         10547.5 
      0.0375637         8267.94         8329.61         8319.91 
      0.0433917         6961.91         6932.01         6920.15 
      0.0492413         6071.55         6076.74         6068.69 
      0.0555754         5570.98         5534.98         5526.67 
      0.0619321         5035.73         5143.67         5133.62 
       0.067871         4718.59          4750.2         4745.64 
      0.0738098         4277.25         4265.25         4239.54 
      0.0800417         3729.83         3685.67         3685.74 
      0.0862327          3163.6         3120.93         3166.53 
      0.0921407         2738.96         2666.45            2725 
      0.0982031         2435.71          2324.3         2414.99 
       0.104506         2166.44         2099.38          2207.3 
       0.110769         2044.16         1973.53         2050.75 
       0.116806         1983.62          1898.1         1958.43 
       0.122832          1882.2         1824.41         1880.06 
       0.129052         1769.98         1719.95         1769.11 
       0.135211         1672.03         1580.98         1637.55 
       0.141259          1501.1         1423.68          1501.3 
       0.147318         1347.83         1268.23         1373.27 
       0.153489            1229         1132.96         1228.19 
       0.159709         1156.25         1031.29         1138.66 
       0.165845         1060.04         964.717         1087.24 
       0.171974         1039.76          922.92         1031.56 
       0.178125         1004.97          892.98         1005.38 
       0.184229          938.75         862.903          963.43 
        0.19034         914.794         824.365         917.903 
       0.196428         875.613          775.65         864.794 
       0.202534         803.007         720.011         817.791 
       0.208729         777.461          663.22          760.89 
       0.214876         731.089         612.818          728.79 
       0.220989         681.568          572.28         694.021 
       0.227147         661.529         541.663         663.605 
        0.23329         634.876         519.265         643.649 
       0.239377         627.023         501.612         619.118 
       0.245482         594.814         484.815         592.331 
       0.251667          571.02          466.08         576.811 
       0.257832         559.876          444.71          551.07 
       0.263955         526.864         421.451         527.428 
       0.270079         503.947          397.83         506.245 
        0.27624         480.838          375.55         483.516 
       0.282372         468.288         356.143         467.617 
        0.28843         461.655         340.152         452.685 
       0.294538          437.22         326.834         438.449 
       0.300721         424.629         315.344         426.137 
        0.30691         415.773         304.706         416.733 
       0.313033         395.454         294.181         401.549 
       0.319153         388.645          283.17         389.085 
       0.325316         380.151         271.641         378.079 
        0.33145          369.15         260.057         362.718 
       0.337538         354.381         248.978         351.757 
       0.343633          343.52         238.703         345.654 
       0.349808         333.851         229.377         337.269 
       0.355968         326.971         221.126         329.535 
       0.362074         314.458         213.783         320.836 
       0.368217         311.478         206.943         310.495 
       0.374374         304.715         200.329         302.768 
       0.380519          291.82         193.798         294.486 
       0.386598         287.543          187.33         290.316 
       0.392688         278.957         180.897          280.82 
        0.39888         272.232         174.538         274.432 
       0.405048         265.154           168.5         269.195 
       0.411186         263.871         162.876         261.432 
       0.417313          258.63          157.68         255.222 
       0.423458         251.914         152.835         250.493 
       0.429607         243.781         148.281         245.514 
       0.435692         239.752         143.987         238.968 
       0.441815         235.063         139.795         236.111 
       0.447964         228.472         135.676         231.419 
       0.454126         225.435         131.643         224.377 
       0.460267         221.781         127.736         222.371 
       0.466387         216.013         123.976         217.721 
        0.47254         213.454         120.362         213.347 
       0.478662         207.804          116.95         208.964 
       0.484765         204.304         113.724         204.174 
       0.490885          201.57         110.641         200.953 
       0.497035         197.523         107.674         197.921 
       0.503198         195.996         104.814         194.657 
       0.509342         191.242         102.055         191.566 
       0.515458         187.634         99.3839         188.943 
       0.521598         183.562         96.7782         184.931 
       0.527764         181.703         94.2466         182.557 
       0.533884         179.744          91.825          179.75 
           0.54         176.268         89.4987         176.174 
       0.546137         172.004         87.2534         174.025 
       0.552299          170.23         85.0848         170.563 
       0.558452         167.269         83.0012         167.923 
       0.564573         166.368         81.0026         166.323 
       0.570708         162.116         79.0663         164.131 
       0.576825         159.616         77.1958         160.597 
       0.582926         158.252         75.3848         158.674 
       0.589034         155.173         73.6246         156.933 
       0.595184         153.671         71.9071         153.629 
       0.601379         151.138         70.2336         152.043 
       0.607522         147.316         68.6298         149.421 
       0.613639         146.522         67.0866         148.469 
       0.619772         145.176         65.5896          146.63 
       0.625918         143.026         64.1367         144.003 
       0.632068         140.223         62.7271         141.896 
       0.638161         139.386         61.3716         141.034 
         0.6443         137.432         60.0457         139.034 
       0.650464         135.003         58.7536         136.076 
       0.656582         133.633         57.5087         135.057 
       0.662703         132.702         56.2998         133.295 
       0.668861         129.679         55.1193         132.004 
       0.675024         129.313         53.9724          130.35 
       0.681124         127.349         52.8701         128.489 
       0.687237          126.18         51.7969         126.987 
       0.693381         123.705         50.7487         125.251 
       0.699536         123.155         49.7278         124.007 
       0.705665         121.554         48.7395         122.868 
       0.711789         119.544         47.7789         121.521 
       0.717957         118.523         46.8377         120.202 
        0.72409         116.822         45.9272         119.135 
       0.730186          116.98         45.0465         117.835 
       0.736317         115.299         44.1843         116.241 
       0.742472         113.403         43.3417         115.045 
       0.748622         111.725         42.5221         113.706 
        0.75476         111.929         41.7256         112.772 
       0.760888         110.342         40.9509         111.044 
       0.767043          108.33          40.193         110.304 
       0.773185         106.991          39.456         109.497 
       0.779291         106.248         38.7418          108.07 
       0.785407         105.286         38.0443         106.792 
       0.791564         104.242         37.3597         105.975 
       0.797719         102.502         36.6923         105.292 
       0.803834         102.585         36.0456         104.043 
       0.809972         101.313         35.4122         103.071 
       0.816124         99.4323         34.7926         102.222 
       0.822261          98.842         34.1897         101.227 
       0.828378         98.3141         33.6029         99.9764 
       0.834502         97.4165         33.0294         99.0215 
       0.840667         96.7693         32.4657         98.3999 
       0.846816         95.1581         31.9168         97.5761 
       0.852925         94.5778          31.384         96.7616 
       0.859047         93.5199         30.8624         95.8641 
       0.865192         92.8518          30.351         94.8439 
       0.871341         92.0944         29.8508          93.949 
       0.877463         91.1733         29.3643         93.3315 
       0.883569         90.9705         28.8899         92.8312 
       0.889708         90.0752         28.4236         91.7904 
       0.895864         89.0113         27.9664         91.2277 
       0.902008         87.9032         27.5203         90.2506 
       0.908149         87.0273         27.0842         89.5197 
       0.914301          86.425         26.6569         88.7371 
       0.920448         86.4688         26.2392         88.1737 
       0.926574         84.7979          25.832         87.3173 
       0.932687         84.5912         25.4344         86.8053 
       0.938823         84.0058         25.0437         85.9506 
       0.944975         83.2869         24.6603         85.2691 
       0.951105          82.402         24.2864         84.5469 
       0.957225         81.9119          23.921         83.9789 
       0.963368         81.1538         23.5618         83.2435 
       0.969511         80.5366           23.21         82.5515 
       0.975621         79.2976         22.8674         82.4055 
       0.981748         79.1234         22.5308         81.7396 
       0.987916         78.4753         22.1989         81.0777 
        0.99406         78.0213         21.8749         80.3053 
        1.00019         77.3914         21.5581         79.6299 
        1.00632         76.5867         21.2478         79.0663 
        1.01246          76.083         20.9433         78.3142 
        1.01859         75.6099         20.6452         78.0872 
        1.02471         75.1454         20.3533         77.7239 
        1.03085         74.4383         20.0661         77.0755 
        1.03698         73.7735          19.785         76.5335 
        1.04314         73.3811         19.5082         75.8958 
        1.04929         72.9365         19.2373         75.5448 
        1.05541         72.2889         18.9726         75.1402 
        1.06154         71.5187         18.7124         74.5619 
        1.06769         71.1443         18.4566         74.0903 
        1.07382         70.6996         18.2064         73.6426 
        1.07993         70.3466         17.9615         73.1167 
        1.08607         69.9111           17.72         72.5833 
        1.09222         69.2274         17.4828         72.1593 
        1.09836         68.7533         17.2501         71.5809 
        1.10449         68.3196          17.022         71.2591 
        1.11063         67.7313         16.7978         70.5467 
        1.11677         67.5087         16.5777         70.1271 
         1.1229         66.6397         16.3619         69.8606 
        1.12903         66.2174         16.1498         69.2936 
        1.13518         65.6775         15.9413         68.8908 
        1.14131         65.4624         15.7366         68.3456 
        1.14745         65.0885         15.5356         68.0507 
        1.15359         64.4561         15.3381         67.6378 
        1.15973         64.2102          15.144         67.3884 
        1.16584         63.6924         14.9541          66.686 
        1.17197         63.3251         14.7671         66.5424 
        1.17811         62.8869         14.5829         66.0313 
        1.18424         62.3441         14.4023         65.6387 
        1.19038         62.0697         14.2242          65.308 
        1.19652         61.7397         14.0493         64.8655 
        1.20267         61.1983         13.8772          64.539 
        1.20881          60.705         13.7081         64.0502 
        1.21495         60.4519         13.5421         63.7545 
        1.22108         60.0868         13.3789         63.4333 
         1.2272         59.8412         13.2188         63.0227 
        1.23334         59.5045         13.0609         62.8186 
        1.23949         58.9227         12.9053         62.2655 
        1.24562         58.4414         12.7526         61.8125 
        1.25174         58.4651         12.6026         61.5421 
        1.25789         57.9149         12.4546         61.2023 
        1.26402         57.5392         12.3092         60.9865 
        1.27014         57.0559         12.1665         60.7244 
        1.27628          56.846         12.0256         60.3825 
        1.28244         56.7004         11.8867         59.8979 
        1.28858         56.2407         11.7502         59.5523 
        1.29471         55.8112         11.6162         59.2925 
        1.30084         55.3701         11.4843         58.8195 
        1.30697         55.1295         11.3543         58.6394 
        1.31312         54.9274         11.2261           58.41 
        1.31925           54.36         11.1003         58.0281 
        1.32537         54.1123         10.9766         57.7973 
        1.33151         53.9939         10.8543         57.4306 
        1.33765         53.5073         10.7339         57.1453 
        1.34378         53.2213         10.6156          56.884 
        1.34992         52.9255          10.499         56.5002 
        1.35606         52.6938          10.384         56.2391 
         1.3622         52.3503         10.2708         55.9968 
        1.36833         52.0242         10.1596         55.6585 
        1.37445         51.7276         10.0501         55.4624 
        1.38059         51.3994         9.94189          55.081 
        1.38675         51.0924         9.83501         54.7943 
        1.39288         50.7859         9.73013         54.4686 
        1.39901         50.5425         9.62683         54.2725 
        1.40515          50.137          9.5248         54.1328 
         1.4113         49.9378         9.42429         53.8957 
        1.41742         49.7003         9.32562         53.5025 
        1.42355          49.463         9.22817         53.1916 
         1.4297         49.1358         9.13182         53.0031 
        1.43585         49.0082         9.03689         52.6567 
        1.44198         48.4987         8.94367         52.4873 
        1.44809         48.1649         8.85195          52.212 
        1.45423         48.1843         8.76117         51.9057 
        1.46036         47.8326         8.67183         51.6821 
        1.46649         47.4515         8.58371         51.5134 
        1.47263         47.1379         8.49674          51.279 
        1.47877          46.961         8.41102         50.8877 
        1.48491         46.5863         8.32634         50.7113 
        1.49104         46.4617         8.24302         50.5531 
        1.49718         46.1278         8.16077         50.2587 
        1.50333         45.9686         8.07952         50.0035 
        1.50947         45.6995         7.99953         49.7925 
         1.5156         45.5466         7.92076         49.5576 
        1.52172         45.1444         7.84304         49.3038 
        1.52787         44.9876         7.76621         49.1146 
          1.534         44.6895          7.6905         48.9227 
        1.54013         44.5738         7.61588          48.668 
        1.54627         44.1447         7.54212         48.4177 
        1.55241         44.1087         7.46932         48.2051 
        1.55855         43.6937         7.39758         48.0103 
        1.56467         43.3461         7.32698          47.825 
         1.5708          43.348          7.2571         47.5739 
        1.57695         43.0061         7.18803         47.3886 
        1.58308          42.879         7.12002         47.2198 
        1.58922         42.5852         7.05283         46.9479 
        1.59535         42.5695         6.98654         46.7742 
         1.6015         42.2401         6.92101          46.523 
        1.60764         42.0226         6.85635          46.292 
        1.61376          41.821         6.79269         46.2035 
        1.61989          41.438         6.72979         45.9824 
        1.62604         41.3626         6.66755         45.6909 
        1.63218         41.0817         6.60613         45.4842 
        1.63831         40.9117         6.54563           45.37 
        1.64444         40.7503         6.48586         45.1716 
        1.65059         40.4834          6.4267         44.9266 
        1.65673         40.2824         6.36834         44.7253 
        1.66285         40.0198         6.31087         44.5784 
        1.66898         39.7872         6.25409         44.4232 
        1.67512         39.5641         6.19789         44.1938 
        1.68127         39.4809         6.14234         43.9678 
         1.6874         39.2936         6.08759         43.7981 
        1.69353         39.0474         6.03354         43.6624 
        1.69967         38.8551         5.98002         43.4724 
        1.70581         38.6741         5.92718         43.2872 
        1.71193         38.3817         5.87517         43.1277 
        1.71806         38.2724         5.82367         42.9523 
        1.72421         38.0165         5.77269         42.7706 
        1.73035         37.8916         5.72237         42.5746 
        1.73649         37.6462         5.67267         42.3815 
        1.74262         37.4604         5.62359         42.2334 
        1.74876         37.3816         5.57507         42.0673 
        1.75489         37.1353         5.52721         41.8831 
        1.76101         37.0102         5.47993         41.7003 
        1.76715         36.7795         5.43314         41.5124 
        1.77329         36.6017         5.38684         41.3657 
        1.77943         36.4258         5.34106         41.2233 
        1.78557         36.2775         5.29588         41.0386 
        1.79171         35.9749         5.25122          40.863 
        1.79785         35.9057         5.20706         40.7057 
        1.80399         35.7084         5.16342         40.5474 
        1.81012         35.4663         5.12033          40.384 
        1.81625          35.357         5.07776         40.2093 
        1.82239         35.1169         5.03561         40.0587 
        1.82853         35.0186         4.99396         39.9581 
        1.83466         34.7779         4.95282         39.7822 
        1.84078         34.5913         4.91218         39.5697 
        1.84692         34.5271         4.87194         39.4705 
        1.85306         34.3677         4.83209         39.3257 
         1.8592         34.0905         4.79276         39.1252 
        1.86533         34.0149         4.75388          38.977 
        1.87147         33.7721         4.71539         38.8196 
