# k  (h/Mpc)    Pcb(k)  (Mpc/h)^3    Pcb_linear(k) (Mpc/h)^3    Pcb_NL(k) (Mpc/h)^3   ShotnoiseSubtracted = false
     0.00783031         3110.05         3135.22         3106.55 
       0.013688          3445.6          3493.9          3471.8 
       0.019231         3206.96         3226.32         3208.64 
      0.0249154          2727.6         2716.49         2707.59 
      0.0312784         2135.14         2131.42         2132.42 
      0.0375637         1676.26         1678.19         1680.64 
      0.0433917         1403.05         1396.66         1399.05 
      0.0492413         1225.53         1224.37         1226.64 
      0.0555754         1121.05         1115.24         1115.74 
      0.0619321         1026.87          1036.4         1035.99 
       0.067871         955.985         957.135         956.311 
      0.0738098         860.604         859.428         857.864 
      0.0800417         747.091         742.652          742.74 
      0.0862327         631.977          628.86          631.44 
      0.0921407         540.847         537.286         540.728 
      0.0982031         475.475         468.345         473.277 
       0.104506           425.1         423.025         428.557 
       0.110769         400.211         397.668         401.478 
       0.116806         387.339          382.47         385.183 
       0.122832         369.233         367.621         370.025 
       0.129052         349.267         346.574         348.569 
       0.135211         323.521         318.571          321.07 
       0.141259         290.414         286.875           290.4 
       0.147318         258.195         255.553         260.652 
       0.153489         232.352         228.295         232.828 
       0.159709         213.516         207.809         212.878 
       0.165845         197.124         194.394         200.272 
       0.171974         191.808         185.972         190.929 
       0.178125         184.828         179.939         185.078 
       0.184229         176.743         173.879         178.519 
        0.19034         170.376         166.113         170.342 
       0.196428         160.712         156.297         160.052 
       0.202534         147.338         145.085         149.317 
       0.208729         138.553         133.642         138.161 
       0.214876         129.442         123.486         129.053 
       0.220989          119.43         115.317         121.108 
       0.227147         114.897         109.148         114.735 
        0.23329          110.25         104.634         110.383 
       0.239377         107.023         101.077         106.564 
       0.245482         102.679         97.6927         102.439 
       0.251667         98.0461         93.9175         98.9342 
       0.257832         95.2199         89.6114         94.4017 
       0.263955         89.3161         84.9245         89.6282 
       0.270079         84.5038         80.1649         84.9783 
        0.27624         79.8387         75.6753         80.4098 
       0.282372         76.2298         71.7648         76.8285 
        0.28843         74.2172         68.5425         73.6314 
       0.294538         70.9241         65.8588         70.8608 
       0.300721         67.8809         63.5435         68.5879 
        0.30691         66.3698         61.3999         66.4051 
       0.313033          63.652         59.2791         63.9987 
       0.319153         62.1492         57.0604          61.756 
       0.325316         59.1176         54.7371         59.5363 
        0.33145         56.6794         52.4029         57.0274 
       0.337538         54.4876         50.1704         54.7157 
       0.343633         52.5948            48.1         52.7203 
       0.349808         50.5433         46.2208         50.9904 
       0.355968         48.8143          44.558         49.5385 
       0.362074         47.7307         43.0786         47.8356 
       0.368217         46.2137         41.7003         46.1468 
       0.374374         44.9832         40.3674         44.8576 
       0.380519         43.0959         39.0514         43.3843 
       0.386598         41.6831          37.748          42.104 
       0.392688         40.1923         36.4518         40.8152 
        0.39888         39.2881         35.1704         39.4892 
       0.405048         38.1403         33.9537         38.1672 
       0.411186         36.9252         32.8204         37.2037 
       0.417313         35.7598         31.7735         36.0043 
       0.423458         34.6498         30.7972         35.0555 
       0.429607         33.9439         29.8794         34.0358 
       0.435692         33.2618         29.0141           33.16 
       0.441815         31.9567         28.1696          32.395 
       0.447964         30.7945         27.3395         31.4095 
       0.454126         30.2339         26.5269         30.5006 
       0.460267         29.7445         25.7395          29.839 
       0.466387         28.8189         24.9819         28.9289 
        0.47254         28.2767         24.2536         28.2391 
       0.478662         27.2762         23.5661         27.5026 
       0.484765         26.6229         22.9161         26.7354 
       0.490885          25.795         22.2948         26.2427 
       0.497035         25.2848          21.697         25.6809 
       0.503198         24.7418         21.1207           24.93 
       0.509342         23.9586         20.5647         24.3957 
       0.515458         23.5292         20.0265         23.9426 
       0.521598         22.9496         19.5014         23.2027 
       0.527764          22.543         18.9912         22.5882 
       0.533884         21.9581         18.5033         22.0944 
           0.54         21.4705         18.0345         21.6167 
       0.546137         20.7766         17.5821         21.2039 
       0.552299         20.3615         17.1451         20.6072 
       0.558452         19.8612         16.7252         20.1686 
       0.564573         19.5771         16.3225         19.8511 
       0.570708         19.0678         15.9323         19.4222 
       0.576825         18.7575         15.5554         18.9939 
       0.582926         18.3579         15.1905         18.6108 
       0.589034         17.9376         14.8358         18.3091 
       0.595184         17.6705         14.4897          17.802 
       0.601379         17.1633         14.1525         17.5636 
       0.607522         16.8113         13.8293         17.1234 
       0.613639         16.5083         13.5183          16.794 
       0.619772         16.1643         13.2167         16.5158 
       0.625918         15.8249         12.9239         16.1892 
       0.632068         15.6309         12.6399          15.837 
       0.638161         15.2598         12.3668         15.5456 
         0.6443         14.9908         12.0996         15.2193 
       0.650464         14.5918         11.8392          14.998 
       0.656582         14.4501         11.5884         14.7178 
       0.662703         14.2055         11.3447         14.4118 
       0.668861         13.8236         11.1069         14.2213 
       0.675024         13.5847         10.8758         13.8875 
       0.681124         13.5071         10.6537         13.6447 
       0.687237         13.1925         10.4374         13.3821 
       0.693381         12.8748         10.2262         13.1305 
       0.699536         12.7633         10.0205          12.946 
       0.705665          12.474          9.8213         12.7743 
       0.711789         12.2424         9.62774          12.485 
       0.717957         11.9539         9.43808         12.2847 
        0.72409         11.8294         9.25461         12.1097 
       0.730186         11.7334         9.07715         11.8824 
       0.736317         11.4474         8.90341         11.6741 
       0.742472         11.3025         8.73362          11.528 
       0.748622         11.0811         8.56846         11.3211 
        0.75476         10.7826         8.40796         11.1386 
       0.760888          10.722         8.25186         10.9824 
       0.767043         10.4932         8.09913          10.817 
       0.773185         10.3403         7.95062         10.6397 
       0.779291         10.2274          7.8067         10.4939 
       0.785407         10.0442         7.66616         10.3108 
       0.791564          9.9198         7.52821          10.163 
       0.797719         9.67684         7.39373         10.0068 
       0.803834         9.62509         7.26341         9.84089 
       0.809972          9.4136         7.13577         9.72662 
       0.816124         9.29014         7.01093         9.56055 
       0.822261         9.16089         6.88943         9.41681 
       0.828378         9.03751         6.77119         9.27785 
       0.834502         8.91191         6.65563          9.1598 
       0.840667         8.80047         6.54204         9.01581 
       0.846816         8.59305         6.43143         8.89569 
       0.852925         8.53896         6.32408         8.80338 
       0.859047         8.39662         6.21897         8.67112 
       0.865192         8.26773         6.11591         8.54163 
       0.871341         8.15139         6.01513         8.44068 
       0.877463         8.02613         5.91709         8.31594 
       0.883569         7.95162         5.82149         8.19577 
       0.889708         7.80637         5.72752         8.09375 
       0.895864         7.69398          5.6354         7.97461 
       0.902008         7.59665         5.54551          7.8834 
       0.908149         7.46629         5.45763         7.77255 
       0.914301         7.39885         5.37153         7.70885 
       0.920448         7.29116         5.28737         7.57002 
       0.926574         7.22299         5.20532         7.48093 
       0.932687         7.09299         5.12518         7.34754 
       0.938823         6.98331         5.04646          7.2783 
       0.944975         6.93591         4.96921          7.1978 
       0.951105         6.82207         4.89387          7.0788 
       0.957225          6.7676         4.82022         7.02077 
       0.963368          6.6444         4.74785         6.92059 
       0.969511         6.56253         4.67697          6.8416 
       0.975621         6.48549         4.60792         6.75196 
       0.981748         6.38735         4.54009         6.67114 
       0.987916         6.32931         4.47321         6.58586 
        0.99406         6.24192         4.40793         6.51777 
        1.00019         6.18111         4.34409         6.45126 
        1.00632          6.1218         4.28158         6.36952 
        1.01246         6.02757          4.2202         6.31696 
        1.01859         5.95283         4.16014         6.22679 
        1.02471         5.86646         4.10132         6.12742 
        1.03085         5.82778         4.04344         6.06921 
        1.03698          5.7587         3.98681         6.01138 
        1.04314         5.67323         3.93102         5.93546 
        1.04929         5.58945         3.87643         5.87703 
        1.05541         5.53776         3.82311         5.82218 
        1.06154         5.47743         3.77066         5.74496 
        1.06769          5.4317         3.71912         5.67901 
        1.07382           5.333         3.66871          5.6217 
        1.07993          5.2832         3.61935         5.55609 
        1.08607         5.23958          3.5707         5.50351 
        1.09222         5.16411         3.52289         5.44474 
        1.09836         5.13033         3.47601         5.36792 
        1.10449         5.04448         3.43005         5.31707 
        1.11063         5.01666         3.38486         5.26508 
        1.11677          4.9602         3.34051         5.20637 
         1.1229         4.90714         3.29703         5.16036 
        1.12903         4.85122         3.25429         5.11669 
        1.13518         4.78587         3.21227         5.05461 
        1.14131         4.73699         3.17102         4.99522 
        1.14745         4.66327         3.13052         4.94457 
        1.15359         4.61148         3.09073         4.89659 
        1.15973         4.57183          3.0516           4.844 
        1.16584         4.52844         3.01334         4.80487 
        1.17197         4.46955         2.97567         4.76064 
        1.17811         4.42611         2.93854         4.69923 
        1.18424         4.38687         2.90215         4.65459 
        1.19038         4.35385         2.86627         4.61075 
        1.19652         4.30381         2.83101         4.56518 
        1.20267         4.26652         2.79635         4.52165 
        1.20881         4.20033         2.76228          4.4825 
        1.21495         4.17072         2.72883         4.44053 
        1.22108         4.12229         2.69594         4.39914 
         1.2272         4.07884         2.66367         4.34705 
        1.23334         4.05825         2.63186         4.31416 
        1.23949          4.0049         2.60049         4.27861 
        1.24562         3.96464         2.56972         4.23485 
        1.25174         3.94062          2.5395         4.19357 
        1.25789         3.87395         2.50967         4.14953 
        1.26402         3.84917         2.48038         4.11261 
        1.27014         3.82399         2.45163         4.07972 
        1.27628         3.77103         2.42324          4.0371 
        1.28244         3.74813         2.39526         4.00422 
        1.28858         3.71108         2.36775         3.96731 
        1.29471         3.66161         2.34073         3.93746 
        1.30084         3.62696         2.31416         3.90996 
        1.30697          3.6086         2.28797         3.86112 
        1.31312         3.56567         2.26214         3.82946 
        1.31925         3.53218         2.23679         3.80802 
        1.32537         3.50107         2.21186         3.77499 
        1.33151         3.46613         2.18721          3.7388 
        1.33765         3.43175         2.16296         3.70099 
        1.34378         3.42022         2.13912         3.67058 
        1.34992         3.38001         2.11563         3.64239 
        1.35606         3.34746         2.09243         3.60731 
         1.3622         3.31234         2.06963         3.57304 
        1.36833         3.28731         2.04722         3.55863 
        1.37445         3.25282         2.02516         3.52329 
        1.38059         3.21702         2.00335         3.48647 
        1.38675         3.19382         1.98182         3.46197 
        1.39288         3.17133         1.96068          3.4404 
        1.39901         3.13259         1.93987         3.40959 
        1.40515         3.10972         1.91931         3.37962 
         1.4113          3.0825         1.89906         3.35304 
        1.41742         3.06259         1.87917         3.32674 
        1.42355         3.02689         1.85954         3.29975 
         1.4297         3.00094         1.84012         3.27249 
        1.43585         2.98359         1.82099         3.25164 
        1.44198         2.95119         1.80221         3.22079 
        1.44809         2.92799         1.78373         3.19707 
        1.45423         2.90103         1.76543         3.17269 
        1.46036         2.88164         1.74743         3.14775 
        1.46649         2.85776         1.72967         3.12558 
        1.47263         2.83479         1.71215         3.10229 
        1.47877         2.80975         1.69488          3.0717 
        1.48491         2.78894         1.67781         3.05336 
        1.49104         2.76497         1.66102         3.03056 
        1.49718         2.74615         1.64445         3.00623 
        1.50333         2.71785         1.62808         2.98375 
        1.50947         2.69379         1.61196         2.96186 
         1.5156         2.67653         1.59608          2.9425 
        1.52172         2.65084         1.58042         2.92256 
        1.52787         2.63618         1.56494         2.89073 
          1.534         2.60973         1.54969         2.87255 
        1.54013         2.59753         1.53465          2.8524 
        1.54627         2.56882         1.51979         2.83017 
        1.55241         2.54542         1.50512         2.81144 
        1.55855         2.53261         1.49066         2.78519 
        1.56467         2.51812         1.47644           2.771 
         1.5708         2.48637         1.46235         2.75572 
        1.57695         2.46577         1.44844         2.72951 
        1.58308         2.44418         1.43473         2.71025 
        1.58922         2.43756         1.42119         2.69756 
        1.59535         2.41634         1.40783         2.68099 
         1.6015         2.38809         1.39463         2.65855 
        1.60764         2.37643          1.3816         2.63754 
        1.61376         2.35726         1.36877         2.62178 
        1.61989          2.3335          1.3561          2.6043 
        1.62604         2.32225         1.34356         2.58554 
        1.63218         2.30594         1.33118         2.57019 
        1.63831         2.28849         1.31899          2.5543 
        1.64444         2.26882         1.30694         2.53216 
        1.65059         2.25409         1.29502         2.51606 
        1.65673         2.23787         1.28326         2.49945 
        1.66285         2.21973         1.27168         2.48169 
        1.66898         2.20374         1.26024         2.46512 
        1.67512         2.18877         1.24892         2.44878 
        1.68127         2.16772         1.23772         2.43496 
         1.6874         2.15379         1.22669         2.42265 
        1.69353         2.13555          1.2158         2.40702 
        1.69967         2.12144         1.20501         2.38532 
        1.70581         2.10528         1.19437         2.36993 
        1.71193         2.09088         1.18389          2.3595 
        1.71806         2.07694         1.17351         2.34159 
        1.72421         2.06257         1.16323         2.32534 
        1.73035         2.04633          1.1531         2.31092 
        1.73649         2.03312         1.14308         2.29641 
        1.74262         2.01684         1.13319          2.2831 
        1.74876         2.00612         1.12341         2.27003 
        1.75489         1.98946         1.11377         2.25408 
        1.76101         1.97244         1.10424          2.2364 
        1.76715         1.96885         1.09482         2.22415 
        1.77329         1.94938         1.08549         2.21176 
        1.77943         1.93075         1.07626         2.19748 
        1.78557         1.92557         1.06716         2.18346 
        1.79171         1.90832         1.05816         2.16876 
        1.79785         1.89989         1.04926         2.15505 
        1.80399         1.88157         1.04046         2.14384 
        1.81012         1.87255         1.03178          2.1317 
        1.81625         1.85569          1.0232         2.11845 
        1.82239         1.84659         1.01471         2.10644 
        1.82853         1.83271         1.00632         2.09635 
        1.83466         1.81451        0.998026         2.08454 
        1.84078         1.80294        0.989838         2.07056 
        1.84692         1.79125        0.981728         2.05684 
        1.85306         1.77884          0.9737         2.04194 
         1.8592         1.77075        0.965773         2.02967 
        1.86533         1.75896        0.957939         2.02161 
        1.87147         1.75115        0.950183         2.00961 
