# k  (h/Mpc)    Pcb(k)  (Mpc/h)^3    Pcb_linear(k) (Mpc/h)^3    Pcb_NL(k) (Mpc/h)^3   ShotnoiseSubtracted = false
     0.00783031         17382.1         17489.9         17324.1 
       0.013688         18978.5         19477.3         19329.8 
       0.019231         17730.2         17980.6         17850.4 
      0.0249154         15250.5         15136.9         15046.5 
      0.0312784         11843.6         11875.5         11832.7 
      0.0375637         9273.24         9349.72         9334.94 
      0.0433917         7812.88         7780.93         7763.38 
      0.0492413         6813.19         6820.91         6808.28 
      0.0555754         6251.98         6212.79         6201.26 
      0.0619321         5644.39         5773.54         5760.48 
       0.067871         5290.85         5331.89          5326.1 
      0.0738098         4800.79         4787.55         4755.03 
      0.0800417         4187.95            4137         4136.46 
      0.0862327         3554.35         3503.09          3559.1 
      0.0921407         3082.58         2992.96         3064.99 
      0.0982031         2744.77         2608.91         2720.87 
       0.104506            2441         2356.45         2489.95 
       0.110769         2303.64         2215.19         2311.18 
       0.116806          2234.6         2130.53         2205.69 
       0.122832         2120.53         2047.81         2116.91 
       0.129052         1991.38         1930.56         1991.83 
       0.135211         1885.84         1774.57         1844.63 
       0.141259         1693.36         1598.01         1694.37 
       0.147318         1523.58         1423.53          1553.1 
       0.153489         1391.36         1271.69         1389.81 
       0.159709         1312.25         1157.58          1290.8 
       0.165845         1203.46         1082.85         1234.26 
       0.171974         1179.69         1035.93         1170.98 
       0.178125         1141.18         1002.33         1141.71 
       0.184229         1063.26         968.566         1093.09 
        0.19034         1037.65         925.308         1041.44 
       0.196428         994.573         870.628         982.246 
       0.202534         913.712         808.176         930.178 
       0.208729         886.146         744.431         865.795 
       0.214876         833.374         687.858             831 
       0.220989         779.231         642.355         792.762 
       0.227147         756.107         607.989         759.242 
        0.23329         725.554         582.849         736.862 
       0.239377         717.901         563.034         708.568 
       0.245482          680.86         544.181         678.086 
       0.251667         654.237         523.151         660.586 
       0.257832         641.113         499.165         631.424 
       0.263955         604.407         473.057         604.964 
       0.270079         579.269         446.544         581.269 
        0.27624         552.991         421.536         555.919 
       0.282372         539.782         399.753         538.476 
        0.28843         531.541         381.804         522.086 
       0.294538         503.695         366.855         505.716 
       0.300721         490.216         353.957          491.44 
        0.30691          479.35         342.017         481.396 
       0.313033         456.328         330.203         463.974 
       0.319153         448.977         317.844         449.757 
       0.325316         439.881         304.903         437.361 
        0.33145         427.495           291.9          419.71 
       0.337538         410.593         279.465         407.665 
       0.343633         398.653         267.932         401.027 
       0.349808          387.84         257.464         391.644 
       0.355968         380.013         248.202         382.794 
       0.362074         365.056         239.961         373.201 
       0.368217          362.16         232.283         361.467 
       0.374374         355.045         224.859         352.681 
       0.380519         340.049         217.528         343.245 
       0.386598         335.536         210.268         338.867 
       0.392688         325.764         203.048         327.864 
        0.39888         317.845          195.91         320.727 
       0.405048         309.591         189.132         314.567 
       0.411186         308.681          182.82         305.769 
       0.417313         302.926         176.988          298.97 
       0.423458         295.142          171.55         293.598 
       0.429607         285.467         166.438         287.914 
       0.435692         280.886         161.618         280.147 
       0.441815          275.61         156.913         277.068 
       0.447964         268.463         152.289         271.907 
       0.454126         265.169         147.763         263.712 
       0.460267         260.615         143.377         261.557 
       0.466387         254.007         139.157         256.351 
        0.47254         251.101           135.1         251.322 
       0.478662         244.904          131.27          246.11 
       0.484765         240.781          127.65         240.946 
       0.490885          238.03         124.189         237.025 
       0.497035         232.682         120.859         233.575 
       0.503198         231.407         117.649         229.933 
       0.509342         226.081         114.551         226.294 
       0.515458         221.682         111.553         223.284 
       0.521598         217.496         108.629         218.921 
       0.527764         214.869         105.787         216.383 
       0.533884         212.528         103.069         213.083 
           0.54         208.959         100.458          208.92 
       0.546137         204.019         97.9374         206.388 
       0.552299         202.328         95.5033         202.573 
       0.558452          198.74         93.1646         199.649 
       0.564573         197.717         90.9213          197.82 
       0.570708         192.968         88.7479         195.303 
       0.576825         189.851         86.6483         191.146 
       0.582926         188.528         84.6156         189.092 
       0.589034         184.714         82.6398         186.929 
       0.595184         183.193         80.7121          183.12 
       0.601379         180.213         78.8336         181.188 
       0.607522          175.71         77.0335         178.241 
       0.613639         174.936         75.3012         177.367 
       0.619772         173.732         73.6209         175.392 
       0.625918         170.617         71.9901         172.129 
       0.632068         168.013         70.4079         169.782 
       0.638161         166.957         68.8865         168.869 
         0.6443         164.315         67.3982          166.51 
       0.650464         161.903         65.9479         163.045 
       0.656582         160.018         64.5506         161.863 
       0.662703         159.215         63.1936         159.989 
       0.668861         155.534         61.8685         158.546 
       0.675024         155.002         60.5812         156.724 
       0.681124         152.775          59.344         154.359 
       0.687237         151.581         58.1394          152.66 
       0.693381          148.52         56.9628         150.694 
       0.699536          148.08         55.8169         149.298 
       0.705665         146.126         54.7075         147.695 
       0.711789         143.749         53.6293         146.446 
       0.717957         142.794         52.5729         145.044 
        0.72409         140.638         51.5509          143.61 
       0.730186         141.043         50.5624         142.015 
       0.736317          138.89         49.5946         140.311 
       0.742472         136.986         48.6488         138.842 
       0.748622         135.092         47.7288         137.325 
        0.75476         135.102         46.8348         136.522 
       0.760888          133.23         45.9653          134.37 
       0.767043         130.881         45.1146         133.435 
       0.773185         129.359         44.2873         132.471 
       0.779291          128.61         43.4856         130.748 
       0.785407         127.427         42.7028         129.351 
       0.791564         126.264         41.9343         128.341 
       0.797719         124.135         41.1853         127.508 
       0.803834         124.328         40.4593         126.243 
       0.809972         122.673         39.7483         125.093 
       0.816124          120.48         39.0529         124.049 
       0.822261          119.81         38.3761         122.978 
       0.828378         119.191         37.7175         121.532 
       0.834502         118.061         37.0738         120.399 
       0.840667         117.531         36.4411         119.505 
       0.846816         115.425         35.8249         118.631 
       0.852925         114.939          35.227         117.696 
       0.859047          113.59         34.6415         116.694 
       0.865192         112.925         34.0674         115.406 
       0.871341         111.988          33.506          114.43 
       0.877463         110.837         32.9599         113.782 
       0.883569         110.586         32.4274           113.2 
       0.889708         109.588          31.904         111.877 
       0.895864         108.125         31.3908         111.208 
       0.902008         107.004         30.8901         110.085 
       0.908149         105.971         30.4006         109.229 
       0.914301         105.096          29.921          108.27 
       0.920448         105.127         29.4522         107.616 
       0.926574          103.39         28.9951         106.607 
       0.932687         103.146         28.5488         106.057 
       0.938823         102.344         28.1102           105.1 
       0.944975         101.716           27.68         104.301 
       0.951105         100.532         27.2603         103.439 
       0.957225         99.8701           26.85         102.725 
       0.963368         99.1532         26.4469         101.897 
       0.969511         98.2177         26.0521         101.044 
       0.975621         96.7392         25.6674         100.808 
       0.981748         96.6146         25.2896         100.053 
       0.987916         95.9439         24.9171         99.2587 
        0.99406         95.1843         24.5535         98.3929 
        1.00019         94.7003         24.1978         97.6236 
        1.00632          93.702         23.8496         96.9053 
        1.01246         93.0166         23.5078         95.9813 
        1.01859         92.3385         23.1732         95.7063 
        1.02471         91.7498         22.8455         95.2567 
        1.03085         91.0637         22.5231         94.5652 
        1.03698         90.2885         22.2077         94.0102 
        1.04314         89.8564         21.8969         93.2104 
        1.04929         89.3093         21.5929          92.717 
        1.05541         88.7178         21.2958         92.2342 
        1.06154         87.6522         21.0037         91.5775 
        1.06769         87.1692         20.7165         91.0277 
        1.07382         86.6021         20.4358         90.5081 
        1.07993         86.1805         20.1608         89.8468 
        1.08607         85.8359         19.8898         89.2144 
        1.09222          84.808         19.6235          88.767 
        1.09836         84.3129         19.3624         88.0658 
        1.10449         83.8611         19.1064         87.7314 
        1.11063         83.0098         18.8547         86.9123 
        1.11677         82.7954         18.6076         86.3807 
         1.1229         81.8003         18.3654          85.957 
        1.12903          81.107         18.1273         85.3479 
        1.13518         80.5729         17.8933         84.8961 
        1.14131         80.4186         17.6635         84.1793 
        1.14745          79.744         17.4379         83.8222 
        1.15359         79.2008         17.2162         83.3879 
        1.15973         78.8025         16.9983         83.0144 
        1.16584         78.1154         16.7851          82.262 
        1.17197         77.7534         16.5754         82.0346 
        1.17811         77.2102         16.3685         81.4256 
        1.18424         76.6017         16.1658         80.8761 
        1.19038         76.2202         15.9659         80.6073 
        1.19652         75.7361         15.7696         80.0506 
        1.20267         75.1086         15.5765         79.6609 
        1.20881         74.5506         15.3867         79.0385 
        1.21495         74.3535         15.2004           78.74 
        1.22108         73.7305         15.0172         78.3414 
         1.2272         73.6202         14.8374         77.8283 
        1.23334         73.0744         14.6602         77.6065 
        1.23949         72.4029         14.4855          76.965 
        1.24562         71.8304         14.3141         76.3652 
        1.25174         71.9249         14.1457         76.0034 
        1.25789         71.1577         13.9796         75.5983 
        1.26402          70.755         13.8164         75.3659 
        1.27014         70.1281         13.6563         75.0239 
        1.27628         69.9083         13.4982          74.715 
        1.28244         69.5864         13.3423         74.1157 
        1.28858         69.1507          13.189         73.6853 
        1.29471         68.6787         13.0385         73.3698 
        1.30084          68.126         12.8906         72.7906 
        1.30697         67.7395         12.7446         72.5301 
        1.31312         67.4826         12.6008         72.2334 
        1.31925         66.8196         12.4596         71.8572 
        1.32537           66.49         12.3207         71.5593 
        1.33151         66.3943         12.1834         71.1098 
        1.33765         65.7891         12.0483         70.7907 
        1.34378         65.5259         11.9155         70.4534 
        1.34992         65.0766         11.7846         69.9846 
        1.35606         64.8912         11.6555         69.6721 
         1.3622         64.4394         11.5284          69.376 
        1.36833         63.9919         11.4036         68.9071 
        1.37445         63.6558         11.2807         68.7123 
        1.38059         63.2089         11.1593          68.183 
        1.38675         62.9346         11.0393         67.8724 
        1.39288         62.4826         10.9216         67.4637 
        1.39901         62.2449         10.8056           67.24 
        1.40515         61.7418         10.6911         67.0571 
         1.4113         61.4123         10.5783         66.7914 
        1.41742         61.2664         10.4675         66.3853 
        1.42355         60.8691         10.3581         65.9477 
         1.4297         60.4309           10.25         65.7188 
        1.43585         60.2777         10.1434           65.29 
        1.44198         59.7117         10.0388         65.1252 
        1.44809         59.3364         9.93585         64.7914 
        1.45423         59.3238         9.83396         64.3728 
        1.46036         58.7934         9.73368         64.0945 
        1.46649         58.4051         9.63477         63.8856 
        1.47263         58.0008         9.53715           63.59 
        1.47877         57.8677         9.44093         63.1403 
        1.48491         57.4123         9.34589         62.8981 
        1.49104         57.1443         9.25236         62.7367 
        1.49718         56.7624         9.16004         62.3252 
        1.50333         56.5083         9.06884         61.9998 
        1.50947         56.3053         8.97906         61.7659 
         1.5156         55.9879         8.89064         61.4948 
        1.52172         55.4773         8.80341         61.1866 
        1.52787         55.3596         8.71717         60.9168 
          1.534          55.064         8.63219         60.7176 
        1.54013         54.7633         8.54843         60.4346 
        1.54627         54.3746         8.46564         60.1143 
        1.55241         54.2741         8.38392         59.8456 
        1.55855         53.7101          8.3034         59.5945 
        1.56467         53.3593         8.22416          59.357 
         1.5708          53.169         8.14572         59.0426 
        1.57695         52.8871         8.06819         58.8037 
        1.58308         52.7302         7.99185         58.5986 
        1.58922         52.4033         7.91644         58.2866 
        1.59535         52.2922         7.84203         58.0822 
         1.6015         51.8281         7.76847         57.7829 
        1.60764         51.5678         7.69589         57.4863 
        1.61376         51.4365         7.62444         57.3635 
        1.61989         50.9911         7.55384         57.1147 
        1.62604         50.8748         7.48398         56.7034 
        1.63218          50.461         7.41504         56.4385 
        1.63831         50.3135         7.34713         56.3511 
        1.64444         50.0522         7.28004         56.0807 
        1.65059         49.7343         7.21364         55.7763 
        1.65673         49.5185         7.14813         55.5304 
        1.66285         49.1816         7.08362         55.3499 
        1.66898         48.8464         7.01989         55.1621 
        1.67512         48.6092         6.95682         54.8804 
        1.68127         48.4236         6.89446         54.6193 
         1.6874         48.2461         6.83301         54.4023 
        1.69353         47.9459         6.77234         54.1781 
        1.69967         47.6897         6.71227         53.9589 
        1.70581         47.4499         6.65295         53.7441 
        1.71193         47.1785         6.59457         53.5407 
        1.71806         46.9489         6.53677         53.3484 
        1.72421         46.6813         6.47954         53.1101 
        1.73035          46.453         6.42307         52.8519 
        1.73649         46.2073         6.36727         52.6187 
        1.74262         45.9889         6.31219         52.4271 
        1.74876         45.7731         6.25772         52.2207 
        1.75489         45.6029         6.20401         51.9896 
        1.76101         45.3497         6.15094         51.7575 
        1.76715         45.0757         6.09842         51.5517 
        1.77329          44.861         6.04645         51.3654 
        1.77943         44.6312         5.99507         51.1696 
        1.78557         44.4968         5.94436         50.9519 
        1.79171         44.0628         5.89422         50.7392 
        1.79785         44.0429         5.84465         50.5345 
        1.80399         43.7893         5.79567         50.3291 
        1.81012         43.4766         5.74731         50.1267 
        1.81625         43.3366         5.69952         49.9104 
        1.82239         42.9867         5.65221         49.7103 
        1.82853         42.9103         5.60546         49.5636 
        1.83466         42.6129         5.55928          49.361 
        1.84078         42.3381         5.51367         49.1347 
        1.84692         42.2715          5.4685         49.0078 
        1.85306         42.1531         5.42377            48.8 
         1.8592         41.8303         5.37962         48.5371 
        1.86533         41.6265         5.33599         48.3593 
        1.87147         41.3467         5.29278         48.1656 
