# k  (h/Mpc)    Pcb(k)  (Mpc/h)^3    Pcb_linear(k) (Mpc/h)^3    Pcb_NL(k) (Mpc/h)^3   ShotnoiseSubtracted = false
     0.00783031         4325.58         4359.37         4319.49 
       0.013688         4783.18         4857.53         4826.28 
       0.019231         4454.28         4485.32         4460.04 
      0.0249154         3794.28         3776.44         3763.23 
      0.0312784         2967.21         2963.04         2963.46 
      0.0375637         2328.39         2332.95         2335.77 
      0.0433917         1950.74         1941.56         1944.28 
      0.0492413         1703.36         1702.05         1704.75 
      0.0555754         1559.23         1550.33         1550.82 
      0.0619321         1425.21         1440.75         1440.06 
       0.067871         1328.51         1330.55         1329.52 
      0.0738098         1196.86         1194.72         1192.18 
      0.0800417         1039.75         1032.38         1032.63 
      0.0862327         879.578         874.198         878.853 
      0.0921407         753.566         746.898         753.002 
      0.0982031         663.547          651.06         659.964 
       0.104506         592.531          588.06         598.223 
       0.110769         558.061          552.81         559.871 
       0.116806         540.647         531.683         536.897 
       0.122832          514.77          511.04         515.774 
       0.129052         486.899         481.781         485.796 
       0.135211         452.044         442.854         447.767 
       0.141259         405.707         398.792         405.579 
       0.147318         360.849         355.251           364.9 
       0.153489         325.285         317.359          325.91 
       0.159709         299.838         288.881          298.45 
       0.165845          276.27         270.232         281.346 
       0.171974          269.53         258.524         267.977 
       0.178125         259.676         250.138         259.971 
       0.184229         247.602         241.713         250.609 
        0.19034         239.009         230.918         239.056 
       0.196428         225.876         217.272          224.56 
       0.202534          206.78         201.687         209.856 
       0.208729           195.4         185.779         194.396 
       0.214876         182.881         171.661         182.232 
       0.220989         168.628         160.305         171.306 
       0.227147         162.646         151.729           162.4 
        0.23329         156.112         145.455         156.433 
       0.239377          151.85          140.51         150.974 
       0.245482         145.364         135.805         144.934 
       0.251667         138.794         130.557         140.179 
       0.257832         135.241         124.571         133.758 
       0.263955         126.672         118.056         127.099 
       0.270079         119.964         111.439         120.704 
        0.27624         113.531         105.198         114.316 
       0.282372          108.66         99.7619         109.432 
        0.28843         106.211         95.2826         104.991 
       0.294538         101.307         91.5519         101.143 
       0.300721         97.0004         88.3333         98.0063 
        0.30691          94.997         85.3535         94.9615 
       0.313033         90.9172         82.4052         91.4872 
       0.319153         88.8885          79.321         88.3375 
       0.325316         84.8345         76.0914         85.2895 
        0.33145         81.4476         72.8465         81.7116 
       0.337538         78.2807         69.7431         78.4669 
       0.343633         75.5673          66.865         75.8082 
       0.349808         72.7302         64.2526         73.4391 
       0.355968         70.4059         61.9412         71.4334 
       0.362074         68.8305         59.8845          69.023 
       0.368217         66.7887         57.9685         66.5811 
       0.374374         64.9599         56.1156         64.7484 
       0.380519         62.1976         54.2863         62.6593 
       0.386598         60.3169         52.4744         60.8912 
       0.392688         58.1776         50.6725         59.0828 
        0.39888         56.9707         48.8912         57.1901 
       0.405048         55.3426         47.1998          55.414 
       0.411186         53.7391         45.6244         54.0452 
       0.417313         52.0831         44.1691         52.3053 
       0.423458         50.5664         42.8119         50.9938 
       0.429607         49.4822         41.5361         49.5786 
       0.435692         48.5697         40.3332         48.3216 
       0.441815         46.6974         39.1592         47.2848 
       0.447964         45.0158         38.0053         45.8778 
       0.454126         44.1943         36.8757         44.5324 
       0.460267         43.5862         35.7811         43.6713 
       0.466387         42.2625         34.7279         42.3759 
        0.47254         41.5539         33.7154         41.4191 
       0.478662         40.0307         32.7598         40.3978 
       0.484765         39.1511         31.8562         39.2481 
       0.490885         37.9772         30.9925         38.5716 
       0.497035         37.3735         30.1615         37.7998 
       0.503198         36.5244         29.3604         36.7482 
       0.509342          35.421         28.5874          36.005 
       0.515458         34.7823         27.8392         35.3858 
       0.521598         33.9065         27.1093         34.2974 
       0.527764         33.3641         26.4002         33.3904 
       0.533884         32.6795         25.7219         32.7225 
           0.54         31.8689         25.0702         32.0579 
       0.546137         30.8764         24.4413         31.4806 
       0.552299         30.2567         23.8338         30.6162 
       0.558452         29.5585         23.2501         29.9664 
       0.564573         29.2158         22.6903         29.5267 
       0.570708         28.4011         22.1479         28.9323 
       0.576825         28.0105         21.6239         28.3182 
       0.582926         27.4844         21.1167         27.7579 
       0.589034         26.8499         20.6236         27.3458 
       0.595184         26.4409         20.1425         26.6563 
       0.601379         25.7151         19.6737         26.2847 
       0.607522          25.185         19.2245         25.6203 
       0.613639         24.8181         18.7922         25.1869 
       0.619772          24.272         18.3728         24.7611 
       0.625918         23.8271         17.9658         24.3389 
       0.632068         23.5357          17.571         23.8282 
       0.638161         22.9883         17.1913         23.4109 
         0.6443         22.6489         16.8199         22.9375 
       0.650464         22.0377          16.458          22.582 
       0.656582         21.8606         16.1092         22.2134 
       0.662703         21.4835         15.7706         21.7609 
       0.668861         20.9375         15.4399          21.492 
       0.675024          20.638         15.1186         21.0042 
       0.681124         20.4712         14.8099         20.6619 
       0.687237         20.0181         14.5093         20.3009 
       0.693381         19.6013         14.2156         19.9273 
       0.699536         19.4275         13.9297         19.6968 
       0.705665         19.0112         13.6528         19.4201 
       0.711789          18.685         13.3837         18.9751 
       0.717957         18.2681         13.1201         18.7359 
        0.72409         18.0681          12.865         18.4737 
       0.730186         17.9324         12.6183         18.1521 
       0.736317         17.5286         12.3768         17.8473 
       0.742472          17.311         12.1408         17.6164 
       0.748622          16.978         11.9112         17.3141 
        0.75476         16.5632         11.6881         17.0694 
       0.760888         16.4996         11.4711         16.8378 
       0.767043         16.1513         11.2588         16.6068 
       0.773185          15.922         11.0523         16.3434 
       0.779291         15.7149         10.8523         16.1361 
       0.785407         15.4792         10.6569         15.8654 
       0.791564         15.3496         10.4651         15.6492 
       0.797719         14.9474         10.2782         15.4541 
       0.803834           14.89          10.097         15.1957 
       0.809972         14.5777          9.9196         15.0072 
       0.816124         14.4018         9.74606         14.7861 
       0.822261         14.2022         9.57716         14.5734 
       0.828378         14.0445         9.41278          14.353 
       0.834502         13.8618         9.25215         14.2055 
       0.840667         13.6908         9.09424         13.9976 
       0.846816         13.3914         8.94047         13.8148 
       0.852925         13.3132         8.79125         13.6926 
       0.859047         13.1288         8.64513         13.4836 
       0.865192         12.9246         8.50187         13.2943 
       0.871341         12.7566         8.36177         13.1507 
       0.877463         12.5722         8.22548         12.9768 
       0.883569         12.4632         8.09259         12.8049 
       0.889708         12.2561         7.96196         12.6474 
       0.895864         12.0786          7.8339         12.4672 
       0.902008         11.9504         7.70893         12.3354 
       0.908149         11.7513         7.58678         12.1963 
       0.914301         11.6568         7.46709         12.0984 
       0.920448         11.4889         7.35009         11.8902 
       0.926574          11.377         7.23603         11.7427 
       0.932687         11.1947         7.12463         11.5766 
       0.938823         11.0276          7.0152          11.447 
       0.944975         10.9502         6.90782         11.3365 
       0.951105          10.816         6.80308         11.1647 
       0.957225         10.7162          6.7007         11.0711 
       0.963368          10.529         6.60009         10.9301 
       0.969511         10.4129         6.50156         10.8037 
       0.975621         10.3135         6.40557         10.6905 
       0.981748          10.161         6.31129         10.5738 
       0.987916         10.0876         6.21831         10.4391 
        0.99406         9.92951         6.12757         10.3333 
        1.00019         9.85188         6.03882         10.2299 
        1.00632         9.76748         5.95192         10.1205 
        1.01246         9.62115          5.8666         10.0364 
        1.01859         9.51502          5.7831          9.9187 
        1.02471         9.40004         5.70134         9.78087 
        1.03085         9.33715         5.62088         9.68199 
        1.03698         9.24477         5.54215         9.58939 
        1.04314         9.10463          5.4646         9.47929 
        1.04929         8.97657         5.38872         9.40279 
        1.05541         8.91327         5.31459         9.32681 
        1.06154         8.82681         5.24168         9.19658 
        1.06769         8.72482         5.17003         9.08775 
        1.07382         8.60139         5.09995         9.01514 
        1.07993         8.52849         5.03134         8.92174 
        1.08607         8.45444         4.96371         8.84056 
        1.09222         8.34915         4.89725         8.76327 
        1.09836          8.2715         4.83209         8.65344 
        1.10449         8.19027         4.76819         8.56591 
        1.11063         8.13205         4.70538         8.49014 
        1.11677         8.05545         4.64372         8.39618 
         1.1229         7.96262         4.58328         8.33448 
        1.12903         7.87224         4.52387         8.26207 
        1.13518         7.79652         4.46546         8.17165 
        1.14131         7.72955         4.40811         8.09142 
        1.14745         7.60336         4.35181         8.01918 
        1.15359         7.52135         4.29649         7.93129 
        1.15973         7.47362          4.2421         7.86366 
        1.16584         7.39168         4.18891         7.80026 
        1.17197         7.30486         4.13655         7.75105 
        1.17811         7.25094         4.08493          7.6393 
        1.18424         7.18863         4.03434          7.5813 
        1.19038         7.14512         3.98447         7.52261 
        1.19652         7.04713         3.93546         7.44061 
        1.20267         7.01002         3.88727         7.38526 
        1.20881         6.89865         3.83991          7.3226 
        1.21495          6.8588         3.79341          7.2565 
        1.22108         6.79579         3.74769         7.19729 
         1.2272         6.72804         3.70283         7.12604 
        1.23334         6.69098         3.65861         7.07373 
        1.23949         6.62039           3.615         7.00822 
        1.24562         6.53948         3.57223         6.94565 
        1.25174         6.51167         3.53022         6.89083 
        1.25789          6.4343         3.48875         6.82503 
        1.26402          6.3784         3.44803          6.7667 
        1.27014          6.3455         3.40806         6.71413 
        1.27628         6.26259         3.36861         6.64627 
        1.28244         6.23326          3.3297         6.60894 
        1.28858         6.16009         3.29146         6.55059 
        1.29471         6.09195          3.2539         6.50226 
        1.30084         6.03918         3.21697         6.46434 
        1.30697         6.00913         3.18056         6.39356 
        1.31312         5.95206         3.14465         6.34325 
        1.31925         5.90844         3.10941         6.30686 
        1.32537         5.84676         3.07475         6.25917 
        1.33151         5.79902         3.04049         6.20486 
        1.33765         5.75473         3.00678          6.1455 
        1.34378         5.72461         2.97364         6.09737 
        1.34992         5.66037         2.94098         6.05961 
        1.35606         5.60361         2.90874         6.00566 
         1.3622         5.55704         2.87704         5.95364 
        1.36833         5.53072         2.84589         5.93157 
        1.37445         5.48163         2.81522         5.87486 
        1.38059         5.42268         2.78491         5.82046 
        1.38675         5.39536         2.75497         5.79177 
        1.39288         5.34286         2.72559         5.74533 
        1.39901         5.28987         2.69666         5.70033 
        1.40515         5.25341         2.66808         5.65628 
         1.4113         5.21281         2.63992         5.61608 
        1.41742         5.18157         2.61228         5.58184 
        1.42355         5.12547         2.58498         5.54016 
         1.4297         5.08916           2.558           5.491 
        1.43585         5.05458          2.5314         5.46036 
        1.44198         5.02209         2.50529         5.41858 
        1.44809         4.97728          2.4796          5.3801 
        1.45423         4.93497         2.45417         5.34032 
        1.46036         4.89879         2.42914         5.30102 
        1.46649         4.86608         2.40446         5.27028 
        1.47263         4.82797          2.3801         5.23978 
        1.47877         4.78542         2.35608         5.19073 
        1.48491         4.76083         2.33237         5.15463 
        1.49104          4.7209         2.30902         5.12495 
        1.49718         4.69316         2.28599         5.09018 
        1.50333         4.65773         2.26322         5.05486 
        1.50947         4.61893         2.24082          5.0235 
         1.5156         4.59127         2.21875         4.99206 
        1.52172         4.54419         2.19698         4.95545 
        1.52787         4.53208         2.17546         4.91458 
          1.534         4.48744         2.15425         4.88384 
        1.54013         4.46543         2.13335         4.84942 
        1.54627         4.42534         2.11269         4.81629 
        1.55241         4.37938          2.0923         4.78797 
        1.55855         4.36716          2.0722          4.7531 
        1.56467         4.34417         2.05243         4.72839 
         1.5708         4.29753         2.03285         4.70373 
        1.57695         4.26989          2.0135         4.66693 
        1.58308         4.23778         1.99445         4.63652 
        1.58922         4.21737         1.97563         4.61597 
        1.59535          4.1894         1.95706         4.58882 
         1.6015          4.1371         1.93871         4.55302 
        1.60764         4.11589         1.92059         4.52045 
        1.61376         4.09647         1.90276         4.49751 
        1.61989         4.06073         1.88514          4.4728 
        1.62604         4.04615         1.86771          4.4437 
        1.63218         4.01533          1.8505         4.41882 
        1.63831         3.98537         1.83355         4.39451 
        1.64444         3.95381         1.81681         4.36051 
        1.65059         3.92345         1.80024         4.33426 
        1.65673         3.91087         1.78389         4.31138 
        1.66285         3.87743         1.76779         4.28487 
        1.66898         3.86122         1.75189         4.25437 
        1.67512         3.83695         1.73615         4.22954 
        1.68127          3.7928         1.72059         4.20748 
         1.6874         3.78315         1.70525         4.18597 
        1.69353         3.74422         1.69011         4.16241 
        1.69967         3.72941         1.67512         4.13158 
        1.70581         3.70029         1.66031         4.10717 
        1.71193         3.68041         1.64575         4.08984 
        1.71806         3.65414         1.63132         4.06694 
        1.72421         3.62954         1.61704         4.04205 
        1.73035         3.61493         1.60294         4.01954 
        1.73649         3.59253         1.58902         3.99754 
        1.74262         3.55547         1.57527         3.97098 
        1.74876         3.54563         1.56168         3.94806 
        1.75489         3.52469         1.54828         3.92461 
        1.76101          3.4889         1.53503         3.89944 
        1.76715         3.48689         1.52193         3.88414 
        1.77329         3.45374         1.50896         3.86334 
        1.77943         3.42316         1.49613         3.83722 
        1.78557         3.42445         1.48348           3.815 
        1.79171         3.39264         1.47097         3.79233 
        1.79785          3.3777          1.4586         3.77073 
        1.80399         3.35583         1.44637         3.75372 
        1.81012         3.33058          1.4343         3.73784 
        1.81625         3.31136         1.42238         3.71834 
        1.82239         3.29244         1.41057         3.69765 
        1.82853         3.26362          1.3989         3.68107 
        1.83466         3.24065         1.38738         3.66309 
        1.84078         3.22271           1.376         3.64178 
        1.84692         3.21045         1.36472         3.61985 
        1.85306         3.18865         1.35356         3.59678 
         1.8592         3.17516         1.34254         3.57692 
        1.86533         3.15363         1.33165         3.56132 
        1.87147         3.14023         1.32087         3.54138 
