# k  (h/Mpc)    P(k)  (Mpc/h)^3    P_linear(k)  (Mpc/h)^3     P_NL(k)  ShotnoiseSubtracted = false
     0.00783031         3854.09         3884.54         3849.01 
       0.013688         4264.48         4328.61         4300.92 
       0.019231         3970.55         3996.98         3974.67 
      0.0249154         3380.52         3365.31          3353.8 
      0.0312784          2644.5         2640.47         2641.15 
      0.0375637         2075.48         2078.98         2081.68 
      0.0433917         1738.31         1730.21         1732.82 
      0.0492413         1518.03         1516.77         1519.32 
      0.0555754         1389.27         1381.57         1382.07 
      0.0619321         1270.75         1283.91         1283.34 
       0.067871         1184.04         1185.71         1184.76 
      0.0738098         1066.43         1064.67         1062.52 
      0.0800417          926.22         920.004         920.189 
      0.0862327         783.517         779.038         782.859 
      0.0921407         671.007         665.595         670.629 
      0.0982031         590.535         580.189         587.494 
       0.104506         527.533         524.047         532.343 
       0.110769          496.78         492.634         498.384 
       0.116806          481.13         473.807          478.01 
       0.122832         458.273         455.411         459.203 
       0.129052         433.484         429.337         432.535 
       0.135211         402.136         394.647         398.585 
       0.141259         360.934         355.382         360.851 
       0.147318          320.97          316.58         324.394 
       0.153489          289.17         282.813         289.742 
       0.159709         266.269         257.436         265.187 
       0.165845         245.494         240.816         249.817 
       0.171974         239.306         230.383         238.018 
       0.178125         230.565          222.91         230.846 
       0.184229         220.061         215.402         222.579 
        0.19034         212.328         205.782          212.34 
       0.196428         200.531         193.622         199.479 
       0.202534         183.658         179.733         186.307 
       0.208729         173.269         165.557         172.519 
       0.214876         162.075         152.975         161.527 
       0.220989         149.464         142.856         151.753 
       0.227147         144.044         135.213         143.829 
        0.23329         138.246         129.621         138.486 
       0.239377         134.378         125.215          133.67 
       0.245482         128.731         121.022         128.378 
       0.251667         122.912         116.345         124.105 
       0.257832         119.641         111.011         118.421 
       0.263955         112.107         105.205         112.492 
       0.270079         106.135         99.3087         106.772 
        0.27624         100.385         93.7467         101.089 
       0.282372         95.9993         88.9017         96.7102 
        0.28843         93.7167         84.9108         92.7528 
       0.294538         89.4466         81.5863         89.3212 
       0.300721         85.6246         78.7179         86.5193 
        0.30691         83.8141         76.0623         83.8082 
       0.313033         80.2704         73.4356         80.7516 
       0.319153         78.4485         70.6867         77.9549 
       0.325316         74.7788         67.8087         75.2283 
        0.33145         71.7567         64.9169         72.0674 
       0.337538         68.9739         62.1514         69.1845 
       0.343633         66.5834         59.5864          66.777 
       0.349808         64.0497         57.2585         64.6566 
       0.355968         61.9524         55.1987         62.8683 
       0.362074         60.5785          53.366         60.7316 
       0.368217         58.7331         51.6586         58.5824 
       0.374374         57.1405         50.0072          56.963 
       0.380519         54.7188         48.3769         55.1128 
       0.386598         53.0144         46.7624         53.5323 
       0.392688         51.1285         45.1567         51.9286 
        0.39888         50.0424         43.5692         50.2562 
       0.405048         48.6031          42.062         48.6514 
       0.411186         47.1429         40.6579         47.4457 
       0.417313         45.6758         39.3612         45.9159 
       0.423458         44.3176         38.1516         44.7457 
       0.429607         43.3873         37.0148         43.4821 
       0.435692         42.5669         35.9428         42.3752 
       0.441815         40.9068         34.8968         41.4433 
       0.447964         39.4277         33.8682         40.1987 
       0.454126         38.7116         32.8617          39.026 
       0.460267         38.1504         31.8862         38.2408 
       0.466387         36.9818         30.9477         37.0943 
        0.47254         36.3377         30.0453         36.2426 
       0.478662         35.0187         29.1939         35.3313 
       0.484765         34.2249         28.3885         34.3321 
       0.490885          33.183         27.6189         33.7281 
       0.497035         32.6153         26.8784         33.0379 
       0.503198         31.8861         26.1644          32.101 
       0.509342         30.9067         25.4756         31.4395 
       0.515458         30.3525         24.8088         30.8856 
       0.521598         29.5937         24.1584         29.9324 
       0.527764         29.1023         23.5264         29.1378 
       0.533884         28.4528          22.922         28.5368 
           0.54         27.7735         22.3412         27.9461 
       0.546137         26.8937         21.7808         27.4326 
       0.552299         26.3555         21.2394         26.6726 
       0.558452         25.7324         20.7193         26.1058 
       0.564573         25.4126         20.2204         25.7138 
       0.570708         24.7188          19.737         25.1838 
       0.576825         24.3599         19.2701         24.6431 
       0.582926         23.8817          18.818         24.1519 
       0.589034         23.3298         18.3787         23.7824 
       0.595184         22.9782         17.9499         23.1623 
       0.601379         22.3365         17.5322         22.8442 
       0.607522         21.8784         17.1318         22.2675 
       0.613639         21.5352         16.7466         21.8731 
       0.619772         21.0687         16.3729          21.507 
       0.625918         20.6606         16.0102         21.1214 
       0.632068         20.4134         15.6584         20.6716 
       0.638161         19.9337           15.32         20.3028 
         0.6443         19.6191          14.989          19.887 
       0.650464         19.0901         14.6665         19.5874 
       0.656582         18.9263         14.3557         19.2511 
       0.662703         18.6037         14.0539         18.8559 
       0.668861          18.121         13.7592          18.619 
       0.675024         17.8417         13.4729         18.1891 
       0.681124         17.7138         13.1978         17.8864 
       0.687237         17.3156         12.9299         17.5634 
       0.693381         16.9349         12.6682         17.2379 
       0.699536         16.7883         12.4134         17.0243 
       0.705665         16.4187         12.1667         16.7888 
       0.711789         16.1316         11.9269         16.4052 
       0.717957         15.7616         11.6919         16.1804 
        0.72409         15.5932         11.4646         15.9523 
       0.730186         15.4746         11.2448         15.6668 
       0.736317         15.1165         11.0296         15.4007 
       0.742472         14.9281         10.8192         15.2038 
       0.748622         14.6375         10.6146         14.9375 
        0.75476         14.2641         10.4158         14.7179 
       0.760888         14.2026         10.2224         14.5172 
       0.767043         13.9047         10.0332         14.3095 
       0.773185         13.7062         9.84926          14.079 
       0.779291         13.5348         9.67098         13.8969 
       0.785407         13.3204         9.49687         13.6614 
       0.791564         13.1913         9.32598         13.4723 
       0.797719         12.8496         9.15939         13.2906 
       0.803834         12.7977         8.99794         13.0686 
       0.809972         12.5222         8.83982         12.9101 
       0.816124         12.3675         8.68517         12.7095 
       0.822261         12.1974         8.53465         12.5246 
       0.828378         12.0513         8.38817         12.3367 
       0.834502         11.8925         8.24502         12.2003 
       0.840667         11.7444          8.1043          12.016 
       0.846816          11.478         7.96728         11.8579 
       0.852925         11.4136         7.83429         11.7492 
       0.859047          11.242         7.70408         11.5697 
       0.865192         11.0691         7.57641         11.4035 
       0.871341         10.9213         7.45157         11.2771 
       0.877463         10.7599         7.33011         11.1222 
       0.883569         10.6643         7.21168         10.9689 
       0.889708         10.4798         7.09528         10.8343 
       0.895864         10.3279         6.98116         10.6781 
       0.902008         10.2126         6.86979         10.5628 
       0.908149         10.0387         6.76094         10.4334 
       0.914301         9.95759         6.65427         10.3502 
       0.920448         9.81012         6.55001         10.1687 
       0.926574         9.71796         6.44837         10.0439 
       0.932687         9.55528          6.3491          9.8893 
       0.938823         9.41244         6.25157         9.78447 
       0.944975         9.34723         6.15588         9.68682 
       0.951105         9.22043         6.06254          9.5332 
       0.957225         9.13878         5.97131         9.45578 
       0.963368          8.9744         5.88165         9.33039 
       0.969511         8.87191         5.79384         9.22301 
       0.975621         8.78176         5.70831         9.11833 
       0.981748         8.65119         5.62428         9.01578 
       0.987916         8.58449         5.54143         8.89912 
        0.99406         8.45331         5.46056          8.8095 
        1.00019         8.38245         5.38148         8.72118 
        1.00632         8.30843         5.30403         8.62216 
        1.01246          8.1824           5.228         8.55191 
        1.01859         8.08871         5.15359         8.44342 
        1.02471         7.98434         5.08073         8.31958 
        1.03085          7.9318         5.00903         8.23798 
        1.03698          7.8482         4.93887         8.15946 
        1.04314         7.72843         4.86976         8.06275 
        1.04929         7.61865         4.80214         7.99297 
        1.05541         7.55941         4.73608         7.92488 
        1.06154         7.48241         4.67111         7.81557 
        1.06769          7.4052         4.60725         7.72327 
        1.07382         7.28831         4.54481         7.65718 
        1.07993          7.2257         4.48366         7.57508 
        1.08607         7.16437         4.42339         7.50444 
        1.09222          7.0698         4.36417         7.43441 
        1.09836         7.01078          4.3061         7.33669 
        1.10449         6.92641         4.24916         7.26397 
        1.11063         6.88199         4.19318         7.19852 
        1.11677         6.81182         4.13824         7.11783 
         1.1229         6.73575         4.08438          7.0623 
        1.12903         6.65913         4.03143         7.00222 
        1.13518         6.58504         3.97938         6.92266 
        1.14131         6.52652         3.92828         6.85066 
        1.14745         6.41904          3.8781         6.78609 
        1.15359         6.35033          3.8288         6.71403 
        1.15973         6.30567         3.78034         6.65167 
        1.16584         6.23851         3.73293         6.59862 
        1.17197         6.16332         3.68627         6.55145 
        1.17811         6.11314         3.64027         6.45965 
        1.18424         6.06221         3.59519         6.40692 
        1.19038         6.02176         3.55075         6.35298 
        1.19652          5.9435         3.50707         6.28564 
        1.20267         5.90555         3.46413         6.23524 
        1.20881         5.81043         3.42192         6.18232 
        1.21495         5.77523         3.38048         6.12498 
        1.22108         5.71721         3.33974         6.07347 
         1.2272         5.66014         3.29977         6.00861 
        1.23334         5.62932         3.26036         5.96423 
        1.23949         5.56631          3.2215         5.91127 
        1.24562         5.50179         3.18338         5.85551 
        1.25174         5.47443         3.14594         5.80645 
        1.25789         5.39956         3.10899         5.74845 
        1.26402         5.35743          3.0727         5.69968 
        1.27014         5.32882         3.03708         5.65438 
        1.27628         5.25655         3.00192         5.59614 
        1.28244         5.22963         2.96725         5.56056 
        1.28858         5.17082         2.93317         5.51068 
        1.29471         5.11017         2.89971         5.47037 
        1.30084         5.06526         2.86679         5.43608 
        1.30697         5.04053         2.83434         5.37345 
        1.31312         4.98766         2.80235          5.3312 
        1.31925         4.94822         2.77094         5.30089 
        1.32537         4.89879         2.74005         5.25881 
        1.33151         4.85656         2.70953          5.2114 
        1.33765         4.81426         2.67948         5.16006 
        1.34378         4.79395         2.64995         5.11883 
        1.34992         4.73857         2.62085         5.08526 
        1.35606         4.69135         2.59212         5.03908 
         1.3622         4.64846         2.56387         4.99341 
        1.36833         4.62349         2.53611         4.97495 
        1.37445         4.58038         2.50878         4.92643 
        1.38059         4.52947         2.48176         4.87858 
        1.38675         4.50397         2.45508         4.85226 
        1.39288         4.46329          2.4289         4.81592 
        1.39901         4.41628         2.40312          4.7763 
        1.40515         4.38402         2.37765         4.73766 
         1.4113         4.34925         2.35256          4.7027 
        1.41742         4.32381         2.32793         4.67136 
        1.42355         4.27448          2.3036         4.63565 
         1.4297         4.24218         2.27955         4.59496 
        1.43585          4.2154         2.25585         4.56816 
        1.44198         4.18205         2.23258         4.53028 
        1.44809         4.14524         2.20969         4.49758 
        1.45423         4.10932         2.18703         4.46518 
        1.46036         4.08042         2.16472         4.43152 
        1.46649         4.05185         2.14273         4.40363 
        1.47263         4.01878         2.12102         4.37575 
        1.47877         3.98361         2.09962         4.33356 
        1.48491         3.96159         2.07848         4.30537 
        1.49104         3.92687         2.05768         4.27933 
        1.49718         3.90284         2.03715         4.24746 
        1.50333         3.86934         2.01687         4.21701 
        1.50947          3.8371          1.9969         4.18981 
         1.5156          3.8133         1.97724         4.16312 
        1.52172         3.77507         1.95783         4.13285 
        1.52787         3.76123         1.93866         4.09549 
          1.534         3.72372         1.91976         4.06981 
        1.54013         3.70692         1.90113         4.04121 
        1.54627         3.67136         1.88272         4.01292 
        1.55241         3.63392         1.86454         3.98849 
        1.55855          3.6217         1.84664         3.95607 
        1.56467          3.6029         1.82901          3.9357 
         1.5708         3.55976         1.81157         3.91542 
        1.57695         3.53576         1.79433         3.88236 
        1.58308         3.50731         1.77735         3.85598 
        1.58922         3.49353         1.76058         3.83899 
        1.59535         3.46838         1.74403         3.81651 
         1.6015         3.42465         1.72767         3.78564 
        1.60764         3.40717         1.71153         3.75724 
        1.61376         3.38923         1.69564         3.73746 
        1.61989         3.35724         1.67994         3.71553 
        1.62604         3.34456          1.6644         3.69039 
        1.63218         3.31931         1.64907         3.66948 
        1.63831         3.29393         1.63397         3.64848 
        1.64444         3.26753         1.61905         3.61865 
        1.65059         3.24298         1.60428         3.59686 
        1.65673         3.23006         1.58971         3.57661 
        1.66285         3.20283         1.57536         3.55347 
        1.66898         3.18645         1.56119         3.52868 
        1.67512         3.16493         1.54716         3.50713 
        1.68127         3.12939          1.5333         3.48797 
         1.6874         3.11749         1.51963         3.47037 
        1.69353         3.08871         1.50614           3.451 
        1.69967          3.0741         1.49278         3.42295 
        1.70581         3.04911         1.47958         3.40189 
        1.71193         3.03302          1.4666         3.38788 
        1.71806         3.00996         1.45375          3.3662 
        1.72421         2.98947         1.44102         3.34475 
        1.73035         2.97456         1.42846         3.32548 
        1.73649         2.95587         1.41605          3.3061 
        1.74262         2.92684          1.4038         3.28525 
        1.74876         2.91717         1.39169         3.26637 
        1.75489         2.89783         1.37974         3.24578 
        1.76101         2.86949         1.36794         3.22366 
        1.76715         2.86668         1.35626         3.20944 
        1.77329         2.83957          1.3447         3.19206 
        1.77943         2.81273         1.33328         3.17075 
        1.78557         2.81236           1.322         3.15163 
        1.79171          2.7863         1.31085         3.13213 
        1.79785         2.77414         1.29982         3.11378 
        1.80399         2.75245         1.28893         3.09904 
        1.81012         2.73497         1.27818         3.08474 
        1.81625         2.71621         1.26755         3.06777 
        1.82239         2.70152         1.25703         3.05054 
        1.82853         2.67856         1.24663         3.03679 
        1.83466         2.65674         1.23636         3.02108 
        1.84078         2.64227         1.22621         3.00222 
        1.84692         2.62902         1.21617         2.98364 
        1.85306         2.61134         1.20622         2.96377 
         1.8592         2.60021          1.1964         2.94686 
        1.86533         2.58327          1.1867         2.93459 
        1.87147         2.57218         1.17709         2.91779 
        1.87761         2.55234         1.16758         2.90148 
