# k  (h/Mpc)    Pcb(k)  (Mpc/h)^3    Pcb_linear(k) (Mpc/h)^3    Pcb_NL(k) (Mpc/h)^3   ShotnoiseSubtracted = false
     0.00783031         11754.9           11834         11723.9 
       0.013688           12893           13181         13087.8 
       0.019231           12032           12169         12089.5 
      0.0249154         10314.6         10244.9         10194.9 
      0.0312784         8030.81         8037.79         8022.03 
      0.0375637          6291.7         6328.33          6326.1 
      0.0433917         5291.04         5266.56         5263.15 
      0.0492413          4615.4          4616.8          4615.4 
      0.0555754         4233.44         4205.22         4201.74 
      0.0619321         3837.39         3907.93         3902.58 
       0.067871         3592.06            3609         3606.24 
      0.0738098         3249.63         3240.56         3225.72 
      0.0800417         2831.16         2800.23         2800.95 
      0.0862327          2398.7         2371.16         2399.12 
      0.0921407         2069.55         2025.86          2061.7 
      0.0982031         1835.39         1765.91         1820.82 
       0.104506         1633.41         1595.03         1659.98 
       0.110769         1540.57         1499.42         1545.49 
       0.116806         1495.46         1442.11          1477.9 
       0.122832         1419.33         1386.12         1419.28 
       0.129052         1338.04         1306.76         1335.84 
       0.135211         1257.43         1201.17          1235.1 
       0.141259         1128.56         1081.66         1127.99 
       0.147318         1009.49         963.559         1027.04 
       0.153489         917.483         860.782         917.741 
       0.159709         858.392         783.542          847.64 
       0.165845         786.989         732.958         806.696 
       0.171974          772.26         701.203         765.792 
       0.178125         745.243         678.456         745.562 
       0.184229         700.186         655.604         715.823 
        0.19034          680.31         626.325         682.102 
       0.196428         649.022         589.312         641.497 
       0.202534         593.708          547.04         604.665 
       0.208729         571.943         503.892         562.114 
       0.214876         537.607         465.599         535.586 
       0.220989         498.493         434.799         508.087 
       0.227147         483.786         411.537         484.308 
        0.23329         464.416          394.52         468.994 
       0.239377         456.706         381.108          451.53 
       0.245482          433.84         368.347         431.962 
       0.251667         415.628         354.112         420.105 
       0.257832         407.703         337.876         401.058 
       0.263955         382.388         320.204         383.005 
       0.270079         364.399         302.258         366.674 
        0.27624         347.179          285.33         349.232 
       0.282372         336.435         270.586         336.739 
        0.28843         331.939         258.436         324.998 
       0.294538         314.442         248.318         314.539 
       0.300721         303.912         239.588         305.732 
        0.30691         298.154         231.506         297.984 
       0.313033         283.476         223.509         286.994 
       0.319153         278.084         215.143         277.826 
       0.325316         270.589         206.384          269.57 
        0.33145         262.092         197.583         258.504 
       0.337538         251.511         189.165         249.848 
       0.343633          243.12         181.359         244.656 
       0.349808         235.709         174.273          238.31 
       0.355968          230.43         168.004         232.588 
       0.362074         222.614         162.426         225.862 
       0.368217         219.416         157.229         218.301 
       0.374374          213.75         152.203          212.61 
       0.380519         204.712         147.241         206.518 
       0.386598         201.021         142.327         202.754 
       0.392688         194.605          137.44         196.321 
        0.39888          190.27         132.608          191.26 
       0.405048         185.217         128.021         187.417 
       0.411186         183.284         123.748         182.002 
       0.417313         179.036           119.8         177.079 
       0.423458         174.373         116.119         173.492 
       0.429607         169.122         112.659         169.834 
       0.435692         166.209         109.396         165.422 
       0.441815         162.393         106.212         163.054 
       0.447964         157.232         103.082         159.337 
       0.454126          154.65         100.018         154.431 
       0.460267         152.603         97.0496         152.751 
       0.466387         148.422         94.1929         149.176 
        0.47254         146.605         91.4467         146.065 
       0.478662         142.011         88.8548         143.087 
       0.484765         139.635         86.4039         139.302 
       0.490885         137.112         84.0614         137.185 
       0.497035          135.08         81.8075         134.985 
       0.503198          133.14         79.6345         132.424 
       0.509342         129.663          77.538         130.233 
       0.515458         127.271         75.5087         128.362 
       0.521598         124.041         73.5289          125.16 
       0.527764         122.995         71.6055         123.055 
       0.533884         121.691         69.7657         121.149 
           0.54         118.612         67.9982         118.733 
       0.546137         115.732         66.2923         117.187 
       0.552299         113.946         64.6447         114.516 
       0.558452         112.021         63.0616         112.482 
       0.564573         111.307         61.5431         111.289 
       0.570708         108.201          60.072         109.645 
       0.576825         106.719         58.6508         107.302 
       0.582926         105.553         57.2749         105.701 
       0.589034         103.542         55.9376         104.588 
       0.595184         102.194         54.6327         102.365 
       0.601379         100.291         53.3612         101.221 
       0.607522         97.8472         52.1427         99.1831 
       0.613639         97.1075         50.9702         98.2521 
       0.619772         95.6251         49.8328          96.785 
       0.625918         94.7285         48.7289         95.2526 
       0.632068         92.3779          47.658         93.7246 
       0.638161         91.4988         46.6282         92.8625 
         0.6443         90.6613         45.6207         91.4093 
       0.650464         88.5861         44.6391         89.4373 
       0.656582         87.9999         43.6932         88.7408 
       0.662703         86.9165         42.7747         87.3057 
       0.668861         85.0217         41.8778         86.3542 
       0.675024         84.8344         41.0065         85.0622 
       0.681124         83.3197          40.169          83.887 
       0.687237            82.2         39.3536         82.8074 
       0.693381          80.895         38.5572         81.5585 
       0.699536         80.1869         37.7816         80.7536 
       0.705665         79.1213         37.0307         80.0678 
       0.711789          77.821         36.3009         78.7295 
       0.717957         76.8451         35.5858         77.8038 
        0.72409         75.9173          34.894          77.175 
       0.730186         75.6435         34.2249         76.2939 
       0.736317         74.5647         33.5698         75.0847 
       0.742472         73.0894         32.9296         74.2889 
       0.748622         71.9863         32.3069          73.322 
        0.75476         72.0548         31.7017         72.4202 
       0.760888         71.1639         31.1132         71.3917 
       0.767043         69.7382         30.5373         70.9663 
       0.773185         68.7266         29.9774          70.347 
       0.779291         68.1044         29.4347           69.42 
       0.785407         67.4582         28.9048         68.4712 
       0.791564         66.8473         28.3847         67.8672 
       0.797719         65.7085         27.8777         67.3947 
       0.803834         65.4886         27.3863         66.3953 
       0.809972          64.827          26.905         65.7046 
       0.816124         63.6816         26.4343         65.1527 
       0.822261         63.0066         25.9762         64.3767 
       0.828378         62.7722         25.5304         63.5288 
       0.834502         62.0598         25.0947         62.9654 
       0.840667         61.4637         24.6664         62.5958 
       0.846816         60.7017         24.2493         61.9456 
       0.852925          60.031         23.8446          61.307 
       0.859047         59.5293         23.4483         60.6391 
       0.865192         58.8599         23.0597         60.0806 
       0.871341         58.3043         22.6797         59.4263 
       0.877463         57.7029           22.31          58.896 
       0.883569         57.5768         21.9496         58.5816 
       0.889708          56.901         21.5953         57.9095 
       0.895864         56.4098          21.248         57.4771 
       0.902008         55.6229          20.909         56.7778 
       0.908149         54.9638         20.5777         56.3428 
       0.914301         54.6833          20.253         55.8827 
       0.920448         54.6074         19.9357         55.4024 
       0.926574         53.3806         19.6263         54.8379 
       0.932687         53.1491         19.3242         54.4069 
       0.938823         52.7546         19.0274         53.8107 
       0.944975         52.1002         18.7361         53.3554 
       0.951105          51.608          18.452         52.9408 
       0.957225         51.3745         18.1744         52.5065 
       0.963368         50.8212         17.9015          51.996 
       0.969511         50.4691         17.6342         51.5667 
       0.975621         49.7706         17.3739          51.408 
       0.981748         49.4886         17.1182         50.9637 
       0.987916         48.9757          16.866         50.5615 
        0.99406         48.8249         16.6198         49.9976 
        1.00019         48.1655         16.3791         49.5185 
        1.00632          47.737         16.1434         49.1502 
        1.01246         47.4524          15.912         48.7132 
        1.01859         47.1555         15.6856         48.5457 
        1.02471          46.771         15.4638         48.2507 
        1.03085         46.2724         15.2456         47.7325 
        1.03698         45.9444          15.032         47.3414 
        1.04314         45.5842         14.8217         46.9299 
        1.04929         45.1772         14.6159         46.6791 
        1.05541         44.8287         14.4148         46.4599 
        1.06154         44.4378          14.217         46.0456 
        1.06769          44.132         14.0227         45.6965 
        1.07382         43.6696         13.8326         45.3864 
        1.07993         43.5163         13.6465         45.0617 
        1.08607         43.1114         13.4631         44.7439 
        1.09222          42.889         13.2828         44.3628 
        1.09836         42.5289         13.1061         44.0206 
        1.10449         42.2084         12.9328         43.7607 
        1.11063         41.8539         12.7624         43.3066 
        1.11677         41.7221         12.5952          43.002 
         1.1229         41.2064         12.4313         42.8784 
        1.12903         41.0033         12.2701         42.5281 
        1.13518         40.6863         12.1117         42.2044 
        1.14131         40.3885         11.9562         41.9156 
        1.14745         40.1817         11.8035         41.7078 
        1.15359         39.6585         11.6534         41.3644 
        1.15973         39.6166         11.5059         41.1828 
        1.16584         39.2921         11.3616         40.7258 
        1.17197         38.9689         11.2196         40.6267 
        1.17811         38.7081         11.0796         40.3049 
        1.18424         38.2134         10.9424         40.0799 
        1.19038         38.0612         10.8071         39.7693 
        1.19652         37.8977         10.6742         39.4873 
        1.20267         37.5214         10.5435         39.3123 
        1.20881         37.2815          10.415          39.044 
        1.21495         37.0942         10.2889         38.7681 
        1.22108         36.9962         10.1649         38.5819 
         1.2272         36.5725         10.0432          38.339 
        1.23334         36.4489         9.92326          38.126 
        1.23949         36.1347         9.80499         37.7953 
        1.24562          35.863         9.68899         37.5418 
        1.25174         35.7061         9.57504         37.4094 
        1.25789           35.48         9.46257         37.1394 
        1.26402         35.2139         9.35212         36.9314 
        1.27014         35.0531         9.24371         36.7936 
        1.27628         34.7544         9.13669         36.5085 
        1.28244          34.743         9.03116         36.2503 
        1.28858         34.3474         8.92745           36.04 
        1.29471         34.0302         8.82559         35.9056 
        1.30084         33.7554         8.72541         35.6151 
        1.30697         33.7432         8.62664         35.4281 
        1.31312         33.5266         8.52925         35.2678 
        1.31925         33.2226         8.43368         35.0172 
        1.32537         33.0147         8.33966         34.8805 
        1.33151         32.8126         8.24675         34.6365 
        1.33765         32.6843          8.1553         34.4366 
        1.34378         32.4728         8.06542         34.2745 
        1.34992         32.2452         7.97684          34.066 
        1.35606         31.9438         7.88939         33.8873 
         1.3622         31.8621         7.80342         33.7153 
        1.36833         31.7424         7.71893         33.5677 
        1.37445         31.4221         7.63574         33.3759 
        1.38059         31.2521         7.55353          33.217 
        1.38675         31.0819         7.47232         33.0077 
        1.39288         30.9473         7.39264         32.8338 
        1.39901         30.6787         7.31416         32.6618 
        1.40515          30.533         7.23664         32.5418 
         1.4113         30.4419         7.16027         32.3626 
        1.41742         30.2088          7.0853         32.0993 
        1.42355         30.0058         7.01127         32.0022 
         1.4297         29.9386         6.93807          31.804 
        1.43585         29.7404         6.86594         31.6536 
        1.44198         29.4866         6.79512         31.5048 
        1.44809         29.2577         6.72542         31.3052 
        1.45423         29.2076         6.65646         31.1425 
        1.46036         29.0886         6.58858         31.0016 
        1.46649         28.7988         6.52162         30.8791 
        1.47263         28.6583         6.45555         30.7449 
        1.47877         28.5163         6.39042         30.5479 
        1.48491         28.3039         6.32609         30.3928 
        1.49104         28.2072         6.26278         30.2774 
        1.49718         28.0502         6.20029          30.136 
        1.50333         27.9458         6.13856         29.9545 
        1.50947         27.6787         6.07779         29.8006 
         1.5156         27.6465         6.01794         29.6735 
        1.52172         27.3974         5.95889          29.541 
        1.52787         27.3703         5.90052         29.4051 
          1.534         27.0936           5.843         29.2507 
        1.54013         27.1234          5.7863         29.0899 
        1.54627         26.8396         5.73026         28.9492 
        1.55241         26.7578         5.67495         28.8205 
        1.55855         26.5772         5.62044         28.6902 
        1.56467         26.3456         5.56681         28.5865 
         1.5708         26.3665         5.51371         28.4566 
        1.57695         26.1956         5.46124         28.3202 
        1.58308         26.0157         5.40956         28.1893 
        1.58922         25.8465         5.35852         28.0346 
        1.59535         25.8227         5.30815         27.9187 
         1.6015         25.7272         5.25836         27.7696 
        1.60764         25.4902         5.20923         27.6345 
        1.61376          25.342         5.16087         27.5574 
        1.61989         25.1819         5.11308         27.4252 
        1.62604         25.0616         5.06579         27.2903 
        1.63218         24.8332         5.01913         27.1718 
        1.63831         24.8191         4.97316          27.062 
        1.64444         24.6997         4.92775         26.9414 
        1.65059         24.5361          4.8828         26.8064 
        1.65673         24.4418         4.83846         26.6905 
        1.66285         24.3338         4.79479         26.6029 
        1.66898         24.2123         4.75165         26.5071 
        1.67512         24.0215         4.70896         26.3521 
        1.68127          23.966         4.66675         26.2207 
         1.6874         23.8922         4.62516         26.1176 
        1.69353         23.6874         4.58409         25.9966 
        1.69967         23.6138         4.54343         25.8887 
        1.70581         23.4936         4.50328         25.8048 
        1.71193         23.3603         4.46376          25.707 
        1.71806         23.2782         4.42464         25.5564 
        1.72421          23.101          4.3859         25.4535 
        1.73035         23.0576         4.34767         25.3818 
        1.73649         22.8978         4.30991         25.2829 
        1.74262         22.7482         4.27263          25.129 
        1.74876         22.7862         4.23576          25.001 
        1.75489         22.5344          4.1994         24.9193 
        1.76101         22.5209         4.16348          24.847 
        1.76715         22.3018         4.12793          24.735 
        1.77329         22.2019         4.09275         24.6256 
        1.77943         22.1907         4.05797         24.5311 
        1.78557         22.0909         4.02364         24.4322 
        1.79171          21.935         3.98971         24.3296 
        1.79785         21.8606         3.95616         24.2378 
        1.80399         21.7098           3.923         24.1582 
        1.81012         21.6167         3.89027         24.0462 
        1.81625         21.4892         3.85792         23.9278 
        1.82239         21.3841          3.8259         23.8395 
        1.82853         21.3273         3.79425         23.7689 
        1.83466         21.1777         3.76299         23.6685 
        1.84078         21.0975         3.73212         23.5482 
        1.84692         20.9677         3.70154          23.461 
        1.85306         20.8892         3.67127         23.3858 
         1.8592         20.7787         3.64138         23.2979 
        1.86533         20.7115         3.61185         23.1998 
        1.87147         20.6083          3.5826          23.103 
