# k  (h/Mpc)    P(k)  (Mpc/h)^3    P_linear(k)  (Mpc/h)^3     P_NL(k)  ShotnoiseSubtracted = false
     0.00783031         198.057         199.913          198.04 
       0.013688         221.215         222.968         221.584 
       0.019231         205.434         205.951         204.879 
      0.0249154         173.596         173.432         172.928 
      0.0312784          136.43         136.091          136.23 
      0.0375637         107.374         107.158         107.369 
      0.0433917         89.5054         89.1838         89.3895 
      0.0492413         78.3239         78.1839         78.3596 
      0.0555754          71.382          71.216         71.2549 
      0.0619321         66.0089         66.1828         66.1465 
       0.067871         61.0733         61.1213         61.0426 
      0.0738098          54.863         54.8823         54.8064 
      0.0800417         47.4898         47.4254         47.4056 
      0.0862327         40.2212          40.159         40.1999 
      0.0921407         34.3624         34.3113         34.3808 
      0.0982031         30.0269         29.9088         29.9978 
       0.104506         27.0294         27.0147         27.0952 
       0.110769         25.4016         25.3954         25.4451 
       0.116806         24.4545         24.4248         24.4389 
       0.122832         23.4443         23.4765         23.4742 
       0.129052         22.1289         22.1324         22.1212 
       0.135211         20.3676         20.3442         20.3419 
       0.141259         18.3251         18.3201         18.3372 
       0.147318         16.3139         16.3199         16.3612 
       0.153489         14.6003         14.5792         14.6227 
       0.159709         13.3031          13.271         13.3206 
       0.165845         12.4003         12.4143         12.4664 
       0.171974         11.9083         11.8764         11.9154 
       0.178125          11.503         11.4912         11.5265 
       0.184229         11.0937         11.1041         11.1312 
        0.19034         10.6267         10.6082         10.6305 
       0.196428         9.99079         9.98137         10.0006 
       0.202534          9.2431         9.26538         9.29108 
       0.208729         8.54795          8.5346         8.56672 
       0.214876         7.91872         7.88602         7.92838 
       0.220989         7.36774         7.36436         7.40943 
       0.227147         6.99979         6.97036         7.01246 
        0.23329         6.70947         6.68211         6.72438 
       0.239377          6.4815         6.45498         6.49384 
       0.245482         6.26172         6.23881         6.27001 
       0.251667         6.00423         5.99772         6.03083 
       0.257832         5.74681         5.72275          5.7541 
       0.263955         5.43634         5.42343         5.45446 
       0.270079         5.13157         5.11947         5.15198 
        0.27624         4.83769         4.83274         4.86527 
       0.282372         4.58997         4.58299         4.61945 
        0.28843         4.39908         4.37725         4.41405 
       0.294538         4.22496         4.20587         4.24103 
       0.300721         4.06465           4.058         4.09321 
        0.30691         3.93867          3.9211         3.95566 
       0.313033         3.80043         3.78569         3.81759 
       0.319153         3.67425         3.64398         3.67591 
       0.325316         3.50318         3.49561         3.52861 
        0.33145         3.35483         3.34654         3.37829 
       0.337538         3.21591         3.20398          3.2352 
       0.343633         3.09048         3.07175         3.10266 
       0.349808         2.96531         2.95175          2.9845 
       0.355968         2.85599         2.84556          2.8814 
       0.362074         2.76877         2.75108         2.78399 
       0.368217         2.67838         2.66306         2.69257 
       0.374374         2.60019         2.57793         2.60874 
       0.380519           2.508         2.49389         2.52283 
       0.386598         2.42102         2.41066         2.44015 
       0.392688         2.33475         2.32788         2.35724 
        0.39888         2.25854         2.24605         2.27597 
       0.405048         2.18201         2.16835         2.19574 
       0.411186         2.10801         2.09596         2.12591 
       0.417313         2.04184         2.02912         2.05835 
       0.423458         1.97431         1.96676         1.99597 
       0.429607         1.92252         1.90816         1.93591 
       0.435692         1.86796         1.85289         1.88111 
       0.441815         1.81141         1.79897         1.82819 
       0.447964         1.75256         1.74595         1.77347 
       0.454126         1.70644         1.69406         1.72125 
       0.460267         1.65892         1.64377         1.67203 
       0.466387         1.60943         1.59539          1.6218 
        0.47254         1.56469         1.54887         1.57547 
       0.478662         1.51855         1.50498         1.53072 
       0.484765         1.47813         1.46346          1.4889 
       0.490885         1.43514         1.42379         1.45132 
       0.497035         1.39366         1.38561         1.41357 
       0.503198         1.36128         1.34881         1.37399 
       0.509342         1.32135          1.3133         1.33877 
       0.515458         1.29015         1.27893         1.30548 
       0.521598         1.25737          1.2454         1.26952 
       0.527764         1.22781         1.21282         1.23683 
       0.533884          1.1902         1.18166         1.20522 
           0.54         1.16249         1.15172         1.17486 
       0.546137         1.13152         1.12283         1.14684 
       0.552299         1.10483         1.09492         1.11651 
       0.558452         1.07786         1.06811         1.09029 
       0.564573         1.05211         1.04239         1.06639 
       0.570708         1.02769         1.01747         1.04055 
       0.576825         1.00382          0.9934         1.01565 
       0.582926        0.978341        0.970093        0.992709 
       0.589034        0.958697        0.947443        0.971097 
       0.595184        0.937561        0.925342        0.945698 
       0.601379        0.913804        0.903805        0.926723 
       0.607522        0.892016        0.883168        0.905251 
       0.613639        0.870777        0.863308        0.884733 
       0.619772         0.85398        0.844043        0.866347 
       0.625918        0.835042        0.825347        0.846337 
       0.632068        0.816777        0.807208        0.827491 
       0.638161         0.79867        0.789765        0.810302 
         0.6443        0.781147        0.772702        0.792427 
       0.650464         0.76562        0.756075        0.777005 
       0.656582        0.750292        0.740055        0.760361 
       0.662703        0.733996        0.724497        0.744121 
       0.668861        0.716288        0.709306        0.729631 
       0.675024         0.70251        0.694547        0.714413 
       0.681124        0.691979        0.680363        0.699507 
       0.687237        0.675833        0.666552        0.684654 
       0.693381        0.660273        0.653063         0.67061 
       0.699536        0.649568        0.639926        0.657781 
       0.705665        0.636835        0.627207        0.646589 
       0.711789        0.622111        0.614846        0.633474 
       0.717957         0.61089        0.602734        0.620471 
        0.72409        0.598917        0.591017        0.609058 
       0.730186        0.589623        0.579684         0.59702 
       0.736317        0.575929        0.568589        0.585335 
       0.742472        0.566672        0.557746        0.575471 
       0.748622        0.556378        0.547198        0.565254 
        0.75476        0.544775        0.536949        0.553891 
       0.760888        0.536102         0.52698        0.543818 
       0.767043        0.522532        0.517227        0.534281 
       0.773185        0.514923        0.507742        0.525016 
       0.779291        0.507488        0.498551        0.515557 
       0.785407        0.497498        0.489576        0.506077 
       0.791564         0.48809        0.480766         0.49723 
       0.797719        0.479425        0.472178        0.487856 
       0.803834        0.470977        0.463855        0.479703 
       0.809972        0.463018        0.455704        0.472213 
       0.816124        0.454751        0.447732        0.463312 
       0.822261        0.447458        0.439973        0.455122 
       0.828378        0.439484        0.432421        0.447736 
       0.834502        0.431671        0.425042        0.439811 
       0.840667        0.425294        0.417787        0.432836 
       0.846816         0.41771        0.410724        0.426558 
       0.852925        0.410103        0.403868        0.418855 
       0.859047        0.403453        0.397155        0.412837 
       0.865192        0.397149        0.390574        0.405551 
       0.871341        0.391362        0.384138        0.398835 
       0.877463        0.383651        0.377877        0.392131 
       0.883569        0.377941        0.371772        0.386507 
       0.889708        0.372335        0.365771        0.380373 
       0.895864        0.366423        0.359888        0.374042 
       0.902008         0.35994        0.354147        0.368306 
       0.908149         0.35489        0.348535        0.362551 
       0.914301        0.349955        0.343036        0.356793 
       0.920448        0.344557        0.337662        0.351273 
       0.926574        0.339622        0.332422        0.346223 
       0.932687        0.334504        0.327304        0.340293 
       0.938823        0.328156        0.322277        0.336131 
       0.944975        0.323821        0.317344        0.330266 
       0.951105        0.317953        0.312532        0.325435 
       0.957225        0.313445        0.307829        0.320973 
       0.963368        0.309424        0.303207        0.315988 
       0.969511        0.305229         0.29868        0.311524 
       0.975621        0.299856        0.294271        0.306389 
       0.981748        0.294759        0.289939        0.301916 
       0.987916        0.290974        0.285668        0.298362 
        0.99406        0.287269        0.281499         0.29435 
        1.00019        0.282932        0.277422        0.289984 
        1.00632        0.279614         0.27343         0.28544 
        1.01246        0.275506        0.269511        0.281395 
        1.01859        0.271592        0.265675        0.277902 
        1.02471        0.267178        0.261918        0.273958 
        1.03085        0.263019        0.258222        0.269672 
        1.03698        0.260137        0.254605        0.265877 
        1.04314        0.256266        0.251043        0.262345 
        1.04929        0.253468        0.247557        0.258898 
        1.05541        0.249094        0.244151        0.255662 
        1.06154        0.246085        0.240802        0.252167 
        1.06769        0.242957         0.23751        0.248831 
        1.07382        0.239644        0.234291        0.245414 
        1.07993        0.236574        0.231139        0.242123 
        1.08607        0.233233        0.228032         0.23924 
        1.09222        0.230101        0.224979        0.235667 
        1.09836          0.2271        0.221985        0.232818 
        1.10449        0.223842         0.21905         0.22985 
        1.11063        0.220945        0.216164        0.226546 
        1.11677        0.218484        0.213332        0.224007 
         1.1229        0.215038        0.210555        0.221064 
        1.12903        0.212624        0.207826        0.218206 
        1.13518        0.209907        0.205142         0.21538 
        1.14131        0.207387        0.202508        0.212778 
        1.14745        0.205453        0.199922          0.2097 
        1.15359        0.202231         0.19738        0.207512 
        1.15973        0.200014        0.194882        0.205015 
        1.16584        0.197313        0.192438        0.202129 
        1.17197        0.194527        0.190032        0.199955 
        1.17811        0.192057        0.187661        0.197596 
        1.18424        0.189827        0.185337        0.194894 
        1.19038        0.187169        0.183046        0.192555 
        1.19652          0.1856        0.180794        0.190451 
        1.20267        0.183311        0.178581         0.18778 
        1.20881        0.180345        0.176405        0.185758 
        1.21495        0.178527        0.174268        0.183945 
        1.22108        0.176584        0.172168        0.181334 
         1.2272        0.174133        0.170107        0.179113 
        1.23334        0.172224        0.168076        0.177135 
        1.23949        0.170492        0.166073        0.175197 
        1.24562        0.168381        0.164108        0.173164 
        1.25174        0.166519        0.162178        0.171059 
        1.25789        0.164013        0.160273        0.169146 
        1.26402        0.162693        0.158402        0.167228 
        1.27014        0.160272        0.156566        0.165153 
        1.27628        0.158781        0.154753        0.163181 
        1.28244        0.156926        0.152966        0.161462 
        1.28858        0.154884        0.151209        0.159513 
        1.29471        0.153309        0.149484        0.157831 
        1.30084        0.151458        0.147787         0.15635 
        1.30697        0.150201        0.146114        0.154499 
        1.31312        0.148492        0.144465        0.152681 
        1.31925        0.146637        0.142846        0.151148 
        1.32537        0.145069        0.141254        0.149544 
        1.33151        0.143474         0.13968        0.147902 
        1.33765        0.141805        0.138131        0.146274 
        1.34378        0.140131        0.136609        0.144651 
        1.34992        0.139019        0.135108         0.14312 
        1.35606        0.137241        0.133627        0.141457 
         1.3622        0.135826        0.132171        0.140007 
        1.36833        0.134623         0.13074         0.13864 
        1.37445        0.133207        0.129331        0.137222 
        1.38059        0.131698        0.127938        0.135686 
        1.38675        0.130041        0.126563        0.134147 
        1.39288        0.128458        0.125213        0.132724 
        1.39901        0.127529        0.123884        0.131406 
        1.40515        0.126046        0.122571         0.13002 
         1.4113        0.124953        0.121278         0.12883 
        1.41742        0.123697        0.120008        0.127699 
        1.42355        0.121856        0.118754        0.125916 
         1.4297        0.121121        0.117514        0.125014 
        1.43585          0.1196        0.116292        0.123554 
        1.44198        0.118591        0.115093        0.122036 
        1.44809        0.117294        0.113912        0.121243 
        1.45423        0.116032        0.112744         0.11967 
        1.46036        0.114908        0.111594        0.118596 
        1.46649        0.113704         0.11046        0.117613 
        1.47263        0.112199        0.109341        0.116332 
        1.47877        0.111805        0.108238        0.115255 
        1.48491        0.110151        0.107149        0.114214 
        1.49104        0.109598        0.106076        0.112745 
        1.49718         0.10825        0.105018        0.112014 
        1.50333         0.10722        0.103972        0.110641 
        1.50947        0.106204        0.102943        0.109502 
         1.5156         0.10513        0.101929        0.108674 
        1.52172        0.104131        0.100929        0.107488 
        1.52787        0.102861       0.0999404        0.106432 
          1.534        0.102125       0.0989662        0.105563 
        1.54013        0.101049       0.0980059        0.104518 
        1.54627        0.100281       0.0970567        0.103445 
        1.55241       0.0992383       0.0961199        0.102474 
        1.55855       0.0983034       0.0951967        0.101489 
        1.56467       0.0974269       0.0942882        0.100609 
         1.5708        0.096417        0.093389       0.0995762 
        1.57695       0.0955396       0.0925001       0.0985536 
        1.58308       0.0943407       0.0916248       0.0977768 
        1.58922       0.0937681       0.0907603       0.0969505 
        1.59535         0.09279       0.0899072        0.095984 
         1.6015       0.0920524       0.0890639       0.0949847 
        1.60764        0.091056       0.0882318       0.0942351 
        1.61376       0.0902996       0.0874126        0.093591 
        1.61989       0.0893981       0.0866032       0.0926539 
        1.62604       0.0885779       0.0858022        0.091749 
        1.63218       0.0878859       0.0850118       0.0909567 
        1.63831       0.0870279       0.0842333       0.0901319 
        1.64444       0.0862913       0.0834641       0.0892247 
        1.65059       0.0852617       0.0827028       0.0884654 
        1.65673       0.0846872       0.0819518       0.0877424 
        1.66285       0.0840213       0.0812122       0.0869635 
        1.66898       0.0830677       0.0804815       0.0861396 
        1.67512       0.0824172       0.0797584       0.0853782 
        1.68127       0.0816428       0.0790435       0.0846448 
         1.6874       0.0810193        0.078339       0.0839776 
        1.69353       0.0802248       0.0776435        0.083343 
        1.69967       0.0794091       0.0769547       0.0824492 
        1.70581       0.0789968       0.0762747       0.0816531 
        1.71193       0.0783194       0.0756054        0.081022 
        1.71806       0.0774885       0.0749427       0.0803076 
        1.72421       0.0767596       0.0742866       0.0797193 
        1.73035       0.0761972       0.0736391       0.0790288 
        1.73649       0.0755331       0.0729995       0.0781995 
        1.74262        0.074834        0.072368       0.0775781 
        1.74876       0.0743275       0.0717435       0.0770456 
        1.75489       0.0735908       0.0711277       0.0764029 
        1.76101       0.0730277       0.0705193       0.0756765 
        1.76715       0.0724216       0.0699172       0.0751281 
        1.77329       0.0717016       0.0693214       0.0745467 
        1.77943       0.0710915       0.0687322       0.0738698 
        1.78557       0.0706645       0.0681508       0.0731982 
        1.79171       0.0700286        0.067576       0.0725396 
        1.79785       0.0693109       0.0670078       0.0719689 
        1.80399        0.068697       0.0664462       0.0714757 
        1.81012       0.0682813       0.0658918       0.0707563 
        1.81625       0.0677337       0.0653439        0.070133 
        1.82239       0.0672937       0.0648015       0.0697287 
        1.82853       0.0665879       0.0642655       0.0692042 
        1.83466       0.0660282        0.063736       0.0685733 
        1.84078       0.0655794       0.0632131       0.0679774 
        1.84692       0.0650528       0.0626952       0.0675107 
        1.85306       0.0645232       0.0621825       0.0668933 
         1.8592         0.06403       0.0616763       0.0662442 
        1.86533       0.0635317        0.061176       0.0658078 
        1.87147       0.0629584       0.0606807       0.0653327 
        1.87761       0.0624109       0.0601906       0.0648538 
