# k  (h/Mpc)    P(k)  (Mpc/h)^3    P_linear(k)  (Mpc/h)^3     P_NL(k)  ShotnoiseSubtracted = false
     0.00783031         15292.3         15389.6         15244.6 
       0.013688         16720.9         17139.2         17012.4 
       0.019231         15615.9         15822.5         15711.8 
      0.0249154         13417.8         13320.3         13245.7 
      0.0312784         10428.8         10450.4         10418.6 
      0.0375637         8166.85         8227.77         8218.19 
      0.0433917         6876.79         6847.25         6835.54 
      0.0492413         5997.32         6002.45          5994.5 
      0.0555754         5502.87         5467.31          5459.1 
      0.0619321         4974.16         5080.78         5070.86 
       0.067871          4660.9         4692.13         4687.62 
      0.0738098         4224.96          4213.1         4187.71 
      0.0800417         3684.22         3640.61         3640.68 
      0.0862327         3124.92         3082.77         3127.82 
      0.0921407         2705.48         2633.85         2691.69 
      0.0982031         2405.93         2295.88         2385.46 
       0.104506         2139.95         2073.71         2180.31 
       0.110769         2019.17          1949.4         2025.68 
       0.116806         1959.37          1874.9         1934.49 
       0.122832         1859.19          1802.1         1857.07 
       0.129052         1748.34         1698.92         1747.48 
       0.135211         1651.59         1561.65         1617.53 
       0.141259         1482.74         1406.27         1482.94 
       0.147318         1331.35         1252.73         1356.48 
       0.153489         1213.97         1119.11         1213.18 
       0.159709         1142.11         1018.69         1124.74 
       0.165845         1047.08         952.921         1073.95 
       0.171974         1027.05         911.636         1018.95 
       0.178125         992.678         882.064         993.094 
       0.184229         927.272         852.355         951.653 
        0.19034         903.609         814.287          906.68 
       0.196428         864.907         766.169         854.224 
       0.202534         793.189         711.209         807.793 
       0.208729         767.956         655.112         751.588 
       0.214876          722.15         605.327         719.881 
       0.220989         673.235         565.284         685.537 
       0.227147         653.441          535.04         655.491 
        0.23329         627.114         512.915         635.778 
       0.239377         619.357          495.48         611.549 
       0.245482         587.542         478.888         585.088 
       0.251667         564.039         460.381         569.759 
       0.257832         553.031         439.275         544.335 
       0.263955         520.422         416.299          520.98 
       0.270079         497.785         392.967         500.056 
        0.27624         474.959         370.957         477.603 
       0.282372         462.562         351.786         461.895 
        0.28843         456.011         335.994         447.151 
       0.294538         431.875         322.839         433.089 
       0.300721         419.438         311.488         420.927 
        0.30691          410.69          300.98         411.637 
       0.313033         390.619         290.586         396.642 
       0.319153         383.893         279.708         384.328 
       0.325316         375.503          268.32         373.457 
        0.33145         364.637         256.877         358.283 
       0.337538         350.048         245.934         347.457 
       0.343633          339.32         235.784         341.427 
       0.349808         329.769         226.573         333.146 
       0.355968         322.973         218.422         325.507 
       0.362074         310.613          211.17         316.914 
       0.368217          307.67         204.414         306.699 
       0.374374          300.99         197.879         299.066 
       0.380519         288.252         191.428         290.885 
       0.386598         284.027         185.039         286.767 
       0.392688         275.546         178.686         277.387 
        0.39888         268.904         172.404         271.077 
       0.405048         261.912          166.44         265.904 
       0.411186         260.645         160.884         258.234 
       0.417313         255.468         155.753         252.102 
       0.423458         248.834         150.966          247.43 
       0.429607           240.8         146.468         242.513 
       0.435692         236.821         142.226         236.046 
       0.441815         232.189         138.087         233.225 
       0.447964         225.678         134.017         228.589 
       0.454126         222.678         130.034         221.634 
       0.460267          219.07         126.174         219.652 
       0.466387         213.372          122.46         215.059 
        0.47254         210.844         118.889         210.738 
       0.478662         205.264          115.52         206.409 
       0.484765         201.807         112.334         201.677 
       0.490885         199.105         109.288         198.496 
       0.497035         195.108         106.358         195.501 
       0.503198           193.6         103.533         192.277 
       0.509342         188.903         100.807         189.224 
       0.515458          185.34         98.1688         186.633 
       0.521598         181.318          95.595          182.67 
       0.527764         179.481         93.0942         180.325 
       0.533884         177.547         90.7024         177.553 
           0.54         174.113         88.4044          174.02 
       0.546137         169.901         86.1866         171.897 
       0.552299         168.149         84.0445         168.478 
       0.558452         165.224         81.9865          165.87 
       0.564573         164.334         80.0122         164.289 
       0.570708         160.134         78.0996         162.125 
       0.576825         157.664         76.2521         158.634 
       0.582926         156.317         74.4631         156.733 
       0.589034         153.275         72.7245         155.014 
       0.595184         151.792          71.028         151.751 
       0.601379          149.29         69.3749         150.184 
       0.607522         145.514         67.7908         147.594 
       0.613639          144.73         66.2663         146.654 
       0.619772         143.401         64.7876         144.837 
       0.625918         141.278         63.3525         142.242 
       0.632068         138.508         61.9602         140.161 
       0.638161         137.682         60.6213          139.31 
         0.6443         135.751         59.3115         137.334 
       0.650464         133.352         58.0353         134.413 
       0.656582         131.999         56.8056         133.406 
       0.662703          131.08         55.6114         131.665 
       0.668861         128.093         54.4454          130.39 
       0.675024         127.732         53.3125         128.756 
       0.681124         125.792         52.2237         126.918 
       0.687237         124.638         51.1636         125.434 
       0.693381         122.193         50.1282         123.719 
       0.699536         121.649         49.1198          122.49 
       0.705665         120.067         48.1436         121.365 
       0.711789         118.083         47.1947         120.035 
       0.717957         117.074          46.265         118.732 
        0.72409         115.393         45.3657         117.679 
       0.730186          115.55         44.4957         116.394 
       0.736317         113.889         43.6441         114.819 
       0.742472         112.017         42.8118         113.639 
       0.748622         110.359         42.0022         112.316 
        0.75476          110.56         41.2154         111.393 
       0.760888         108.993         40.4502         109.686 
       0.767043         107.006         39.7016         108.955 
       0.773185         105.682         38.9736         108.158 
       0.779291         104.949         38.2681         106.748 
       0.785407         103.999         37.5792         105.486 
       0.791564         102.967         36.9029          104.68 
       0.797719         101.248         36.2437         104.005 
       0.803834         101.331         35.6049         102.771 
       0.809972         100.075         34.9792         101.811 
       0.816124         98.2166         34.3673         100.973 
       0.822261         97.6335         33.7717         99.9892 
       0.828378         97.1121          33.192          98.754 
       0.834502         96.2254         32.6256         97.8109 
       0.840667         95.5862         32.0688         97.1968 
       0.846816         93.9946         31.5265         96.3831 
       0.852925         93.4215         31.0003         95.5785 
       0.859047         92.3765         30.4851         94.6921 
       0.865192         91.7166         29.9799         93.6843 
       0.871341         90.9684         29.4859         92.8004 
       0.877463         90.0586         29.0053         92.1904 
       0.883569         89.8582         28.5367         91.6962 
       0.889708         88.9739          28.076         90.6681 
       0.895864          87.923         27.6245         90.1123 
       0.902008         86.8284         27.1838         89.1472 
       0.908149         85.9633          26.753         88.4252 
       0.914301         85.3684          26.331         87.6522 
       0.920448         85.4116         25.9184         87.0957 
       0.926574         83.7611         25.5162         86.2497 
       0.932687         83.5569         25.1234          85.744 
       0.938823         82.9788         24.7375         84.8997 
       0.944975         82.2686         24.3588         84.2266 
       0.951105         81.3945         23.9895         83.5132 
       0.957225         80.9105         23.6285         82.9521 
       0.963368         80.1616         23.2737         82.2257 
       0.969511          79.552         22.9263         81.5422 
       0.975621         78.3281         22.5878          81.398 
       0.981748          78.156         22.2553         80.7402 
       0.987916         77.5158         21.9274         80.0864 
        0.99406         77.0674         21.6075         79.3235 
        1.00019         76.4452         21.2945         78.6563 
        1.00632         75.6504         20.9881         78.0996 
        1.01246         75.1528         20.6872         77.3567 
        1.01859         74.6854         20.3928         77.1325 
        1.02471         74.2266         20.1045         76.7736 
        1.03085         73.5281         19.8207         76.1331 
        1.03698         72.8715         19.5431         75.5978 
        1.04314          72.484         19.2697         74.9679 
        1.04929         72.0447         19.0021         74.6212 
        1.05541         71.4051         18.7407         74.2215 
        1.06154         70.6443         18.4836         73.6503 
        1.06769         70.2744         18.2309         73.1844 
        1.07382         69.8352         17.9838         72.7422 
        1.07993         69.4865         17.7419         72.2227 
        1.08607         69.0563         17.5034         71.6959 
        1.09222          68.381          17.269          71.277 
        1.09836         67.9127         17.0392         70.7058 
        1.10449         67.4843         16.8139         70.3879 
        1.11063         66.9032         16.5924         69.6842 
        1.11677         66.6833          16.375         69.2697 
         1.1229         65.8249         16.1619         69.0064 
        1.12903         65.4078         15.9524         68.4464 
        1.13518         64.8745         15.7464         68.0485 
        1.14131         64.6621         15.5442         67.5099 
        1.14745         64.2927         15.3457         67.2187 
        1.15359         63.6681         15.1506         66.8108 
        1.15973         63.4252         14.9588         66.5645 
        1.16584         62.9136         14.7712         65.8706 
        1.17197         62.5509         14.5866         65.7289 
        1.17811          62.118         14.4046          65.224 
        1.18424         61.5818         14.2262         64.8362 
        1.19038         61.3108         14.0503         64.5095 
        1.19652         60.9849         13.8775         64.0725 
        1.20267           60.45         13.7076         63.7499 
        1.20881         59.9628         13.5405         63.2671 
        1.21495         59.7128         13.3766          62.975 
        1.22108         59.3521         13.2154         62.6577 
         1.2272         59.1096         13.0572         62.2521 
        1.23334          58.777         12.9012         62.0506 
        1.23949         58.2023         12.7475         61.5043 
        1.24562         57.7268         12.5966         61.0567 
        1.25174         57.7503         12.4485         60.7897 
        1.25789         57.2068         12.3023          60.454 
        1.26402         56.8357         12.1587         60.2408 
        1.27014         56.3583         12.0177          59.982 
        1.27628          56.151         11.8786         59.6442 
        1.28244         56.0072         11.7414         59.1655 
        1.28858         55.5531         11.6066         58.8242 
        1.29471         55.1289         11.4741         58.5676 
        1.30084         54.6931         11.3439         58.1004 
        1.30697         54.4555         11.2155         57.9225 
        1.31312         54.2558         11.0889         57.6959 
        1.31925         53.6954         10.9646         57.3186 
        1.32537         53.4507         10.8424         57.0907 
        1.33151         53.3338         10.7216         56.7284 
        1.33765         52.8531         10.6027         56.4466 
        1.34378         52.5706         10.4858         56.1885 
        1.34992         52.2784         10.3707         55.8094 
        1.35606         52.0495          10.257         55.5515 
         1.3622         51.7103         10.1452         55.3121 
        1.36833         51.3881         10.0354          54.978 
        1.37445         51.0952         9.92722         54.7843 
        1.38059          50.771         9.82033         54.4076 
        1.38675         50.4677         9.71476         54.1244 
        1.39288          50.165         9.61117         53.8027 
        1.39901         49.9246         9.50913          53.609 
        1.40515         49.5241         9.40835          53.471 
         1.4113         49.3273         9.30907         53.2368 
        1.41742         49.0926          9.2116         52.8484 
        1.42355         48.8582         9.11534         52.5413 
         1.4297         48.5351         9.02018         52.3551 
        1.43585          48.409         8.92641         52.0129 
        1.44198         47.9058         8.83433         51.8456 
        1.44809         47.5761         8.74372         51.5737 
        1.45423         47.5952         8.65405         51.2711 
        1.46036         47.2477         8.56581         51.0502 
        1.46649         46.8714         8.47876         50.8836 
        1.47263         46.5616         8.39286         50.6521 
        1.47877         46.3869         8.30818         50.2656 
        1.48491         46.0167         8.22454         50.0913 
        1.49104         45.8936         8.14224          49.935 
        1.49718         45.5638         8.06099         49.6442 
        1.50333         45.4066         7.98073         49.3921 
        1.50947         45.1407         7.90173         49.1838 
         1.5156         44.9897         7.82391         48.9517 
        1.52172         44.5924         7.74715          48.701 
        1.52787         44.4376         7.67126         48.5142 
          1.534         44.1431         7.59648         48.3246 
        1.54013         44.0289         7.52277          48.073 
        1.54627         43.6049         7.44991         47.8257 
        1.55241         43.5695           7.378         47.6158 
        1.55855         43.1595         7.30714         47.4233 
        1.56467         42.8162          7.2374         47.2402 
         1.5708          42.818         7.16838         46.9923 
        1.57695         42.4803         7.10015         46.8092 
        1.58308         42.3548         7.03296         46.6424 
        1.58922         42.0645          6.9666         46.3739 
        1.59535          42.049         6.90112         46.2023 
         1.6015         41.7236         6.83639         45.9542 
        1.60764         41.5088         6.77252          45.726 
        1.61376         41.3097         6.70964         45.6386 
        1.61989         40.9314         6.64751         45.4202 
        1.62604         40.8569         6.58603         45.1323 
        1.63218         40.5794         6.52536         44.9281 
        1.63831         40.4115          6.4656         44.8153 
        1.64444         40.2521         6.40656         44.6193 
        1.65059         39.9884         6.34812         44.3774 
        1.65673         39.7899         6.29048         44.1785 
        1.66285         39.5305         6.23371         44.0333 
        1.66898         39.3007         6.17762         43.8801 
        1.67512         39.0804         6.12212         43.6534 
        1.68127         38.9982         6.06724         43.4302 
         1.6874         38.8132         6.01316         43.2626 
        1.69353           38.57         5.95978         43.1286 
        1.69967         38.3801         5.90691         42.9409 
        1.70581         38.2012         5.85471          42.758 
        1.71193         37.9124         5.80333         42.6004 
        1.71806         37.8045         5.75247         42.4272 
        1.72421         37.5517         5.70211         42.2477 
        1.73035         37.4283         5.65241          42.054 
        1.73649         37.1859         5.60331         41.8633 
        1.74262         37.0024         5.55484         41.7171 
        1.74876         36.9246          5.5069          41.553 
        1.75489         36.6812         5.45963          41.371 
        1.76101         36.5577         5.41293         41.1904 
        1.76715         36.3298         5.36672         41.0048 
        1.77329         36.1542         5.32098         40.8599 
        1.77943         35.9804         5.27576         40.7193 
        1.78557         35.8339         5.23113         40.5368 
        1.79171         35.5351         5.18701         40.3634 
        1.79785         35.4667          5.1434          40.208 
        1.80399         35.2718         5.10029         40.0517 
        1.81012         35.0327         5.05773         39.8903 
        1.81625         34.9247         5.01568         39.7177 
        1.82239         34.6876         4.97404         39.5689 
        1.82853         34.5904          4.9329         39.4695 
        1.83466         34.3527         4.89226         39.2958 
        1.84078         34.1684         4.85212         39.0859 
        1.84692          34.105         4.81237         38.9879 
        1.85306         33.9475         4.77301         38.8449 
         1.8592         33.6737         4.73416         38.6469 
        1.86533         33.5991         4.69576         38.5005 
        1.87147         33.3592         4.65774          38.345 
        1.87761          33.212         4.62012         38.1904 
