# k  (h/Mpc)    Pcb(k)  (Mpc/h)^3    Pcb_linear(k) (Mpc/h)^3    Pcb_NL(k) (Mpc/h)^3   ShotnoiseSubtracted = false
     0.00783031         12381.2         12463.6         12347.4 
       0.013688         13572.3           13882         13783.1 
       0.019231         12667.7         12816.1         12731.3 
      0.0249154           10864         10789.6         10735.6 
      0.0312784         8456.04         8465.09         8446.96 
      0.0375637         6624.28         6664.73         6661.48 
      0.0433917         5572.04         5546.51         5541.93 
      0.0492413         4860.29         4862.21         4859.91 
      0.0555754          4458.4         4428.75         4424.59 
      0.0619321         4039.24         4115.65         4109.63 
       0.067871         3781.78         3800.83         3797.82 
      0.0738098         3422.42         3412.81         3396.37 
      0.0800417          2982.2         2949.07         2949.73 
      0.0862327         2527.11         2497.19         2527.86 
      0.0921407         2181.63         2133.54         2172.85 
      0.0982031         1935.73         1859.78         1920.13 
       0.104506         1722.48         1679.81          1751.3 
       0.110769         1624.71         1579.11         1629.89 
       0.116806         1577.11         1518.76         1558.26 
       0.122832         1496.69         1459.79         1496.37 
       0.129052         1410.42         1376.21         1408.33 
       0.135211         1326.66         1265.02          1302.4 
       0.141259         1190.73         1139.15         1190.22 
       0.147318         1065.76         1014.77         1084.61 
       0.153489         969.184         906.535         969.304 
       0.159709         907.676         825.188         895.851 
       0.165845         832.105         771.916         853.099 
       0.171974         816.553         738.473         809.732 
       0.178125         788.183         714.517         788.508 
       0.184229         739.754         690.451         756.804 
        0.19034         719.117         659.615         721.121 
       0.196428         686.467         620.635          678.37 
       0.202534         628.165         576.116           639.8 
       0.208729         605.755         530.675          594.87 
       0.214876         569.449         490.346         567.362 
       0.220989         528.464         457.909         538.596 
       0.227147         512.926         433.411         513.653 
        0.23329         492.368          415.49         497.565 
       0.239377         484.572         401.365         478.952 
       0.245482         460.164         387.925         458.177 
       0.251667         441.005         372.934         445.719 
       0.257832         432.601         355.835         425.553 
       0.263955         405.949         337.224         406.554 
       0.270079         387.082         318.324         389.411 
        0.27624         368.903         300.496         371.067 
       0.282372         357.805         284.968         357.972 
        0.28843         353.035         272.173         345.665 
       0.294538         334.367         261.516         334.607 
       0.300721          323.45         252.322         325.247 
        0.30691         317.246          243.81         317.182 
       0.313033         301.601         235.389         305.505 
       0.319153         295.944         226.579         295.795 
       0.325316         288.282         217.353         287.078 
        0.33145         279.379         208.084         275.313 
       0.337538         268.102          199.22         266.251 
       0.343633         259.261         190.998         260.908 
       0.349808         251.469         183.536         254.217 
       0.355968         245.941         176.934         248.167 
       0.362074         237.371         171.059         241.094 
       0.368217         234.201         165.586         233.068 
       0.374374           228.3         160.293         227.036 
       0.380519         218.648         155.067         220.584 
       0.386598         214.847         149.892         216.738 
       0.392688         208.073         144.745         209.802 
        0.39888         203.354         139.656         204.516 
       0.405048         197.982         134.825         200.476 
       0.411186          196.14         130.325          194.65 
       0.417313         191.717         126.168         189.497 
       0.423458         186.722         122.291          185.72 
       0.429607         181.009         118.647         181.853 
       0.435692         177.904         115.211          177.11 
       0.441815         173.964         111.857         174.653 
       0.447964         168.533         108.561         170.765 
       0.454126         165.861         105.334         165.513 
       0.460267         163.579         102.208         163.776 
       0.466387         159.134         99.1994         160.019 
        0.47254         157.196         96.3073         156.697 
       0.478662         152.411         93.5776         153.506 
       0.484765         149.861         90.9964         149.528 
       0.490885         147.286         88.5294         147.248 
       0.497035         144.979         86.1557         144.911 
       0.503198         143.078         83.8672         142.234 
       0.509342         139.374         81.6592         139.904 
       0.515458         136.806         79.5221         137.909 
       0.521598         133.391         77.4371         134.559 
       0.527764         132.263         75.4114         132.406 
       0.533884         130.857         73.4738         130.358 
           0.54          127.68         71.6124         127.751 
       0.546137         124.578         69.8158         126.116 
       0.552299         122.766         68.0806         123.301 
       0.558452          120.69         66.4134          121.16 
       0.564573         119.948         64.8142         119.902 
       0.570708         116.639         63.2649         118.169 
       0.576825         115.005         61.7682         115.634 
       0.582926         113.788         60.3192          113.97 
       0.589034         111.631         58.9108          112.77 
       0.595184          110.24         57.5365         110.366 
       0.601379         108.243         56.1974         109.164 
       0.607522         105.579         54.9142         107.027 
       0.613639         104.817         53.6793         106.073 
       0.619772         103.331         52.4815         104.537 
       0.625918         102.295          51.319          102.84 
       0.632068         99.7905         50.1911         101.213 
       0.638161         98.9424         49.1065         100.347 
         0.6443         97.9613         48.0456         98.8137 
       0.650464         95.7896         47.0117         96.6775 
       0.656582         95.1009         46.0156         95.9324 
       0.662703          94.024         45.0483         94.4279 
       0.668861         91.9632         44.1037         93.4199 
       0.675024         91.7678          43.186         92.0616 
       0.681124         90.1568         42.3041         90.7952 
       0.687237          89.025         41.4453         89.6428 
       0.693381         87.5445         40.6066         88.3124 
       0.699536         86.8459         39.7897         87.4254 
       0.705665         85.7002         38.9989         86.7009 
       0.711789         84.2948         38.2303         85.3386 
       0.717957         83.2868         37.4772         84.3275 
        0.72409         82.2531         36.7486         83.6503 
       0.730186         82.0296          36.044         82.7115 
       0.736317         80.8797         35.3541         81.4254 
       0.742472          79.292         34.6799         80.5762 
       0.748622         78.0934          34.024         79.5411 
        0.75476         78.2275         33.3867         78.6057 
       0.760888         77.2104         32.7669         77.4804 
       0.767043         75.6952         32.1604         77.0083 
       0.773185         74.6276         31.5707         76.3649 
       0.779291         73.9726         30.9992         75.3627 
       0.785407         73.2911         30.4412         74.3545 
       0.791564         72.5891         29.8934         73.7259 
       0.797719         71.3721         29.3594         73.2171 
       0.803834         71.1906         28.8419         72.1571 
       0.809972         70.4506          28.335         71.4229 
       0.816124         69.1807         27.8393         70.8297 
       0.822261         68.5223         27.3569         70.0146 
       0.828378         68.2418         26.8874         69.1004 
       0.834502         67.5068         26.4285         68.4729 
       0.840667         66.8769         25.9774         68.0848 
       0.846816         66.0024         25.5382         67.3984 
       0.852925         65.3304          25.112         66.7263 
       0.859047         64.7399         24.6946          66.017 
       0.865192         64.0708         24.2853         65.3979 
       0.871341         63.4872         23.8852         64.6959 
       0.877463         62.8451         23.4958         64.1417 
       0.883569         62.7078         23.1162         63.8017 
       0.889708         61.9911         22.7431         63.0809 
       0.895864         61.4289         22.3773         62.6317 
       0.902008          60.568         22.0203         61.8825 
       0.908149         59.8735         21.6714         61.3963 
       0.914301         59.5793         21.3295         60.8885 
       0.920448         59.5127         20.9953         60.4036 
       0.926574         58.1818         20.6695         59.7903 
       0.932687         57.9633         20.3513         59.3363 
       0.938823         57.5571         20.0387         58.7029 
       0.944975         56.8682          19.732         58.2028 
       0.951105         56.3153         19.4328         57.7421 
       0.957225         56.0667         19.1404         57.2949 
       0.963368          55.455          18.853         56.7442 
       0.969511         55.0909         18.5715         56.2818 
       0.975621         54.2955         18.2973         56.1352 
       0.981748          54.026          18.028         55.6543 
       0.987916         53.4778         17.7624         55.2064 
        0.99406         53.3142         17.5032         54.6033 
        1.00019         52.6197         17.2497         54.0902 
        1.00632         52.1326         17.0015         53.6984 
        1.01246         51.8321         16.7578          53.216 
        1.01859         51.5188         16.5193         53.0392 
        1.02471         51.1267         16.2857          52.736 
        1.03085         50.5757         16.0559          52.187 
        1.03698         50.1953          15.831         51.7659 
        1.04314         49.8235         15.6095         51.3271 
        1.04929         49.4212         15.3927         51.0655 
        1.05541         48.9913          15.181         50.8155 
        1.06154         48.5702         14.9727         50.3741 
        1.06769         48.2642          14.768         50.0054 
        1.07382         47.7883         14.5679         49.6719 
        1.07993         47.6095         14.3719         49.3234 
        1.08607         47.1856         14.1787         48.9683 
        1.09222         46.9226         13.9888         48.5659 
        1.09836         46.5291         13.8027         48.1932 
        1.10449         46.1805         13.6202         47.9209 
        1.11063         45.8081         13.4408         47.4217 
        1.11677         45.6576         13.2647         47.1019 
         1.1229         45.0858          13.092         46.9748 
        1.12903         44.8753         12.9223         46.5797 
        1.13518         44.5039         12.7554         46.2385 
        1.14131          44.207         12.5916         45.9202 
        1.14745         44.0033         12.4308         45.6994 
        1.15359         43.4358         12.2728           45.34 
        1.15973          43.371         12.1174         45.1552 
        1.16584         43.0329         11.9655          44.647 
        1.17197         42.6989         11.8159         44.5509 
        1.17811         42.4053         11.6685         44.1969 
        1.18424         41.8945          11.524         43.9603 
        1.19038         41.7414         11.3815         43.6221 
        1.19652         41.5467         11.2415         43.3239 
        1.20267         41.1414         11.1039         43.1262 
        1.20881         40.8638         10.9686         42.8247 
        1.21495         40.6392         10.8358         42.5324 
        1.22108         40.5338         10.7052         42.3369 
         1.2272         40.1124          10.577         42.0662 
        1.23334         39.9731         10.4507         41.8566 
        1.23949         39.6147         10.3261         41.4908 
        1.24562          39.307          10.204         41.2057 
        1.25174         39.1764          10.084         41.0628 
        1.25789         38.9243         9.96552         40.7768 
        1.26402         38.6193          9.8492         40.5696 
        1.27014         38.4244         9.73502         40.4134 
        1.27628         38.1352         9.62232         40.1025 
        1.28244         38.1107         9.51118         39.8078 
        1.28858         37.6994         9.40195         39.5834 
        1.29471         37.3524         9.29468         39.4352 
        1.30084         37.0506         9.18918         39.1135 
        1.30697          37.016         9.08516         38.9361 
        1.31312         36.8058          8.9826         38.7658 
        1.31925         36.4599         8.88194         38.4835 
        1.32537         36.2489         8.78293         38.3369 
        1.33151         36.0465         8.68507         38.0738 
        1.33765         35.8735         8.58876         37.8579 
        1.34378         35.6321         8.49411         37.6813 
        1.34992         35.4125         8.40082         37.4474 
        1.35606         35.1051         8.30873         37.2539 
         1.3622          34.995         8.21818         37.0731 
        1.36833         34.8427          8.1292          36.898 
        1.37445         34.5214         8.04159         36.7023 
        1.38059         34.3353         7.95501         36.5215 
        1.38675         34.1346         7.86949         36.2886 
        1.39288         33.9879         7.78557         36.0979 
        1.39901          33.708         7.70291         35.9229 
        1.40515         33.5296         7.62128         35.8072 
         1.4113         33.4304         7.54085         35.6156 
        1.41742         33.1818          7.4619         35.3146 
        1.42355         32.9947         7.38393         35.1995 
         1.4297         32.8844         7.30683         34.9986 
        1.43585          32.691         7.23087         34.8223 
        1.44198         32.4044         7.15629         34.6669 
        1.44809         32.1521         7.08289         34.4479 
        1.45423         32.1075         7.01025         34.2786 
        1.46036         31.9637         6.93877         34.1268 
        1.46649         31.6526         6.86826         33.9938 
        1.47263         31.4906         6.79867         33.8458 
        1.47877         31.3372         6.73008         33.6167 
        1.48491         31.0997         6.66233          33.456 
        1.49104         31.0166         6.59566         33.3365 
        1.49718         30.8227         6.52984         33.1773 
        1.50333         30.7083         6.46483         32.9786 
        1.50947         30.4354         6.40083         32.8128 
         1.5156          30.389          6.3378         32.6711 
        1.52172          30.119         6.27561          32.522 
        1.52787         30.0701         6.21414         32.3858 
          1.534         29.7863         6.15356         32.2193 
        1.54013         29.8057         6.09385         32.0408 
        1.54627         29.4916         6.03483         31.8864 
        1.55241          29.417         5.97658         31.7447 
        1.55855         29.2173         5.91918         31.6054 
        1.56467         28.9547         5.86269         31.4892 
         1.5708         28.9878         5.80678          31.349 
        1.57695         28.7833         5.75151         31.2054 
        1.58308         28.6101         5.69708         31.0611 
        1.58922         28.4095         5.64333         30.8911 
        1.59535         28.4063         5.59028         30.7656 
         1.6015         28.2853         5.53785            30.6 
        1.60764         28.0435         5.48611         30.4558 
        1.61376         27.8799         5.43517         30.3796 
        1.61989          27.678         5.38485         30.2275 
        1.62604         27.5657         5.33504         30.0731 
        1.63218         27.3252          5.2859         29.9407 
        1.63831         27.2931         5.23749         29.8212 
        1.64444         27.1628         5.18966         29.6935 
        1.65059         26.9867         5.14233         29.5467 
        1.65673         26.8758         5.09563         29.4144 
        1.66285         26.7559         5.04964         29.3167 
        1.66898         26.6182         5.00421         29.2191 
        1.67512         26.4013         4.95925         29.0504 
        1.68127         26.3615          4.9148         28.9031 
         1.6874         26.2756         4.87099          28.794 
        1.69353         26.0498         4.82774         28.6748 
        1.69967         25.9662         4.78492         28.5514 
        1.70581         25.8362         4.74263          28.454 
        1.71193         25.6774         4.70102          28.348 
        1.71806         25.5909         4.65981         28.1798 
        1.72421         25.3885         4.61902          28.067 
        1.73035         25.3574         4.57876         27.9874 
        1.73649         25.1756         4.53899          27.877 
        1.74262         25.0181         4.49972         27.7145 
        1.74876         25.0508         4.46089         27.5789 
        1.75489          24.782          4.4226         27.4856 
        1.76101         24.7681         4.38477         27.3977 
        1.76715           24.54         4.34733         27.2742 
        1.77329         24.4229         4.31029         27.1603 
        1.77943         24.4003         4.27366         27.0604 
        1.78557         24.2813          4.2375         26.9495 
        1.79171          24.113         4.20176         26.8341 
        1.79785         24.0357         4.16643         26.7319 
        1.80399         23.8727         4.13151         26.6436 
        1.81012         23.7541         4.09704         26.5225 
        1.81625         23.6467         4.06297         26.3935 
        1.82239         23.5139         4.02925         26.2975 
        1.82853         23.4531         3.99592         26.2246 
        1.83466         23.2868           3.963         26.1107 
        1.84078          23.197         3.93048         25.9731 
        1.84692         23.0655         3.89828         25.8871 
        1.85306         22.9771          3.8664         25.8029 
         1.8592         22.8211         3.83493         25.6986 
        1.86533         22.7723         3.80382         25.5974 
        1.87147         22.6562         3.77302         25.4923 
