# k  (h/Mpc)    P(k)  (Mpc/h)^3    P_linear(k)  (Mpc/h)^3     P_NL(k)  ShotnoiseSubtracted = false
     0.00783031          4272.7         4306.07         4266.67 
       0.013688          4724.7         4798.14         4767.27 
       0.019231         4399.82         4430.48         4405.51 
      0.0249154         3747.89         3730.27         3717.22 
      0.0312784         2930.93         2926.81         2927.23 
      0.0375637         2299.93         2304.42         2307.21 
      0.0433917         1926.88         1917.83          1920.5 
      0.0492413         1682.54         1681.24         1683.91 
      0.0555754         1540.17         1531.38         1531.86 
      0.0619321         1407.79         1423.13         1422.45 
       0.067871         1312.27         1314.28         1313.26 
      0.0738098         1182.22         1180.11         1177.61 
      0.0800417         1027.04         1019.76            1020 
      0.0862327         868.824          863.51         868.108 
      0.0921407         744.352         737.766         743.795 
      0.0982031         655.434           643.1         651.895 
       0.104506         585.286          580.87         590.909 
       0.110769         551.238         546.051         553.026 
       0.116806         534.037         525.182         530.332 
       0.122832         508.476         504.792         509.467 
       0.129052         480.946         475.891         479.857 
       0.135211         446.517         437.439         442.292 
       0.141259         400.747         393.916          400.62 
       0.147318         356.437         350.907         360.439 
       0.153489         321.308         313.479         321.925 
       0.159709         296.172          285.35         294.801 
       0.165845         272.892         266.928         277.906 
       0.171974         266.235         255.363         264.701 
       0.178125         256.501          247.08         256.793 
       0.184229         244.574         238.758         247.545 
        0.19034         236.087         228.095         236.133 
       0.196428         223.115         214.616         221.815 
       0.202534         204.252         199.221          207.29 
       0.208729         193.011         183.508         192.019 
       0.214876         180.645         169.562         180.004 
       0.220989         166.566         158.345         169.212 
       0.227147         160.657         149.874         160.415 
        0.23329         154.203         143.676          154.52 
       0.239377         149.994         138.792         149.129 
       0.245482         143.586         134.145         143.162 
       0.251667         137.097         128.961         138.465 
       0.257832         133.588         123.048         132.124 
       0.263955         125.123         116.612         125.545 
       0.270079         118.497         110.077         119.229 
        0.27624         112.143         103.912         112.918 
       0.282372         107.331         98.5413         108.093 
        0.28843         104.913         94.1177         103.708 
       0.294538         100.068         90.4327         99.9066 
       0.300721         95.8144         87.2533          96.808 
        0.30691         93.8355         84.3098         93.8003 
       0.313033         89.8056         81.3982         90.3692 
       0.319153         87.8017         78.3512         87.2575 
       0.325316         83.7973         75.1612         84.2468 
        0.33145         80.4518         71.9559         80.7126 
       0.337538         77.3236         68.8905         77.5076 
       0.343633         74.6434         66.0473         74.8811 
       0.349808          71.841         63.4671         72.5412 
       0.355968         69.5451         61.1839         70.5601 
       0.362074         67.9889         59.1524         68.1792 
       0.368217         65.9721         57.2599         65.7673 
       0.374374         64.1657         55.4295         63.9567 
       0.380519         61.4372         53.6224         61.8931 
       0.386598         59.5794         51.8328         60.1468 
       0.392688         57.4663          50.053         58.3604 
        0.39888         56.2741         48.2934         56.4909 
       0.405048          54.666         46.6227         54.7366 
       0.411186         53.0821         45.0664         53.3842 
       0.417313         51.4463         43.6291         51.6658 
       0.423458         49.9481         42.2884         50.3703 
       0.429607         48.8772         41.0283         48.9725 
       0.435692         47.9759           39.84         47.7307 
       0.441815         46.1265         38.6806         46.7069 
       0.447964         44.4654         37.5406         45.3168 
       0.454126          43.654         36.4249          43.988 
       0.460267         43.0533         35.3436         43.1373 
       0.466387         41.7458         34.3034         41.8579 
        0.47254         41.0458         33.3031         40.9125 
       0.478662         39.5413         32.3593         39.9039 
       0.484765         38.6724         31.4667         38.7682 
       0.490885         37.5128         30.6136            38.1 
       0.497035         36.9165         29.7928         37.3377 
       0.503198         36.0778         29.0014         36.2989 
       0.509342         34.9879         28.2379         35.5648 
       0.515458          34.357         27.4988         34.9532 
       0.521598         33.4919         26.7779         33.8781 
       0.527764         32.9562         26.0774         32.9821 
       0.533884         32.2799         25.4074         32.3224 
           0.54         31.4793         24.7637         31.6659 
       0.546137         30.4989         24.1424         31.0957 
       0.552299         29.8868         23.5424         30.2418 
       0.558452         29.1971         22.9659            29.6 
       0.564573         28.8586         22.4129         29.1657 
       0.570708         28.0539         21.8771         28.5786 
       0.576825          27.668         21.3596          27.972 
       0.582926         27.1483         20.8585         27.4185 
       0.589034         26.5216         20.3714         27.0115 
       0.595184         26.1176         19.8962         26.3304 
       0.601379         25.4007         19.4332         25.9633 
       0.607522         24.8771         18.9894          25.307 
       0.613639         24.5147         18.5624         24.8789 
       0.619772         23.9753         18.1482         24.4584 
       0.625918         23.5357         17.7462         24.0413 
       0.632068          23.248         17.3562         23.5369 
       0.638161         22.7072         16.9811         23.1247 
         0.6443          22.372         16.6142          22.657 
       0.650464         21.7683         16.2567         22.3059 
       0.656582         21.5933         15.9123         21.9418 
       0.662703         21.2209         15.5778         21.4948 
       0.668861         20.6815         15.2511         21.2292 
       0.675024         20.3857         14.9338         20.7474 
       0.681124         20.2209         14.6288         20.4093 
       0.687237         19.7733         14.3319         20.0527 
       0.693381         19.3616         14.0418         19.6836 
       0.699536         19.1899         13.7594          19.456 
       0.705665         18.7788         13.4859         19.1827 
       0.711789         18.4566         13.2201         18.7431 
       0.717957         18.0447         12.9597         18.5068 
        0.72409         17.8472         12.7078         18.2478 
       0.730186         17.7131         12.4641         17.9302 
       0.736317         17.3143         12.2255         17.6291 
       0.742472         17.0993         11.9924          17.401 
       0.748622         16.7704         11.7656         17.1025 
        0.75476         16.3607         11.5452         16.8607 
       0.760888         16.2979         11.3308         16.6319 
       0.767043         15.9538         11.1211         16.4037 
       0.773185         15.7273         10.9172         16.1436 
       0.779291         15.5228         10.7196         15.9388 
       0.785407           15.29         10.5266         15.6714 
       0.791564         15.1619         10.3372         15.4579 
       0.797719         14.7646         10.1525         15.2651 
       0.803834         14.7079         9.97358         15.0099 
       0.809972         14.3995         9.79831         14.8237 
       0.816124         14.2258          9.6269         14.6053 
       0.822261         14.0286         9.46006         14.3953 
       0.828378         13.8728          9.2977         14.1775 
       0.834502         13.6923         9.13903         14.0318 
       0.840667         13.5234         8.98305         13.8265 
       0.846816         13.2277         8.83116         13.6459 
       0.852925         13.1504         8.68376         13.5252 
       0.859047         12.9683         8.53943         13.3188 
       0.865192         12.7665         8.39792         13.1318 
       0.871341         12.6006         8.25954         12.9899 
       0.877463         12.4184         8.12491         12.8182 
       0.883569         12.3108         7.99364         12.6484 
       0.889708         12.1063         7.86462         12.4928 
       0.895864         11.9309         7.73812         12.3148 
       0.902008         11.8043         7.61468         12.1846 
       0.908149         11.6077         7.49402         12.0472 
       0.914301         11.5143         7.37579         11.9505 
       0.920448         11.3485         7.26023         11.7448 
       0.926574         11.2379         7.14756         11.5992 
       0.932687         11.0578         7.03753         11.4351 
       0.938823         10.8928         6.92943         11.3071 
       0.944975         10.8163         6.82336         11.1979 
       0.951105         10.6838          6.7199         11.0282 
       0.957225         10.5852         6.61878         10.9357 
       0.963368         10.4003          6.5194         10.7965 
       0.969511         10.2856         6.42207         10.6716 
       0.975621         10.1874         6.32725         10.5598 
       0.981748         10.0368         6.23412         10.4445 
       0.987916         9.96427         6.14228         10.3115 
        0.99406          9.8081         6.05265          10.207 
        1.00019         9.73143         5.96499         10.1048 
        1.00632         9.64806         5.87914         9.99672 
        1.01246         9.50352         5.79487         9.91366 
        1.01859         9.39869         5.71239         9.79743 
        1.02471         9.28511         5.63163         9.66129 
        1.03085         9.22299         5.55216         9.56361 
        1.03698         9.13174         5.47439         9.47214 
        1.04314         8.99332         5.39779         9.36339 
        1.04929         8.86682         5.32284         9.28783 
        1.05541         8.80429         5.24961         9.21278 
        1.06154         8.71889         5.17759         9.08414 
        1.06769         8.61814         5.10682         8.97664 
        1.07382         8.49623          5.0376         8.90492 
        1.07993         8.42422         4.96982         8.81266 
        1.08607         8.35107         4.90302         8.73248 
        1.09222         8.24707         4.83737         8.65613 
        1.09836         8.17037         4.77301         8.54764 
        1.10449         8.09014         4.70989         8.46118 
        1.11063         8.03262         4.64785         8.38634 
        1.11677         7.95696         4.58695         8.29353 
         1.1229         7.86527         4.52724         8.23258 
        1.12903         7.77599         4.46855         8.16106 
        1.13518         7.70119         4.41086         8.07174 
        1.14131         7.63505         4.35422         7.99249 
        1.14745          7.5104         4.29861         7.92114 
        1.15359         7.42939         4.24396         7.83432 
        1.15973         7.38224         4.19024         7.76752 
        1.16584         7.30131         4.13769         7.70489 
        1.17197         7.21555         4.08598         7.65628 
        1.17811         7.16229         4.03499         7.54589 
        1.18424         7.10074         3.98502         7.48861 
        1.19038         7.05776         3.93575         7.43064 
        1.19652         6.96097         3.88734         7.34964 
        1.20267         6.92432         3.83974         7.29497 
        1.20881         6.81431         3.79296         7.23307 
        1.21495         6.77494         3.74703         7.16778 
        1.22108          6.7127         3.70187         7.10929 
         1.2272         6.64578         3.65756         7.03891 
        1.23334         6.60918         3.61387         6.98724 
        1.23949         6.53945          3.5708         6.92254 
        1.24562         6.45953         3.52856         6.86073 
        1.25174         6.43206         3.48706         6.80658 
        1.25789         6.35563          3.4461         6.74159 
        1.26402         6.30042         3.40588         6.68397 
        1.27014         6.26791         3.36639         6.63204 
        1.27628         6.18602         3.32742         6.56501 
        1.28244         6.15705         3.28899         6.52813 
        1.28858         6.08478         3.25122          6.4705 
        1.29471         6.01747         3.21412         6.42276 
        1.30084         5.96535         3.17764          6.3853 
        1.30697         5.93566         3.14167         6.31539 
        1.31312         5.87929          3.1062         6.26569 
        1.31925          5.8362          3.0714         6.22975 
        1.32537         5.77528         3.03716         6.18264 
        1.33151         5.72812         3.00332           6.129 
        1.33765         5.68437         2.97001         6.07036 
        1.34378         5.65462         2.93728         6.02282 
        1.34992         5.59116         2.90502         5.98552 
        1.35606         5.53509         2.87318         5.93223 
         1.3622          5.4891         2.84187         5.88085 
        1.36833         5.46309          2.8111         5.85905 
        1.37445         5.41461          2.7808         5.80303 
        1.38059         5.35638         2.75086          5.7493 
        1.38675         5.32939         2.72129         5.72096 
        1.39288         5.27753         2.69227         5.67508 
        1.39901         5.22519         2.66369         5.63063 
        1.40515         5.18918         2.63546         5.58713 
         1.4113         5.14908         2.60764         5.54741 
        1.41742         5.11821         2.58034         5.51359 
        1.42355          5.0628         2.55338         5.47242 
         1.4297         5.02694         2.52672         5.42386 
        1.43585         4.99278         2.50045          5.3936 
        1.44198         4.96069         2.47466         5.35233 
        1.44809         4.91643         2.44928         5.31433 
        1.45423         4.87463         2.42416         5.27503 
        1.46036          4.8389         2.39944         5.23621 
        1.46649         4.80658         2.37506         5.20584 
        1.47263         4.76894           2.351         5.17572 
        1.47877         4.72692         2.32728         5.12726 
        1.48491         4.70262         2.30385         5.09161 
        1.49104         4.66318         2.28079         5.06229 
        1.49718         4.63578         2.25804         5.02794 
        1.50333         4.60078         2.23555         4.99306 
        1.50947         4.56246         2.21342         4.96208 
         1.5156         4.53514         2.19163         4.93103 
        1.52172         4.48864         2.17012         4.89486 
        1.52787         4.47667         2.14886         4.85449 
          1.534         4.43258         2.12792         4.82413 
        1.54013         4.41084         2.10727         4.79013 
        1.54627         4.37123         2.08686          4.7574 
        1.55241         4.32584         2.06672         4.72943 
        1.55855         4.31377         2.04687         4.69498 
        1.56467         4.29106         2.02733         4.67058 
         1.5708         4.24499           2.008         4.64622 
        1.57695         4.21769         1.98889         4.60988 
        1.58308         4.18597         1.97007         4.57983 
        1.58922         4.16581         1.95148         4.55954 
        1.59535         4.13818         1.93313         4.53271 
         1.6015         4.08652           1.915         4.49735 
        1.60764         4.06557         1.89711         4.46518 
        1.61376         4.04639          1.8795         4.44252 
        1.61989         4.01108         1.86209         4.41812 
        1.62604         3.99668         1.84487         4.38937 
        1.63218         3.96623         1.82788          4.3648 
        1.63831         3.93665         1.81114         4.34078 
        1.64444         3.90547          1.7946          4.3072 
        1.65059         3.87548         1.77823         4.28126 
        1.65673         3.86305         1.76208         4.25866 
        1.66285         3.83002         1.74618         4.23248 
        1.66898         3.81402         1.73047         4.20236 
        1.67512         3.79004         1.71492         4.17783 
        1.68127         3.74643         1.69955         4.15604 
         1.6874          3.7369          1.6844         4.13479 
        1.69353         3.69845         1.66945         4.11152 
        1.69967         3.68381         1.65464         4.08107 
        1.70581         3.65505         1.64001         4.05696 
        1.71193         3.63541         1.62562         4.03984 
        1.71806         3.60946         1.61137         4.01721 
        1.72421         3.58517         1.59727         3.99263 
        1.73035         3.57073         1.58335          3.9704 
        1.73649          3.5486         1.56959         3.94867 
        1.74262           3.512         1.55602         3.92243 
        1.74876         3.50228         1.54259         3.89979 
        1.75489          3.4816         1.52935         3.87662 
        1.76101         3.44624         1.51627         3.85177 
        1.76715         3.44426         1.50332         3.83665 
        1.77329         3.41151         1.49051         3.81611 
        1.77943         3.38131         1.47784         3.79031 
        1.78557         3.38258         1.46534         3.76836 
        1.79171         3.35116         1.45298         3.74596 
        1.79785          3.3364         1.44076         3.72463 
        1.80399          3.3148         1.42869         3.70783 
        1.81012         3.28985         1.41677         3.69214 
        1.81625         3.27087         1.40499         3.67287 
        1.82239         3.25218         1.39332         3.65244 
        1.82853         3.22372          1.3818         3.63606 
        1.83466         3.20103         1.37042         3.61831 
        1.84078         3.18331         1.35917         3.59725 
        1.84692         3.17119         1.34804         3.57559 
        1.85306         3.14967         1.33701         3.55281 
         1.8592         3.13634         1.32613         3.53319 
        1.86533         3.11507         1.31537         3.51777 
        1.87147         3.10184         1.30472         3.49808 
        1.87761         3.08034         1.29418          3.4802 
