# k  (h/Mpc)    Pcb(k)  (Mpc/h)^3    Pcb_linear(k) (Mpc/h)^3    Pcb_NL(k) (Mpc/h)^3   ShotnoiseSubtracted = false
     0.00783031         7195.49         7248.04         7181.45 
       0.013688         7927.89         8074.73         8020.81 
       0.019231         7389.98         7455.42         7410.79 
      0.0249154         6313.15         6276.87         6251.62 
      0.0312784         4927.52         4924.77         4921.58 
      0.0375637         3863.57         3877.45         3879.86 
      0.0433917         3242.54         3226.93         3228.96 
      0.0492413         2829.85         2828.83         2831.36 
      0.0555754         2593.26         2576.66         2576.46 
      0.0619321         2361.18         2394.51         2392.72 
       0.067871         2205.66         2211.36         2209.85 
      0.0738098         1990.41         1985.61         1979.71 
      0.0800417         1731.46         1715.81         1716.43 
      0.0862327         1465.34          1452.9         1464.53 
      0.0921407         1258.81         1241.33         1256.31 
      0.0982031         1111.93         1082.05         1104.48 
       0.104506         991.079         977.341         1003.48 
       0.110769         934.071         918.756          937.11 
       0.116806         906.172         883.642         897.669 
       0.122832         861.207         849.334         862.306 
       0.129052         813.878         800.706         811.931 
       0.135211         759.417         736.011         749.398 
       0.141259         681.478          662.78         681.029 
       0.147318         607.185         590.416          615.86 
       0.153489         549.269          527.44          550.03 
       0.159709          509.59         480.111         505.447 
       0.165845         468.113         449.117         478.493 
       0.171974         458.433         429.659         454.976 
       0.178125         441.778         415.721         442.103 
       0.184229         418.622         401.719         425.528 
        0.19034         405.191         383.778         405.689 
       0.196428         384.511         361.099         381.076 
       0.202534         351.458         335.197         357.435 
       0.208729         335.201         308.758         331.734 
       0.214876         314.551         285.294         313.269 
       0.220989         290.272         266.422         295.601 
       0.227147         281.044         252.168         280.769 
        0.23329         269.829         241.741         271.111 
       0.239377         263.666         233.523          261.41 
       0.245482         251.398         225.703         250.415 
       0.251667         240.244         216.981         242.864 
       0.257832         235.173         207.033         231.754 
       0.263955         220.054         196.204         220.654 
       0.270079         208.873         185.208         210.306 
        0.27624         198.344         174.835         199.601 
       0.282372         190.823         165.801         191.707 
        0.28843         187.659         158.356         184.355 
       0.294538         178.334         152.156         178.004 
       0.300721          171.26         146.807         172.812 
        0.30691          168.05         141.854         167.787 
       0.313033         160.223         136.954          161.58 
       0.319153         156.903         131.829         156.195 
       0.325316         151.041         126.461         151.194 
        0.33145         145.558         121.068         144.912 
       0.337538         139.772          115.91         139.475 
       0.343633          134.91         111.127          135.58 
       0.349808         130.274         106.785         131.703 
       0.355968         126.733         102.944         128.311 
       0.362074         123.432         99.5259          124.22 
       0.368217         120.533         96.3416         119.899 
       0.374374         117.117         93.2621         116.656 
       0.380519         112.124         90.2218          113.07 
       0.386598         109.387         87.2104         110.286 
       0.392688         105.612         84.2159         107.034 
        0.39888         103.527         81.2553         103.802 
       0.405048         100.656         78.4443         101.169 
       0.411186         98.5301          75.826         98.5385 
       0.417313         95.7634         73.4074          95.492 
       0.423458         93.2138         71.1517         93.3029 
       0.429607         90.8662         69.0315          91.023 
       0.435692         89.3012         67.0323         88.7215 
       0.441815         86.4078         65.0812         87.1078 
       0.447964         83.3974         63.1634         84.7315 
       0.454126          81.822          61.286         82.1639 
       0.460267         80.8996         59.4669           80.93 
       0.466387         78.5558         57.7165         78.7325 
        0.47254         77.4754         56.0338         77.0526 
       0.478662         74.6319         54.4456         75.3606 
       0.484765         73.2674         52.9438         73.1862 
       0.490885         71.3929         51.5084         72.0345 
       0.497035           70.55         50.1274         70.7534 
       0.503198         68.9804         48.7959         69.0625 
       0.509342         67.0696         47.5112         67.7956 
       0.515458         65.8092         46.2678         66.7488 
       0.521598         64.0966         45.0547          64.802 
       0.527764         63.3348         43.8761         63.2656 
       0.533884         62.5315         42.7487          62.198 
           0.54         60.7198         41.6657         61.0001 
       0.546137         59.0971         40.6204         60.0425 
       0.552299         57.9169         39.6109          58.492 
       0.558452         56.8019         38.6409         57.2968 
       0.564573         56.3264         37.7104         56.5674 
       0.570708         54.6656          36.809         55.5679 
       0.576825         54.0223         35.9382         54.4213 
       0.582926          53.251         35.0951         53.4204 
       0.589034         52.1005         34.2756          52.767 
       0.595184         51.2831         33.4761         51.6339 
       0.601379         50.0631         32.6969          50.914 
       0.607522         48.9575         31.9503         49.6802 
       0.613639         48.4706         31.2319         49.0424 
       0.619772         47.4107         30.5349         48.1829 
       0.625918         46.8701         29.8586         47.5069 
       0.632068         46.0091         29.2023         46.6283 
       0.638161         45.1228         28.5713          45.946 
         0.6443         44.7197          27.954         45.0894 
       0.650464         43.5504         27.3525         44.2328 
       0.656582          43.317         26.7729         43.7429 
       0.662703         42.5472         26.2101         42.9091 
       0.668861         41.5822         25.6606          42.392 
       0.675024         41.2857         25.1266         41.5874 
       0.681124         40.6919         24.6135          40.962 
       0.687237         39.8812         24.1138         40.3587 
       0.693381         39.2969         23.6259         39.6659 
       0.699536         38.8564         23.1506         39.3281 
       0.705665          38.219         22.6905         38.8187 
       0.711789         37.5695         22.2433         37.9557 
       0.717957         36.9309         21.8051         37.5916 
        0.72409         36.4956         21.3812          37.153 
       0.730186         36.2106         20.9712         36.6165 
       0.736317         35.5272         20.5698         36.0121 
       0.742472         35.0027         20.1776         35.5511 
       0.748622         34.4196          19.796         35.0337 
        0.75476         33.9559         19.4252         34.5727 
       0.760888         33.7959         19.0645         34.0902 
       0.767043         33.0251         18.7117         33.7993 
       0.773185         32.5227         18.3686         33.3634 
       0.779291         32.1382         18.0361         32.9346 
       0.785407         31.7315         17.7114         32.4019 
       0.791564         31.6022         17.3927         32.0068 
       0.797719         30.8711          17.082         31.7607 
       0.803834         30.6941         16.7809         31.2415 
       0.809972         30.2578          16.486         30.8456 
       0.816124         29.8667         16.1976         30.5177 
       0.822261         29.3951         15.9169         30.0909 
       0.828378         29.2466         15.6437         29.6478 
       0.834502          28.841         15.3767          29.421 
       0.840667         28.5296         15.1143         29.1112 
       0.846816         28.1223         14.8587         28.7618 
       0.852925         27.8046         14.6107         28.4724 
       0.859047         27.6254         14.3679         28.0817 
       0.865192         27.1498         14.1298         27.7718 
       0.871341         26.8396         13.8969         27.4781 
       0.877463         26.5094         13.6704         27.1764 
       0.883569         26.3738         13.4496         26.9403 
       0.889708         26.0166         13.2325         26.6022 
       0.895864         25.7103         13.0196         26.2818 
       0.902008         25.4508          12.812          25.989 
       0.908149         25.0932         12.6089         25.8047 
       0.914301          24.844           12.41         25.5906 
       0.920448          24.683         12.2156         25.2193 
       0.926574         24.2973          12.026         24.9372 
       0.932687         24.0148         11.8409         24.7014 
       0.938823         23.6914          11.659          24.379 
       0.944975         23.4575         11.4805         24.1709 
       0.951105         23.2843         11.3065         23.9453 
       0.957225         23.0597         11.1363         23.6877 
       0.963368         22.7958         10.9691         23.4311 
       0.969511         22.5633         10.8053          23.178 
       0.975621         22.3717         10.6458         23.0269 
       0.981748         22.1091         10.4891         22.8057 
       0.987916         21.8997         10.3346         22.5933 
        0.99406         21.6621         10.1838         22.3335 
        1.00019         21.4679         10.0363         22.1097 
        1.00632         21.2988         9.89185         21.9196 
        1.01246          21.051         9.75006         21.7186 
        1.01859         20.8571         9.61129         21.5807 
        1.02471         20.6444          9.4754         21.3707 
        1.03085         20.4869         9.34168         21.1262 
        1.03698         20.3455         9.21084         20.9241 
        1.04314         20.1146         9.08195          20.704 
        1.04929         19.8122         8.95584          20.584 
        1.05541         19.7778         8.83264         20.4766 
        1.06154         19.5795         8.71147         20.2191 
        1.06769         19.2942         8.59239         20.0134 
        1.07382         19.1676         8.47593         19.8725 
        1.07993         19.0288         8.36189         19.6816 
        1.08607         18.8225         8.24949         19.5389 
        1.09222         18.6782         8.13904         19.4037 
        1.09836         18.4785         8.03074         19.2238 
        1.10449         18.3808         7.92454         19.0448 
        1.11063         18.1883         7.82015           18.87 
        1.11677         18.1111         7.71769         18.6942 
         1.1229          17.901         7.61724         18.5774 
        1.12903         17.7186         7.51849         18.4283 
        1.13518         17.6651         7.42142           18.26 
        1.14131         17.4765         7.32611         18.1076 
        1.14745         17.2882         7.23254         17.9962 
        1.15359         17.0765          7.1406         17.7995 
        1.15973         17.0174         7.05021         17.7061 
        1.16584         16.8576          6.9618         17.5451 
        1.17197          16.673         6.87479         17.4591 
        1.17811         16.5621           6.789         17.2491 
        1.18424         16.3618         6.70492         17.1323 
        1.19038         16.2833         6.62203         17.0559 
        1.19652         16.1182         6.54058         16.8649 
        1.20267         16.0508          6.4605         16.7663 
        1.20881         15.8856         6.38178          16.645 
        1.21495         15.8258          6.3045           16.54 
        1.22108         15.7153         6.22851         16.3942 
         1.2272         15.5396         6.15396         16.3014 
        1.23334         15.4662         6.08046         16.1707 
        1.23949         15.3248         6.00799         16.0086 
        1.24562         15.1736         5.93691         15.9204 
        1.25174         15.0901         5.86709         15.8165 
        1.25789         14.9818         5.79817         15.7052 
        1.26402         14.8709          5.7305         15.5613 
        1.27014         14.7659         5.66407         15.4755 
        1.27628         14.6207         5.59849         15.3527 
        1.28244         14.6173         5.53383         15.2883 
        1.28858         14.4243         5.47028         15.1572 
        1.29471         14.2945         5.40786         15.0601 
        1.30084         14.1888         5.34648          14.982 
        1.30697         14.1097         5.28596         14.8411 
        1.31312         14.0015         5.22629         14.7455 
        1.31925         13.9065         5.16772         14.6594 
        1.32537         13.7813         5.11011         14.5765 
        1.33151          13.666         5.05318         14.4778 
        1.33765         13.6457         4.99714         14.3672 
        1.34378         13.5434         4.94207         14.2886 
        1.34992         13.4046         4.88779         14.2073 
        1.35606         13.2908         4.83421         14.0956 
         1.3622         13.2258         4.78153         14.0079 
        1.36833         13.1675         4.72976         13.9396 
        1.37445         13.0559         4.67879         13.8293 
        1.38059         12.9477         4.62841          13.741 
        1.38675         12.8992         4.57865         13.6728 
        1.39288         12.7716         4.52983         13.5668 
        1.39901         12.6727         4.48174         13.4828 
        1.40515          12.617         4.43424         13.3931 
         1.4113         12.5443         4.38745         13.3028 
        1.41742         12.4635         4.34151         13.2392 
        1.42355         12.3434         4.29614         13.1753 
         1.4297         12.2856         4.25129         13.0639 
        1.43585         12.1969         4.20709         13.0043 
        1.44198         12.1548          4.1637          12.929 
        1.44809         12.0513         4.12099         12.8619 
        1.45423         11.9741         4.07873          12.751 
        1.46036         11.9088         4.03714         12.6782 
        1.46649          11.816         3.99611         12.6325 
        1.47263         11.7383         3.95563         12.5737 
        1.47877         11.6511         3.91572          12.488 
        1.48491         11.5921          3.8763         12.4096 
        1.49104         11.5167         3.83751         12.3289 
        1.49718          11.489         3.79922         12.2753 
        1.50333         11.4148         3.76139         12.2024 
        1.50947         11.2968         3.72416         12.1356 
         1.5156         11.2688         3.68748         12.0745 
        1.52172          11.191          3.6513          11.996 
        1.52787         11.1501         3.61553         11.9179 
          1.534         11.0575         3.58029         11.8557 
        1.54013         11.0153         3.54555         11.7861 
        1.54627         10.9147         3.51121         11.7111 
        1.55241         10.8376         3.47732         11.6478 
        1.55855         10.7899         3.44392         11.5957 
        1.56467         10.7137         3.41105         11.5459 
         1.5708         10.6811         3.37852         11.4756 
        1.57695          10.615         3.34636         11.4059 
        1.58308         10.5341          3.3147         11.3583 
        1.58922         10.4755         3.28342          11.304 
        1.59535         10.4144         3.25256         11.2285 
         1.6015          10.356         3.22205         11.1724 
        1.60764         10.2975         3.19195         11.1124 
        1.61376         10.2422         3.16231         11.0434 
        1.61989          10.148         3.13303         11.0194 
        1.62604         10.1075         3.10405         10.9633 
        1.63218         10.0465         3.07546         10.9008 
        1.63831         9.99137         3.04729         10.8618 
        1.64444         9.94683         3.01947         10.8073 
        1.65059         9.88631         2.99193         10.7324 
        1.65673         9.82773         2.96476         10.6754 
        1.66285         9.76146           2.938         10.6322 
        1.66898          9.7163         2.91157         10.5763 
        1.67512         9.69915         2.88541         10.5087 
        1.68127         9.62297         2.85955         10.4675 
         1.6874         9.58826         2.83406         10.4184 
        1.69353         9.49325          2.8089         10.3277 
        1.69967         9.44454         2.78398         10.2981 
        1.70581         9.41698         2.75938         10.2645 
        1.71193         9.35244         2.73516         10.2113 
        1.71806         9.29811         2.71119         10.1855 
        1.72421         9.25697         2.68745         10.1313 
        1.73035         9.20845         2.66403         10.0824 
        1.73649         9.14749         2.64089         10.0456 
        1.74262         9.11904         2.61804          9.9695 
        1.74876         9.06693         2.59545         9.91341 
        1.75489         9.00693         2.57317         9.87971 
        1.76101         8.94804         2.55116         9.84128 
        1.76715         8.91957         2.52938          9.7907 
        1.77329         8.86965         2.50783         9.73273 
        1.77943         8.82574         2.48651         9.68058 
        1.78557          8.8081         2.46548         9.64057 
        1.79171         8.73208         2.44469         9.60138 
        1.79785         8.67453         2.42413         9.56131 
        1.80399         8.63639         2.40381         9.52272 
        1.81012         8.60077         2.38375         9.48088 
        1.81625         8.55471         2.36394         9.44482 
        1.82239         8.50637         2.34431         9.41075 
        1.82853         8.46627         2.32492         9.36442 
        1.83466          8.4126         2.30577         9.32042 
        1.84078         8.37116         2.28685         9.27683 
        1.84692         8.35182         2.26811         9.22088 
        1.85306         8.30486         2.24957         9.18488 
         1.8592         8.26476         2.23125         9.16036 
        1.86533         8.21838         2.21315         9.11524 
        1.87147         8.17025         2.19523         9.06443 
