# k  (h/Mpc)    Pcb(k)  (Mpc/h)^3    Pcb_linear(k) (Mpc/h)^3    Pcb_NL(k) (Mpc/h)^3   ShotnoiseSubtracted = false
     0.00783031         4766.74         4803.54         4759.58 
       0.013688         5267.73         5352.27         5317.63 
       0.019231         4906.35         4942.08         4913.95 
      0.0249154         4181.46         4160.98          4146.1 
      0.0312784         3268.92         3264.74         3264.82 
      0.0375637         2564.77         2570.48         2573.37 
      0.0433917         2149.43         2139.25         2141.99 
      0.0492413         1876.67         1875.35         1878.13 
      0.0555754         1718.24         1708.18         1708.62 
      0.0619321         1569.48         1587.43         1586.62 
       0.067871         1463.56         1466.01         1464.91 
      0.0738098         1318.88         1316.36          1313.4 
      0.0800417         1146.02         1137.49          1137.8 
      0.0862327          969.52         963.201         968.746 
      0.0921407         830.961          822.94         830.179 
      0.0982031         732.088         717.345         727.958 
       0.104506           653.5          647.93         660.098 
       0.110769         615.561         609.092         617.565 
       0.116806         596.524         585.813         592.123 
       0.122832          567.77         563.069         568.826 
       0.129052         536.988         530.831         535.738 
       0.135211         498.948         487.941         493.911 
       0.141259         447.784         439.393         447.607 
       0.147318         398.358         391.419         403.047 
       0.153489         359.305         349.669         359.971 
       0.159709          331.55         318.292         329.823 
       0.165845         305.307         297.744         311.139 
       0.171974          298.09         284.844         296.265 
       0.178125         287.187         275.604         287.492 
       0.184229         273.559         266.322         277.076 
        0.19034         264.184         254.428         264.277 
       0.196428         249.836         239.392         248.238 
       0.202534         228.626         222.221         232.122 
       0.208729         216.392         204.693         215.098 
       0.214876         202.635         189.137         201.886 
       0.220989         186.832         176.626         189.897 
       0.227147         180.343         167.176         180.073 
        0.23329         173.111         160.264         173.528 
       0.239377         168.507         154.815         167.451 
       0.245482         161.193         149.631         160.685 
       0.251667         153.916         143.849         155.488 
       0.257832         150.122         137.253         148.367 
       0.263955         140.561         130.075         141.023 
       0.270079         133.164         122.785         134.006 
        0.27624         126.097         115.908         126.954 
       0.282372         120.788         109.919         121.603 
        0.28843         118.208         104.983         116.712 
       0.294538         112.678         100.873         112.476 
       0.300721         107.922         97.3265         109.027 
        0.30691         105.741         94.0432          105.67 
       0.313033          101.13         90.7948         101.794 
       0.319153         98.9078         87.3966         98.3093 
       0.325316         94.5215         83.8382         94.9628 
        0.33145         90.7984         80.2629         90.9853 
       0.337538         87.2565         76.8436         87.4009 
       0.343633         84.2299         73.6724         84.5227 
       0.349808         81.1116         70.7941         81.9223 
       0.355968         78.5852         68.2473         79.7107 
       0.362074         76.8003         65.9813         77.0426 
       0.368217         74.5899         63.8702         74.3205 
       0.374374         72.5282         61.8287         72.2818 
       0.380519          69.437         59.8131         69.9663 
       0.386598         67.4034         57.8167          68.027 
       0.392688         65.0207         55.8315         66.0203 
        0.39888         63.6981         53.8687         63.9187 
       0.405048         61.8881         52.0051         61.9928 
       0.411186          60.167         50.2693         60.4601 
       0.417313         58.3343         48.6659         58.5196 
       0.423458         56.6686         47.1705         57.0752 
       0.429607         55.4239         45.7649          55.521 
       0.435692         54.4233         44.4395         54.1175 
       0.441815         52.3611          43.146         52.9859 
       0.447964         50.4841         41.8746          51.426 
       0.454126         49.5564         40.6299         49.9095 
       0.460267         48.9068          39.424         48.9827 
       0.466387         47.4343         38.2635         47.5475 
        0.47254         46.6682          37.148         46.4893 
       0.478662         44.9449          36.095          45.366 
       0.484765         43.9888         35.0994         44.0677 
       0.490885         42.6939         34.1479         43.3224 
       0.497035         42.0617         33.2323         42.4742 
       0.503198         41.0949         32.3495         41.3177 
       0.509342          39.874         31.4979         40.4971 
       0.515458         39.1496         30.6735          39.816 
       0.521598          38.157         29.8693         38.5974 
       0.527764         37.5711         29.0879         37.5845 
       0.533884         36.8646         28.3406         36.8557 
           0.54          35.916         27.6226         36.1194 
       0.546137         34.8205         26.9296         35.4824 
       0.552299         34.1194         26.2603         34.5173 
       0.558452         33.3531         25.6172         33.7862 
       0.564573         32.9914         25.0004          33.302 
       0.570708         32.0546         24.4028         32.6468 
       0.576825         31.6347         23.8254         31.9607 
       0.582926         31.0671         23.2665         31.3337 
       0.589034         30.3531         22.7233         30.8827 
       0.595184         29.8856         22.1932         30.1298 
       0.601379          29.081         21.6767         29.7043 
       0.607522         28.4767         21.1817         28.9541 
       0.613639         28.0916         20.7054          28.487 
       0.619772         27.4661         20.2433         28.0001 
       0.625918         26.9939         19.7949         27.5452 
       0.632068         26.6494         19.3599         26.9772 
       0.638161         26.0387         18.9415         26.5147 
         0.6443         25.6821         18.5323         25.9852 
       0.650464         24.9903         18.1335         25.5691 
       0.656582         24.8025         17.7493         25.1743 
       0.662703         24.3688         17.3762          24.666 
       0.668861         23.7625         17.0118         24.3645 
       0.675024         23.4509         16.6579         23.8237 
       0.681124         23.2379         16.3177         23.4424 
       0.687237          22.731         15.9864         23.0461 
       0.693381         22.2848         15.6629         22.6253 
       0.699536         22.0799         15.3478         22.3813 
       0.705665         21.6229         15.0428          22.064 
       0.711789         21.2563         14.7463         21.5577 
       0.717957         20.7984         14.4558         21.3069 
        0.72409         20.5651         14.1748         21.0122 
       0.730186         20.4107          13.903         20.6572 
       0.736317         19.9637         13.6369         20.3133 
       0.742472          19.715         13.3768         20.0477 
       0.748622         19.3421         13.1239         19.7123 
        0.75476         18.8953         12.8781         19.4423 
       0.760888          18.829          12.639         19.1786 
       0.767043         18.4261          12.405         18.9292 
       0.773185         18.1644         12.1776         18.6354 
       0.779291         17.9234         11.9571         18.4017 
       0.785407         17.6669         11.7419         18.0953 
       0.791564         17.5405         11.5306         17.8524 
       0.797719         17.0805         11.3246         17.6479 
       0.803834         17.0139          11.125          17.353 
       0.809972         16.6704         10.9295         17.1336 
       0.816124         16.4725         10.7383          16.895 
       0.822261         16.2402         10.5522         16.6539 
       0.828378         16.0755         10.3711         16.4007 
       0.834502         15.8668         10.1941         16.2436 
       0.840667         15.6741         10.0201         16.0152 
       0.846816         15.3477         9.85069         15.8079 
       0.852925         15.2494         9.68627         15.6698 
       0.859047         15.0588         9.52528         15.4323 
       0.865192         14.8201         9.36743         15.2216 
       0.871341         14.6324         9.21307         15.0603 
       0.877463         14.4261         9.06291         14.8687 
       0.883569         14.3056         8.91648         14.6813 
       0.889708         14.0778         8.77256         14.4995 
       0.895864         13.8754         8.63146         14.2959 
       0.902008         13.7342         8.49377          14.147 
       0.908149          13.512         8.35918         14.0008 
       0.914301         13.4004          8.2273         13.8871 
       0.920448          13.218          8.0984         13.6531 
       0.926574         13.0817         7.97272         13.4836 
       0.932687         12.8815         7.84999         13.3086 
       0.938823         12.6889         7.72941         13.1524 
       0.944975         12.5978         7.61109         13.0284 
       0.951105         12.4587         7.49569         12.8424 
       0.957225         12.3398         7.38289         12.7297 
       0.963368         12.1336         7.27204         12.5739 
       0.969511         12.0037         7.16347         12.4282 
       0.975621          11.895         7.05771         12.3084 
       0.981748          11.721         6.95383         12.1776 
       0.987916         11.6388         6.85139          12.027 
        0.99406          11.456         6.75141         11.9031 
        1.00019         11.3711         6.65362         11.7838 
        1.00632         11.2757         6.55787          11.665 
        1.01246         11.1099         6.46387         11.5654 
        1.01859         10.9914         6.37187         11.4414 
        1.02471         10.8666         6.28178         11.2914 
        1.03085         10.7926         6.19313         11.1735 
        1.03698         10.6924         6.10639         11.0663 
        1.04314         10.5339         6.02094         10.9427 
        1.04929         10.3854         5.93734         10.8604 
        1.05541         10.3205         5.85566         10.7778 
        1.06154         10.2247         5.77533         10.6266 
        1.06769          10.094         5.69638         10.5017 
        1.07382         9.96936         5.61917         10.4221 
        1.07993         9.88529         5.54357          10.317 
        1.08607         9.79653         5.46905         10.2263 
        1.09222         9.68262         5.39583         10.1422 
        1.09836          9.5842         5.32404         10.0217 
        1.10449         9.50834         5.25363         9.91887 
        1.11063          9.4336         5.18443         9.83164 
        1.11677         9.35317         5.11649         9.72537 
         1.1229         9.24252          5.0499         9.65723 
        1.12903         9.13769         4.98443         9.57166 
        1.13518         9.06453         4.92008         9.47081 
        1.14131         8.98647          4.8569         9.38211 
        1.14745         8.84471         4.79487         9.30376 
        1.15359          8.7472         4.73391         9.19956 
        1.15973         8.69701         4.67399         9.12812 
        1.16584          8.6011         4.61538         9.05322 
        1.17197         8.50179         4.55769         9.00159 
        1.17811          8.4444         4.50081         8.87001 
        1.18424         8.36718         4.44507         8.80684 
        1.19038         8.32198         4.39012         8.74528 
        1.19652         8.20393         4.33612         8.64779 
        1.20267         8.16846         4.28303         8.58728 
        1.20881         8.04345         4.23084         8.51457 
        1.21495         7.99855         4.17961         8.44103 
        1.22108         7.93099         4.12923         8.37285 
         1.2272         7.85146         4.07981         8.29715 
        1.23334         7.80864         4.03108         8.23608 
        1.23949         7.72902         3.98304         8.15686 
        1.24562         7.63177         3.93592         8.08867 
        1.25174         7.60408         3.88963         8.02786 
        1.25789         7.52605         3.84394         7.95551 
        1.26402         7.45544         3.79907         7.88586 
        1.27014         7.41605         3.75503         7.82677 
        1.27628         7.32428         3.71156         7.74977 
        1.28244         7.29392         3.66869         7.71073 
        1.28858         7.20587         3.62656         7.64367 
        1.29471          7.1298         3.58518         7.58675 
        1.30084         7.06838         3.54449         7.54576 
        1.30697         7.03186         3.50436         7.46713 
        1.31312         6.97172          3.4648         7.40827 
        1.31925         6.92361         3.42598         7.36535 
        1.32537         6.84983         3.38779         7.31231 
        1.33151         6.79546         3.35004         7.25171 
        1.33765          6.7521         3.31289         7.18472 
        1.34378         6.70937         3.27638         7.13033 
        1.34992         6.63689          3.2404         7.08783 
        1.35606         6.57095         3.20488         7.02536 
         1.3622          6.5213         3.16995          6.9679 
        1.36833         6.49268         3.13563          6.9412 
        1.37445         6.43699         3.10184         6.87666 
        1.38059         6.37138         3.06844         6.81626 
        1.38675         6.34184         3.03545         6.78424 
        1.39288         6.27728         3.00308         6.72747 
        1.39901         6.21817          2.9712         6.67751 
        1.40515         6.17954         2.93971         6.62794 
         1.4113         6.13197         2.90869         6.58228 
        1.41742         6.09404         2.87823         6.54567 
        1.42355         6.03218         2.84816         6.49855 
         1.4297         5.99138         2.81842         6.44071 
        1.43585         5.94834         2.78912          6.4062 
        1.44198         5.91754         2.76035         6.36098 
        1.44809         5.86536         2.73204         6.31717 
        1.45423         5.81624         2.70402         6.26815 
        1.46036         5.77268         2.67645         6.22337 
        1.46649         5.73482         2.64925         6.19049 
        1.47263         5.69214         2.62241         6.15745 
        1.47877          5.6416         2.59595         6.10227 
        1.48491         5.61367         2.56982          6.0573 
        1.49104         5.56984          2.5441         6.02269 
        1.49718         5.53807         2.51872         5.98646 
        1.50333         5.50172         2.49364         5.94643 
        1.50947         5.45477         2.46896          5.9103 
         1.5156         5.42386         2.44464         5.87413 
        1.52172         5.36838         2.42065         5.83144 
        1.52787         5.35822         2.39694         5.78692 
          1.534         5.30628         2.37358         5.75118 
        1.54013         5.27788         2.35055         5.71067 
        1.54627          5.2323         2.32778         5.67189 
        1.55241         5.17875         2.30531         5.63951 
        1.55855         5.16602         2.28317         5.60325 
        1.56467          5.1373         2.26138         5.57428 
         1.5708         5.09067         2.23981         5.54426 
        1.57695         5.05789          2.2185         5.50399 
        1.58308         5.02275          2.1975         5.47026 
        1.58922         4.99436         2.17677         5.44555 
        1.59535         4.96324         2.15631         5.41274 
         1.6015         4.90421         2.13608         5.37288 
        1.60764           4.879         2.11613         5.33657 
        1.61376         4.85674         2.09648         5.30923 
        1.61989         4.81717         2.07707         5.28251 
        1.62604         4.80003         2.05785         5.24972 
        1.63218         4.76394          2.0389         5.22027 
        1.63831         4.72975         2.02023          5.1929 
        1.64444         4.69317         2.00178         5.15579 
        1.65059          4.6578         1.98352         5.12389 
        1.65673         4.64309         1.96551         5.09782 
        1.66285          4.6031         1.94777         5.06834 
        1.66898         4.58697         1.93025         5.03223 
        1.67512         4.56184          1.9129         5.00379 
        1.68127         4.51036         1.89576         4.97913 
         1.6874         4.50225         1.87886         4.95327 
        1.69353         4.45116         1.86218         4.92373 
        1.69967         4.43604         1.84566         4.89169 
        1.70581         4.40362         1.82935         4.86442 
        1.71193         4.37852          1.8133         4.84273 
        1.71806         4.35063          1.7974         4.81973 
        1.72421         4.32234         1.78167         4.79125 
        1.73035         4.30658         1.76614         4.76527 
        1.73649         4.28053          1.7508         4.74115 
        1.74262         4.23714         1.73565         4.70825 
        1.74876         4.22568         1.72067           4.681 
        1.75489         4.20247         1.70591         4.65482 
        1.76101          4.1595         1.69131         4.62666 
        1.76715         4.15839         1.67687         4.61004 
        1.77329         4.11906         1.66258         4.58548 
        1.77943         4.08547         1.64845         4.55447 
        1.78557         4.08738         1.63451         4.52942 
        1.79171          4.0498         1.62072         4.50361 
        1.79785         4.03067         1.60709         4.47875 
        1.80399         4.00969         1.59362         4.45956 
        1.81012         3.97646         1.58033         4.44155 
        1.81625         3.95684         1.56719         4.41951 
        1.82239         3.93327         1.55418         4.39575 
        1.82853         3.89951         1.54132         4.37561 
        1.83466         3.87536         1.52863         4.35519 
        1.84078         3.85281         1.51608         4.33185 
        1.84692         3.84312         1.50366          4.3062 
        1.85306         3.81625         1.49137         4.28011 
         1.8592         3.80041         1.47923         4.25786 
        1.86533         3.77256         1.46723         4.23868 
        1.87147         3.75744         1.45535          4.2153 
