# k  (h/Mpc)    Pcb(k)  (Mpc/h)^3    Pcb_linear(k) (Mpc/h)^3    Pcb_NL(k) (Mpc/h)^3   ShotnoiseSubtracted = false
     0.00783031         24025.7         24163.7         23927.4 
       0.013688         26113.4         26905.3         26684.8 
       0.019231         24420.3           24836         24635.3 
      0.0249154         21073.2         20907.3         20755.8 
      0.0312784         16322.9         16402.3         16311.7 
      0.0375637         12775.5         12913.4         12874.7 
      0.0433917         10781.8         10746.6         10702.6 
      0.0492413         9401.33         9420.57         9386.15 
      0.0555754         8626.43         8580.63         8554.28 
      0.0619321         7760.79         7973.94         7947.59 
       0.067871          7279.9         7363.94         7352.52 
      0.0738098         6628.66         6612.12         6549.64 
      0.0800417         5788.41         5713.63         5709.98 
      0.0862327         4923.88         4838.13         4937.88 
      0.0921407         4295.27         4133.58         4262.65 
      0.0982031         3839.84         3603.17         3804.98 
       0.104506         3415.09         3254.49         3495.93 
       0.110769         3224.63         3059.39         3236.24 
       0.116806         3121.95         2942.46         3082.09 
       0.122832         2965.74         2828.21         2955.23 
       0.129052         2771.51         2666.28         2780.36 
       0.135211         2644.86         2450.84         2578.62 
       0.141259         2377.06         2206.99         2383.46 
       0.147318          2154.8         1966.02         2198.08 
       0.153489         1976.92         1756.32         1971.91 
       0.159709         1878.15         1598.72         1841.74 
       0.165845         1726.66         1495.51         1767.78 
       0.171974         1686.51         1430.71          1678.4 
       0.178125         1636.34          1384.3         1637.52 
       0.184229         1513.84         1337.67         1563.85 
        0.19034         1484.69         1277.93         1490.33 
       0.196428         1428.01         1202.41         1411.73 
       0.202534         1322.11         1116.16         1342.34 
       0.208729         1285.71         1028.12          1251.2 
       0.214876          1209.8         949.991         1206.88 
       0.220989         1143.02         887.148         1157.57 
       0.227147          1107.3         839.686         1114.65 
        0.23329         1062.32         804.965         1083.22 
       0.239377         1055.84         777.599         1041.64 
       0.245482         1002.44         751.561         998.239 
       0.251667         965.615         722.517         972.951 
       0.257832         944.176         689.389         932.019 
       0.263955         895.514         653.332         896.004 
       0.270079         864.007         616.716         863.277 
        0.27624          826.32         582.177         828.838 
       0.282372         811.951         552.093         807.265 
        0.28843         794.873         527.303          786.78 
       0.294538         756.626         506.658         761.776 
       0.300721         740.392         488.845         739.999 
        0.30691         720.242         472.355         728.621 
       0.313033         689.363         456.039         702.883 
       0.319153         680.905          438.97         682.109 
       0.325316         668.696         421.097         665.335 
        0.33145         650.761         403.139         639.386 
       0.337538         626.922         385.965         623.806 
       0.343633         611.553         370.037         614.433 
       0.349808          597.06          355.58         602.059 
       0.355968         584.971         342.788         588.415 
       0.362074         562.805         331.406         576.318 
       0.368217         559.319         320.803         560.559 
       0.374374          550.65         310.549         547.723 
       0.380519         528.809         300.425         534.487 
       0.386598          523.52         290.398         528.456 
       0.392688         508.868         280.426         513.537 
        0.39888         498.207         270.568         502.466 
       0.405048         485.103         261.208         492.201 
       0.411186         485.024         252.489         481.219 
       0.417313         476.822         244.435         472.404 
       0.423458         465.445         236.925         464.119 
       0.429607         450.731         229.864         456.238 
       0.435692         444.215         223.208         443.794 
       0.441815         436.254          216.71         440.091 
       0.447964         427.868         210.324         433.646 
       0.454126         422.583         204.073         420.988 
       0.460267         415.926         198.016         418.161 
       0.466387         405.677         192.187         410.986 
        0.47254         402.301         186.584         403.458 
       0.478662         393.213         181.295         395.365 
       0.484765          387.05         176.295         389.311 
       0.490885         384.608         171.515         382.195 
       0.497035         374.348         166.916         377.551 
       0.503198         373.327         162.483         372.495 
       0.509342         365.969         158.205         366.269 
       0.515458         358.581         154.065         361.927 
       0.521598         355.568         150.025          356.56 
       0.527764         348.522         146.101          353.17 
       0.533884         344.044         142.347         348.182 
           0.54         340.667          138.74         342.129 
       0.546137         334.039          135.26         338.062 
       0.552299          331.93         131.898          333.05 
       0.558452         326.153         128.668         329.164 
       0.564573         324.909          125.57         326.296 
       0.570708         318.528         122.568         322.141 
       0.576825         313.317         119.669           316.2 
       0.582926         312.177         116.861          313.58 
       0.589034         305.648         114.133         309.459 
       0.595184         303.578          111.47         304.391 
       0.601379         298.246         108.876         300.986 
       0.607522         292.458          106.39          296.32 
       0.613639         291.398         103.997         295.627 
       0.619772         289.763         101.677         293.516 
       0.625918         283.793         99.4244         288.214 
       0.632068         282.451         97.2392         285.529 
       0.638161         279.045          95.138         283.486 
         0.6443         274.832         93.0825         279.631 
       0.650464          272.51         91.0796         274.603 
       0.656582         268.942         89.1497         272.838 
       0.662703         268.201         87.2756         270.419 
       0.668861         262.645         85.4456          268.74 
       0.675024         261.701         83.6677         265.989 
       0.681124         256.607         81.9591         261.912 
       0.687237         255.824         80.2953         259.213 
       0.693381         251.627         78.6704          256.57 
       0.699536         251.174         77.0879         254.786 
       0.705665         247.533         75.5557         251.052 
       0.711789         244.713         74.0666         249.869 
       0.717957         243.273         72.6076         248.495 
        0.72409         239.913         71.1961         245.237 
       0.730186         240.271         69.8309         242.492 
       0.736317         236.064         68.4943         240.825 
       0.742472         234.371         67.1881         238.631 
       0.748622         232.671         65.9175         235.943 
        0.75476         230.486         64.6828         235.842 
       0.760888         228.532         63.4819         232.461 
       0.767043         225.371          62.307         230.392 
       0.773185         222.921         61.1645         228.769 
       0.779291          221.69         60.0573         226.245 
       0.785407         220.007         58.9761         224.457 
       0.791564         218.526         57.9148         222.523 
       0.797719         215.161         56.8803         220.826 
       0.803834         214.673         55.8777         219.576 
       0.809972         211.617         54.8958         217.561 
       0.816124         209.721         53.9354         215.545 
       0.822261         207.864         53.0007         214.573 
       0.828378         206.913          52.091          212.38 
       0.834502         204.062          51.202         210.707 
       0.840667         203.666         50.3282         208.757 
       0.846816         200.867         49.4772         207.526 
       0.852925         200.675         48.6514         206.053 
       0.859047         197.701         47.8428         204.423 
       0.865192         196.981         47.0499         202.459 
       0.871341         195.239         46.2746          201.05 
       0.877463         193.741         45.5204         199.988 
       0.883569         192.856         44.7849         199.625 
       0.889708         191.222         44.0621         197.069 
       0.895864         188.473         43.3533         196.058 
       0.902008         187.335         42.6618          194.06 
       0.908149         185.308         41.9858         192.676 
       0.914301         184.583         41.3234         191.135 
       0.920448         182.883         40.6759         190.142 
       0.926574         181.384         40.0447         188.731 
       0.932687         181.062         39.4282         187.257 
       0.938823         179.265         38.8226         186.665 
       0.944975         178.882         38.2283          185.03 
       0.951105          176.73         37.6487         183.945 
       0.957225         175.301         37.0821         182.409 
       0.963368         175.089         36.5254         181.246 
       0.969511         172.769         35.9801         180.057 
       0.975621         170.571         35.4489         179.155 
       0.981748         170.358         34.9271         178.287 
       0.987916         169.266         34.4126         176.749 
        0.99406         167.714         33.9104         175.615 
        1.00019          166.78         33.4192         174.471 
        1.00632         165.744         32.9383         173.177 
        1.01246         164.464         32.4662         171.691 
        1.01859         162.817         32.0041         171.056 
        1.02471         161.569         31.5516          170.06 
        1.03085         160.947         31.1063         169.089 
        1.03698         160.034         30.6706         168.518 
        1.04314         159.061         30.2415         167.053 
        1.04929         157.802         29.8215         165.857 
        1.05541         157.639         29.4113         165.126 
        1.06154         155.983         29.0078         164.409 
        1.06769         154.978         28.6113         163.413 
        1.07382         153.066         28.2235         162.448 
        1.07993         152.789         27.8438         161.517 
        1.08607         152.164         27.4695         160.271 
        1.09222         150.549         27.1017         159.549 
        1.09836         149.595         26.7411          158.58 
        1.10449         149.011         26.3875         158.097 
        1.11063         147.707         26.0399         156.917 
        1.11677         146.597         25.6987         155.778 
         1.1229         146.262         25.3642         154.924 
        1.12903          144.44         25.0354         154.046 
        1.13518         143.778         24.7121          153.28 
        1.14131         143.164         24.3948          152.34 
        1.14745          141.96         24.0832         151.294 
        1.15359         141.117          23.777         150.739 
        1.15973         140.428         23.4761         149.921 
        1.16584         139.578         23.1817         149.183 
        1.17197         138.885         22.8919         148.528 
        1.17811         137.364         22.6063         147.499 
        1.18424          136.84         22.3263         146.502 
        1.19038         136.037         22.0503         146.296 
        1.19652         134.622         21.7791         145.006 
        1.20267          134.02         21.5124         144.627 
        1.20881         133.223         21.2503         143.675 
        1.21495         132.722          20.993         142.978 
        1.22108         131.564         20.7399         142.152 
         1.2272         131.258         20.4917         141.446 
        1.23334         129.958          20.247         140.926 
        1.23949         129.515         20.0057         140.028 
        1.24562         128.522          19.769         138.932 
        1.25174         128.105         19.5365         138.298 
        1.25789         127.052          19.307         137.475 
        1.26402         126.301         19.0816         137.134 
        1.27014         125.688         18.8604         136.513 
        1.27628         125.234         18.6421         136.161 
        1.28244         124.032         18.4268         135.155 
        1.28858           123.3         18.2151         134.508 
        1.29471         122.362         18.0073         133.787 
        1.30084         121.923         17.8029         132.892 
        1.30697         121.184         17.6014         132.232 
        1.31312         120.683         17.4027         131.432 
        1.31925         119.557         17.2077         131.067 
        1.32537         119.194         17.0159         130.552 
        1.33151         118.037         16.8263         129.803 
        1.33765         117.885         16.6397         129.204 
        1.34378         117.145         16.4563         128.655 
        1.34992          116.25         16.2756         127.937 
        1.35606         115.736         16.0971         127.165 
         1.3622         115.055         15.9217          126.79 
        1.36833         114.462         15.7493         126.028 
        1.37445         113.579         15.5796         125.369 
        1.38059         112.944         15.4119         124.685 
        1.38675         112.264         15.2462          124.02 
        1.39288         111.571         15.0836         123.506 
        1.39901         110.873         14.9235         123.066 
        1.40515         110.296         14.7653          122.52 
         1.4113          109.85         14.6095         121.932 
        1.41742         109.318         14.4565         121.353 
        1.42355         108.321         14.3055         120.664 
         1.4297          107.75         14.1561         120.215 
        1.43585         107.544         14.0089         119.586 
        1.44198         106.712         13.8644         119.308 
        1.44809         106.089         13.7222         118.532 
        1.45423         105.601         13.5815         117.836 
        1.46036         104.943          13.443         117.359 
        1.46649         104.076         13.3064         116.987 
        1.47263         103.921         13.1716           116.5 
        1.47877         103.128         13.0387         115.695 
        1.48491         102.355         12.9075         115.157 
        1.49104         101.894         12.7783         114.938 
        1.49718         101.224         12.6508         114.195 
        1.50333         100.548         12.5248         113.526 
        1.50947         100.278         12.4008         113.129 
         1.5156         99.5743         12.2787         112.727 
        1.52172         98.9705         12.1582         112.207 
        1.52787         98.5313         12.0391         111.671 
          1.534         98.0312         11.9218          111.19 
        1.54013         97.6518         11.8061         110.765 
        1.54627         96.8903         11.6917          110.32 
        1.55241         96.3968         11.5789         109.765 
        1.55855         95.6534         11.4677         109.135 
        1.56467         95.2429         11.3582         108.778 
         1.5708          94.854         11.2499         108.296 
        1.57695         94.3329         11.1428         107.774 
        1.58308         93.4674         11.0374         107.427 
        1.58922         93.1238         10.9333         106.933 
        1.59535         92.6872         10.8305          106.44 
         1.6015         92.0181         10.7289         105.972 
        1.60764         91.6595         10.6287         105.518 
        1.61376          91.312           10.53         105.127 
        1.61989         90.6817         10.4325         104.709 
        1.62604         90.3784          10.336         103.994 
        1.63218          89.545         10.2408          103.49 
        1.63831         89.3509          10.147         103.302 
        1.64444         88.5895         10.0543         102.845 
        1.65059         88.0844         9.96263         102.366 
        1.65673         87.7392         9.87216         101.858 
        1.66285         87.5694         9.78307          101.47 
        1.66898         86.8642         9.69505         101.191 
        1.67512         86.0062         9.60794         100.661 
        1.68127          85.916         9.52182          100.28 
         1.6874         85.5772         9.43695         99.9443 
        1.69353         84.8048         9.35316         99.3655 
        1.69967         84.5115          9.2702         99.0179 
        1.70581         83.9163         9.18827          98.631 
        1.71193         83.6412         9.10765         98.1343 
        1.71806         82.8512         9.02781          97.767 
        1.72421         82.4771         8.94878         97.4186 
        1.73035         82.1791         8.87079         97.0229 
        1.73649         81.7476         8.79373          96.555 
        1.74262         81.1037         8.71766         96.0309 
        1.74876         80.7142         8.64243         95.6657 
        1.75489         80.5668         8.56825         95.3607 
        1.76101         80.0823         8.49496         94.9863 
        1.76715         79.5613         8.42243         94.6036 
        1.77329          79.132         8.35065         94.1638 
        1.77943         78.6002         8.27969         93.7603 
        1.78557         78.2154         8.20965         93.4551 
        1.79171         77.7968         8.14041         93.0401 
        1.79785         77.3627         8.07195         92.5983 
        1.80399          76.845          8.0043         92.2797 
        1.81012         76.5247         7.93751         91.9105 
        1.81625         75.9269         7.87152         91.5059 
        1.82239          75.742         7.80617         91.1371 
        1.82853         75.2406          7.7416         90.7732 
        1.83466         74.8018         7.67782         90.3743 
        1.84078         74.5263         7.61483         90.0164 
        1.84692         74.1175         7.55245         89.7861 
        1.85306           73.72         7.49068         89.3569 
         1.8592         73.4114          7.4297         88.8695 
        1.86533         72.8906         7.36944          88.618 
        1.87147         72.4839         7.30977         88.3151 
