# k  (h/Mpc)    Pcb(k)  (Mpc/h)^3    Pcb_linear(k) (Mpc/h)^3    Pcb_NL(k) (Mpc/h)^3   ShotnoiseSubtracted = false
     0.00783031           13007         13092.8         12970.5 
       0.013688         14250.7         14582.4         14477.7 
       0.019231         13302.6         13462.6         13372.6 
      0.0249154         11413.1         11333.8         11275.8 
      0.0312784         8880.76         8892.06         8871.39 
      0.0375637         6956.45         7000.88         6996.52 
      0.0433917         5852.76         5826.25          5820.4 
      0.0492413         5104.94         5107.43         5104.15 
      0.0555754         4683.15          4652.1         4647.22 
      0.0619321         4240.77         4323.21         4316.48 
       0.067871         3971.21         3992.52         3989.24 
      0.0738098         3595.05         3584.92          3566.8 
      0.0800417         3133.14          3097.8         3098.38 
      0.0862327          2655.5         2623.13         2656.61 
      0.0921407         2293.81         2241.14         2284.06 
      0.0982031         2036.22         1953.57          2019.6 
       0.104506          1811.7         1764.52         1842.83 
       0.110769         1708.99         1658.75         1714.45 
       0.116806         1658.86         1595.35         1638.72 
       0.122832         1574.18         1533.41         1573.55 
       0.129052         1482.84         1445.62          1480.9 
       0.135211         1396.02         1328.81         1369.78 
       0.141259         1253.05          1196.6         1252.62 
       0.147318         1122.23         1065.95         1142.39 
       0.153489         1021.12         952.252         1021.08 
       0.159709         957.243         866.803         944.314 
       0.165845         877.505         810.845         899.776 
       0.171974         861.088         775.714         853.939 
       0.178125         831.384         750.551         831.721 
       0.184229         779.508         725.271         798.016 
        0.19034         758.141          692.88         760.362 
       0.196428         724.147         651.934         715.482 
       0.202534         662.887          605.17         675.189 
       0.208729         639.843         557.437         627.868 
       0.214876         601.546         515.074         599.402 
       0.220989          558.74         481.002         569.389 
       0.227147         542.345         455.268         543.301 
        0.23329         520.586         436.443         526.438 
       0.239377         512.731         421.606         506.659 
       0.245482         486.767         407.488         484.674 
       0.251667         466.666         391.741         471.612 
       0.257832         457.759          373.78         450.324 
       0.263955         429.789          354.23         430.382 
       0.270079         410.062         334.377         412.428 
        0.27624         390.912          315.65         393.187 
       0.282372         379.483         299.339         379.502 
        0.28843         374.407         285.898         366.642 
       0.294538         354.566         274.705          354.97 
       0.300721         343.281         265.047         345.042 
        0.30691         336.603         256.106         336.676 
       0.313033         319.996          247.26         324.305 
       0.319153         314.083         238.005         314.049 
       0.325316         306.257         228.315         304.871 
        0.33145         296.944         218.578         292.396 
       0.337538         284.967         209.266         282.938 
       0.343633          275.69          200.63         277.445 
       0.349808         267.519         192.792         270.409 
       0.355968         261.735         185.856         264.028 
       0.362074         252.391         179.685         256.613 
       0.368217         249.256         173.936         248.121 
       0.374374         243.142         168.377         241.748 
       0.380519         232.861         162.888         234.932 
       0.386598         228.955         157.451         231.014 
       0.392688          221.82         152.044         223.565 
        0.39888         216.708         146.699         218.059 
       0.405048         211.009         141.624         213.807 
       0.411186         209.267         136.897         207.574 
       0.417313         204.675         132.531         202.196 
       0.423458          199.34         128.458         198.231 
       0.429607         193.155          124.63         194.148 
       0.435692          189.86         121.021         189.062 
       0.441815         185.789         117.498          186.52 
       0.447964         180.099         114.036         182.465 
       0.454126         177.346         110.646         176.861 
       0.460267         174.811         107.362         175.069 
       0.466387         170.102         104.202         171.131 
        0.47254          168.04         101.164         167.596 
       0.478662         163.073         98.2967         164.183 
       0.484765         160.341         95.5853         160.021 
       0.490885          157.72         92.9939         157.571 
       0.497035         155.112         90.5005         155.094 
       0.503198         153.266         88.0966         152.301 
       0.509342         149.338         85.7773         149.828 
       0.515458         146.586         83.5324         147.707 
       0.521598             143         81.3423         144.214 
       0.527764          141.77         79.2144         142.016 
       0.533884         140.258         77.1791         139.823 
           0.54         136.999         75.2238         137.021 
       0.546137         133.666         73.3366         135.292 
       0.552299         131.843         71.5139         132.339 
       0.558452         129.606         69.7627         130.093 
       0.564573         128.834         68.0828         128.768 
       0.570708         125.326         66.4554         126.946 
       0.576825         123.533         64.8832         124.215 
       0.582926         122.268         63.3611         122.492 
       0.589034         119.954         61.8816         121.198 
       0.595184         118.527         60.4381         118.611 
       0.601379         116.433         59.0314         117.346 
       0.607522         113.543         57.6835         115.111 
       0.613639         112.763         56.3864         114.143 
       0.619772         111.286         55.1281          112.54 
       0.625918         110.083          53.907         110.668 
       0.632068         107.453         52.7222         108.942 
       0.638161         106.631          51.583         108.076 
         0.6443         105.485         50.4685         106.459 
       0.650464         103.231         49.3825         104.158 
       0.656582         102.426         48.3362         103.361 
       0.662703         101.366         47.3201         101.793 
       0.668861         99.1288         46.3279         100.728 
       0.675024         98.9161         45.3639         99.3051 
       0.681124         97.2202         44.4375         97.9399 
       0.687237         96.0796         43.5354         96.7145 
       0.693381         94.4105         42.6544         95.3021 
       0.699536         93.7307         41.7963         94.3344 
       0.705665          92.501         40.9656         93.5584 
       0.711789         90.9838         40.1582         92.1822 
       0.717957         89.9535         39.3672         91.0918 
        0.72409         88.8023         38.6019         90.3567 
       0.730186         88.6403         37.8617         89.3557 
       0.736317         87.4086          37.137         87.9969 
       0.742472         85.7245         36.4288         87.0897 
       0.748622         84.4273         35.7399          85.988 
        0.75476          84.612         35.0704         85.0298 
       0.760888         83.4709         34.4193         83.7995 
       0.767043         81.8631         33.7823         83.2767 
       0.773185         80.7413         33.1628         82.6076 
       0.779291         80.0578         32.5625         81.5274 
       0.785407         79.3338         31.9763         80.4596 
       0.791564         78.5462         31.4009         79.8033 
       0.797719         77.2413           30.84         79.2596 
       0.803834         77.1066         30.2964         78.1454 
       0.809972         76.2766          29.764         77.3664 
       0.816124         74.8814         29.2433         76.7282 
       0.822261         74.2427         28.7365         75.8749 
       0.828378         73.9119         28.2433         74.8927 
       0.834502         73.1541         27.7613         74.1993 
       0.840667         72.4987         27.2875         73.7847 
       0.846816         71.4961         26.8261         73.0648 
       0.852925         70.8321         26.3783         72.3628 
       0.859047          70.149         25.9399          71.613 
       0.865192         69.4806         25.5101         70.9251 
       0.871341         68.8689         25.0897         70.1779 
       0.877463         68.1826         24.6807         69.6038 
       0.883569         68.0324          24.282         69.2346 
       0.889708         67.2768         23.8901         68.4613 
       0.895864         66.6314         23.5058         67.9937 
       0.902008         65.7026         23.1308         67.1972 
       0.908149         64.9737         22.7643         66.6588 
       0.914301         64.6499         22.4052         66.0998 
       0.920448         64.5979         22.0541         65.6079 
       0.926574         63.1745         21.7119         64.9456 
       0.932687          62.966         21.3776         64.4724 
       0.938823         62.5414         21.0493         63.7987 
       0.944975         61.8271         20.7271         63.2562 
       0.951105         61.2137         20.4128         62.7457 
       0.957225         60.9361         20.1056         62.2833 
       0.963368         60.2738         19.8037         61.6923 
       0.969511         59.8869         19.5081          61.192 
       0.975621         58.9952         19.2201         61.0564 
       0.981748         58.7427         18.9372         60.5384 
       0.987916         58.1622         18.6582         60.0441 
        0.99406         57.9715         18.3859         59.4036 
        1.00019         57.2587         18.1196         58.8573 
        1.00632         56.7102         17.8589         58.4397 
        1.01246         56.3844         17.6029         57.9083 
        1.01859         56.0513         17.3523         57.7212 
        1.02471         55.6521          17.107         57.4097 
        1.03085         55.0531         16.8656          56.834 
        1.03698         54.6158         16.6293         56.3827 
        1.04314         54.2356         16.3967         55.9131 
        1.04929         53.8359          16.169         55.6415 
        1.05541         53.3328         15.9465         55.3592 
        1.06154          52.869         15.7278         54.8899 
        1.06769          52.559         15.5128         54.5012 
        1.07382         52.0839         15.3025         54.1438 
        1.07993         51.8727         15.0966         53.7679 
        1.08607         51.4339         14.8937         53.3751 
        1.09222         51.1141         14.6943          52.959 
        1.09836         50.6916         14.4988         52.5517 
        1.10449         50.3177         14.3071         52.2664 
        1.11063         49.9223         14.1186         51.7219 
        1.11677         49.7515         13.9336         51.3868 
         1.1229         49.1222         13.7522         51.2483 
        1.12903         48.8948          13.574         50.8097 
        1.13518         48.4727         13.3987         50.4534 
        1.14131         48.1816         13.2266         50.1004 
        1.14745         47.9735         13.0577         49.8659 
        1.15359         47.3696         12.8917         49.4925 
        1.15973          47.275         12.7285         49.3041 
        1.16584         46.9189         12.5689         48.7464 
        1.17197         46.5752         12.4118         48.6512 
        1.17811         46.2489         12.2569         48.2637 
        1.18424         45.7297         12.1051         48.0097 
        1.19038         45.5692         11.9555         47.6545 
        1.19652         45.3432         11.8084         47.3346 
        1.20267         44.9119         11.6638         47.1113 
        1.20881         44.5898         11.5217         46.7758 
        1.21495          44.336         11.3822         46.4731 
        1.22108         44.2093          11.245         46.2603 
         1.2272         43.8022         11.1104         45.9621 
        1.23334         43.6404         10.9777         45.7576 
        1.23949         43.2361         10.8469          45.354 
        1.24562         42.8911         10.7186         45.0377 
        1.25174         42.7913         10.5925         44.8779 
        1.25789         42.5011         10.4681         44.5792 
        1.26402         42.1639         10.3459         44.3732 
        1.27014         41.9241          10.226         44.1968 
        1.27628         41.6517         10.1076         43.8654 
        1.28244         41.6119         9.99083          43.533 
        1.28858         41.1866         9.87609         43.2911 
        1.29471         40.8123         9.76341         43.1242 
        1.30084         40.4871         9.65259         42.7719 
        1.30697         40.4184         9.54332         42.6036 
        1.31312         40.2171         9.43559          42.423 
        1.31925         39.8246         9.32986         42.1108 
        1.32537          39.612         9.22585         41.9526 
        1.33151         39.4156         9.12306         41.6711 
        1.33765         39.1896         9.02189         41.4387 
        1.34378         38.9229         8.92247         41.2473 
        1.34992         38.7066         8.82447         40.9852 
        1.35606         38.4031         8.72773         40.7771 
         1.3622         38.2543         8.63262         40.5884 
        1.36833         38.0664         8.53916         40.3829 
        1.37445         37.7522         8.44713          40.184 
        1.38059         37.5457         8.35618         39.9744 
        1.38675         37.3134         8.26635         39.7226 
        1.39288         37.1486         8.17819         39.5116 
        1.39901         36.8642         8.09137         39.3336 
        1.40515         36.6442         8.00562         39.2201 
         1.4113         36.5359         7.92114         39.0174 
        1.41742         36.2768          7.8382         38.6834 
        1.42355         36.1015          7.7563         38.5421 
         1.4297         35.9435         7.67532         38.3417 
        1.43585         35.7624         7.59553         38.1353 
        1.44198         35.4371         7.51718         37.9747 
        1.44809         35.1628         7.44008         37.7394 
        1.45423         35.1279         7.36378         37.5576 
        1.46036         34.9528         7.28869         37.3939 
        1.46649          34.625         7.21462         37.2523 
        1.47263         34.4346         7.14153         37.0894 
        1.47877         34.2704         7.06948         36.8246 
        1.48491         34.0061         6.99831         36.6624 
        1.49104         33.9341         6.92827         36.5371 
        1.49718         33.7066         6.85914         36.3556 
        1.50333         33.5817         6.79085         36.1434 
        1.50947         33.3035         6.72363          35.967 
         1.5156         33.2433         6.65741         35.8072 
        1.52172         32.9521         6.59209         35.6383 
        1.52787         32.8751         6.52752         35.5012 
          1.534         32.5849         6.46388         35.3243 
        1.54013         32.5913         6.40117         35.1278 
        1.54627         32.2461         6.33917         34.9584 
        1.55241          32.183         6.27798         34.8031 
        1.55855         31.9567         6.21768         34.6547 
        1.56467         31.6666         6.15834         34.5257 
         1.5708         31.7081         6.09961          34.371 
        1.57695         31.4665         6.04156         34.2195 
        1.58308         31.3041         5.98439         34.0645 
        1.58922         31.0744         5.92792          33.878 
        1.59535         31.0886          5.8722         33.7418 
         1.6015         30.9346         5.81712         33.5591 
        1.60764         30.6959         5.76277         33.4047 
        1.61376         30.5159         5.70927         33.3291 
        1.61989         30.2715          5.6564         33.1581 
        1.62604         30.1672         5.60409         32.9813 
        1.63218         29.9238         5.55247         32.8345 
        1.63831         29.8618         5.50161         32.7091 
        1.64444         29.7248         5.45138         32.5727 
        1.65059         29.5345         5.40165         32.4111 
        1.65673         29.4058          5.3526         32.2629 
        1.66285         29.2675          5.3043         32.1544 
        1.66898         29.1111         5.25657         32.0509 
        1.67512         28.8788         5.20934           31.87 
        1.68127         28.8496         5.16265         31.7066 
         1.6874         28.7449         5.11663         31.5893 
        1.69353         28.5041         5.07121         31.4725 
        1.69967          28.405         5.02622         31.3346 
        1.70581         28.2688          4.9818         31.2216 
        1.71193         28.0778         4.93809         31.1065 
        1.71806         27.9889         4.89481         30.9268 
        1.72421         27.7662         4.85195         30.8019 
        1.73035         27.7382         4.80966         30.7082 
        1.73649         27.5333         4.76789         30.5852 
        1.74262         27.3732         4.72664         30.4194 
        1.74876         27.3941         4.68585         30.2771 
        1.75489         27.1157         4.64563         30.1698 
        1.76101         27.0949          4.6059         30.0647 
        1.76715          26.866         4.56657          29.927 
        1.77329         26.7303         4.52765         29.8075 
        1.77943         26.6831         4.48918         29.7018 
        1.78557         26.5497          4.4512         29.5772 
        1.79171         26.3672         4.41366         29.4495 
        1.79785         26.2832         4.37654          29.337 
        1.80399          26.111         4.33986         29.2374 
        1.81012         25.9673         4.30365         29.1084 
        1.81625         25.8783         4.26787         28.9706 
        1.82239           25.72         4.23244          28.866 
        1.82853         25.6483         4.19743         28.7891 
        1.83466         25.4704         4.16285          28.661 
        1.84078         25.3666          4.1287         28.5064 
        1.84692         25.2412         4.09487         28.4215 
        1.85306         25.1375         4.06138          28.328 
         1.8592         24.9421         4.02832         28.2063 
        1.86533         24.9066         3.99565         28.0996 
        1.87147         24.7717          3.9633         27.9847 
