# k  (h/Mpc)    P(k)  (Mpc/h)^3    P_linear(k)  (Mpc/h)^3     P_NL(k)  ShotnoiseSubtracted = false
     0.00783031         111.834         112.896         111.839 
       0.013688         125.014         125.941          125.16 
       0.019231         116.078         116.338         115.732 
      0.0249154         98.0363         97.9714          97.687 
      0.0312784         77.0741         76.8792         76.9578 
      0.0375637         60.6747         60.5353         60.6544 
      0.0433917         50.5603         50.3819          50.498 
      0.0492413         44.2527         44.1679         44.2671 
      0.0555754          40.316         40.2315         40.2535 
      0.0619321         37.3131         37.3882         37.3677 
       0.067871         34.5034         34.5289         34.4844 
      0.0738098         30.9918         31.0044         30.9615 
      0.0800417         26.8211         26.7919         26.7807 
      0.0862327         22.7209          22.687         22.7101 
      0.0921407         19.4129         19.3835         19.4228 
      0.0982031         16.9561         16.8964         16.9467 
       0.104506         15.2742         15.2614         15.3069 
       0.110769         14.3522         14.3466         14.3747 
       0.116806         13.8104         13.7983         13.8062 
       0.122832         13.2464         13.2625         13.2612 
       0.129052         12.4991         12.5032         12.4969 
       0.135211          11.501          11.493         11.4917 
       0.141259         10.3512         10.3496         10.3593 
       0.147318         9.21796         9.21963         9.24294 
       0.153489         8.24701         8.23628         8.26083 
       0.159709         7.51194         7.49724         7.52522 
       0.165845         7.00788         7.01322         7.04267 
       0.171974         6.72243         6.70936          6.7314 
       0.178125         6.49541         6.49171         6.51168 
       0.184229         6.26718         6.27306         6.28832 
        0.19034         5.99947         5.99289         6.00546 
       0.196428         5.64129         5.63877         5.64962 
       0.202534         5.22388          5.2343         5.24881 
       0.208729         4.82622         4.82146          4.8396 
       0.214876         4.46817         4.45506         4.47899 
       0.220989         4.16121         4.16036         4.18582 
       0.227147         3.94941         3.93777         3.96156 
        0.23329         3.78546         3.77493         3.79881 
       0.239377         3.65634         3.64662         3.66857 
       0.245482         3.53309         3.52449         3.54212 
       0.251667         3.38981         3.38829           3.407 
       0.257832         3.24157         3.23296         3.25066 
       0.263955         3.06823         3.06386         3.08139 
       0.270079         2.89624         2.89215         2.91052 
        0.27624         2.73115         2.73017         2.74854 
       0.282372         2.59081         2.58907         2.60967 
        0.28843         2.48065         2.47285         2.49364 
       0.294538         2.38284         2.37603         2.39589 
       0.300721         2.29402         2.29249         2.31238 
        0.30691         2.22123         2.21515         2.23467 
       0.313033         2.14372         2.13865         2.15667 
       0.319153         2.07036          2.0586         2.07663 
       0.325316         1.97667         1.97478         1.99342 
        0.33145         1.89297         1.89057          1.9085 
       0.337538         1.81394         1.81003         1.82767 
       0.343633         1.74219         1.73533         1.75279 
       0.349808         1.67214         1.66753         1.68604 
       0.355968         1.61082         1.60755         1.62779 
       0.362074         1.56039         1.55417         1.57276 
       0.368217         1.50973         1.50445         1.52112 
       0.374374         1.46464         1.45635         1.47376 
       0.380519         1.41378         1.40888         1.42522 
       0.386598         1.36521         1.36186         1.37851 
       0.392688         1.31692         1.31509         1.33168 
        0.39888         1.27302         1.26886         1.28577 
       0.405048         1.22953         1.22497         1.24044 
       0.411186         1.18803         1.18407           1.201 
       0.417313         1.15068         1.14631         1.16283 
       0.423458         1.11326         1.11109         1.12759 
       0.429607           1.083         1.07798         1.09365 
       0.435692         1.05197         1.04676          1.0627 
       0.441815         1.02064          1.0163          1.0328 
       0.447964        0.988222        0.986341         1.00189 
       0.454126        0.961335        0.957027        0.972388 
       0.460267        0.933963        0.928619        0.944583 
       0.466387        0.906316        0.901287        0.916207 
        0.47254        0.880672        0.875005        0.890031 
       0.478662        0.854969         0.85021         0.86475 
       0.484765        0.832099        0.826757        0.841125 
       0.490885        0.808319        0.804343        0.819899 
       0.497035        0.785212        0.782777        0.798569 
       0.503198        0.766305        0.761984        0.776212 
       0.509342        0.744431        0.741924        0.756312 
       0.515458        0.726376        0.722506        0.737506 
       0.521598        0.707735        0.703563        0.717193 
       0.527764        0.690651        0.685158        0.698725 
       0.533884        0.670282        0.667554        0.680869 
           0.54        0.654305        0.650642        0.663713 
       0.546137         0.63721        0.634319        0.647884 
       0.552299        0.621937        0.618553        0.630753 
       0.558452        0.606828        0.603407        0.615937 
       0.564573        0.592189        0.588877        0.602435 
       0.570708        0.578346          0.5748        0.587838 
       0.576825        0.564852        0.561203        0.573771 
       0.582926        0.550717        0.548036        0.560813 
       0.589034        0.539372        0.535241        0.548604 
       0.595184        0.527173        0.522755        0.534255 
       0.601379         0.51416        0.510588        0.523535 
       0.607522        0.501937        0.498929        0.511405 
       0.613639        0.490113         0.48771        0.499813 
       0.619772        0.480378        0.476827        0.489427 
       0.625918        0.469714        0.466264        0.478122 
       0.632068        0.459321        0.456017        0.467476 
       0.638161        0.449263        0.446163        0.457765 
         0.6443         0.43944        0.436523        0.447667 
       0.650464        0.430627         0.42713        0.438955 
       0.656582        0.421758         0.41808        0.429552 
       0.662703        0.412651        0.409291        0.420377 
       0.668861        0.402994        0.400709        0.412192 
       0.675024        0.395141        0.392372        0.403595 
       0.681124        0.388602        0.384359        0.395174 
       0.687237        0.379824        0.376556        0.386782 
       0.693381        0.371399        0.368936        0.378849 
       0.699536        0.365048        0.361515        0.371601 
       0.705665        0.357862        0.354329        0.365279 
       0.711789        0.349859        0.347346        0.357869 
       0.717957         0.34349        0.340504        0.350524 
        0.72409        0.336684        0.333884        0.344076 
       0.730186        0.331147        0.327482        0.337276 
       0.736317        0.323745        0.321214        0.330674 
       0.742472        0.318291        0.315088        0.325102 
       0.748622        0.312466         0.30913         0.31933 
        0.75476         0.30622        0.303339         0.31291 
       0.760888        0.301121        0.297707         0.30722 
       0.767043        0.293937        0.292198        0.301832 
       0.773185        0.289435         0.28684        0.296598 
       0.779291        0.284901        0.281647        0.291254 
       0.785407        0.279455        0.276577        0.285899 
       0.791564         0.27423          0.2716        0.280901 
       0.797719        0.269314        0.266748        0.275605 
       0.803834         0.26456        0.262047           0.271 
       0.809972        0.260103        0.257442        0.266768 
       0.816124        0.255463        0.252938         0.26174 
       0.822261        0.251295        0.248554        0.257113 
       0.828378        0.246837        0.244288         0.25294 
       0.834502        0.242477        0.240119        0.248463 
       0.840667        0.238776        0.236021        0.244523 
       0.846816         0.23459        0.232031        0.240976 
       0.852925        0.230342        0.228158        0.236625 
       0.859047        0.226599        0.224366        0.233225 
       0.865192        0.223061        0.220648        0.229109 
       0.871341        0.219709        0.217012        0.225315 
       0.877463        0.215512        0.213475        0.221527 
       0.883569        0.212249        0.210026         0.21835 
       0.889708        0.208998        0.206636        0.214885 
       0.895864        0.205698        0.203312        0.211308 
       0.902008        0.202186        0.200069        0.208068 
       0.908149        0.199249        0.196899        0.204817 
       0.914301        0.196439        0.193792        0.201564 
       0.920448        0.193332        0.190756        0.198445 
       0.926574        0.190487        0.187796        0.195592 
       0.932687        0.187653        0.184905        0.192242 
       0.938823        0.184235        0.182064        0.189891 
       0.944975        0.181678        0.179278        0.186578 
       0.951105         0.17857        0.176559        0.183849 
       0.957225        0.175922        0.173902        0.181328 
       0.963368        0.173595        0.171291        0.178512 
       0.969511        0.171208        0.168734         0.17599 
       0.975621        0.168321        0.166243        0.173089 
       0.981748        0.165545        0.163796        0.170562 
       0.987916        0.163339        0.161383        0.168554 
        0.99406        0.161169        0.159028        0.166287 
        1.00019        0.158753        0.156725        0.163821 
        1.00632        0.156809        0.154469        0.161254 
        1.01246        0.154537        0.152255        0.158969 
        1.01859        0.152309        0.150088        0.156995 
        1.02471        0.149943        0.147966        0.154767 
        1.03085        0.147612        0.145878        0.152346 
        1.03698        0.145918        0.143835        0.150202 
        1.04314        0.143778        0.141822        0.148207 
        1.04929        0.142099        0.139853         0.14626 
        1.05541        0.139765        0.137929        0.144431 
        1.06154        0.138015        0.136037        0.142457 
        1.06769        0.136241        0.134177        0.140573 
        1.07382        0.134425        0.132358        0.138642 
        1.07993        0.132683        0.130578        0.136783 
        1.08607        0.130751        0.128822        0.135154 
        1.09222        0.129056        0.127098        0.133136 
        1.09836        0.127299        0.125406        0.131526 
        1.10449        0.125558        0.123748         0.12985 
        1.11063        0.123947        0.122118        0.127983 
        1.11677         0.12251        0.120518        0.126549 
         1.1229        0.120642        0.118949        0.124886 
        1.12903        0.119223        0.117407        0.123271 
        1.13518        0.117718        0.115891        0.121675 
        1.14131        0.116276        0.114403        0.120205 
        1.14745        0.115131        0.112942        0.118466 
        1.15359        0.113395        0.111506         0.11723 
        1.15973        0.112113        0.110095        0.115819 
        1.16584        0.110634        0.108714        0.114189 
        1.17197        0.109083        0.107355        0.112961 
        1.17811        0.107704        0.106016        0.111628 
        1.18424        0.106424        0.104703        0.110102 
        1.19038        0.104983        0.103408         0.10878 
        1.19652        0.104046        0.102136        0.107592 
        1.20267        0.102701        0.100886        0.106083 
        1.20881        0.101159       0.0996566        0.104941 
        1.21495        0.100067       0.0984498        0.103917 
        1.22108       0.0989777       0.0972632        0.102441 
         1.2272       0.0976499       0.0960991        0.101186 
        1.23334       0.0965586       0.0949513        0.100069 
        1.23949         0.09555       0.0938197       0.0989746 
        1.24562        0.094384       0.0927097       0.0978259 
        1.25174       0.0933099       0.0916193       0.0966368 
        1.25789       0.0919647       0.0905432        0.095556 
        1.26402       0.0912016       0.0894864       0.0944724 
        1.27014       0.0898994        0.088449       0.0933001 
        1.27628       0.0889915        0.087425       0.0921864 
        1.28244       0.0879763       0.0864152       0.0912149 
        1.28858       0.0868589       0.0854228       0.0901138 
        1.29471       0.0859475       0.0844482       0.0891637 
        1.30084       0.0849112       0.0834897       0.0883273 
        1.30697       0.0841432       0.0825446       0.0872814 
        1.31312       0.0832336       0.0816127       0.0862544 
        1.31925       0.0821917       0.0806982       0.0853881 
        1.32537       0.0813002       0.0797986       0.0844821 
        1.33151        0.080409       0.0789095       0.0835543 
        1.33765       0.0794825       0.0780345       0.0826349 
        1.34378       0.0785604       0.0771745       0.0817182 
        1.34992       0.0778928       0.0763269       0.0808532 
        1.35606       0.0769279       0.0754902       0.0799135 
         1.3622       0.0761145       0.0746675       0.0790942 
        1.36833       0.0754181       0.0738591       0.0783222 
        1.37445       0.0746452       0.0730631       0.0775209 
        1.38059       0.0737843       0.0722764       0.0766535 
        1.38675       0.0728698       0.0714994       0.0757837 
        1.39288       0.0720068        0.070737       0.0749802 
        1.39901       0.0714705        0.069986       0.0742352 
        1.40515        0.070622       0.0692443       0.0734526 
         1.4113       0.0699781       0.0685136       0.0727803 
        1.41742       0.0692884       0.0677962       0.0721415 
        1.42355       0.0683219       0.0670878       0.0711341 
         1.4297       0.0678513       0.0663874       0.0706247 
        1.43585       0.0670305       0.0656972       0.0697996 
        1.44198       0.0664327       0.0650195       0.0689418 
        1.44809       0.0657332       0.0643527        0.068494 
        1.45423       0.0650127       0.0636928       0.0676054 
        1.46036       0.0643906       0.0630433       0.0669985 
        1.46649       0.0636854       0.0624026       0.0664433 
        1.47263       0.0628935       0.0617704       0.0657196 
        1.47877       0.0626063       0.0611472       0.0651115 
        1.48491       0.0617433       0.0605316       0.0645232 
        1.49104       0.0613645       0.0599259       0.0636934 
        1.49718       0.0606787       0.0593279       0.0632801 
        1.50333       0.0600543       0.0587372       0.0625047 
        1.50947       0.0594874       0.0581558        0.061861 
         1.5156        0.058893       0.0575831       0.0613934 
        1.52172       0.0583226       0.0570181       0.0607236 
        1.52787       0.0576471       0.0564595        0.060127 
          1.534        0.057209       0.0559091       0.0596357 
        1.54013       0.0565998       0.0553667       0.0590453 
        1.54627       0.0561665       0.0548304       0.0584396 
        1.55241       0.0555898       0.0543012        0.057891 
        1.55855       0.0550732       0.0537796       0.0573346 
        1.56467       0.0545547       0.0532664       0.0568373 
         1.5708       0.0540096       0.0527584       0.0562538 
        1.57695       0.0535234       0.0522562       0.0556761 
        1.58308       0.0528675       0.0517618       0.0552372 
        1.58922       0.0525245       0.0512734       0.0547704 
        1.59535       0.0519865       0.0507914       0.0542244 
         1.6015       0.0515756        0.050315       0.0536599 
        1.60764        0.051016       0.0498449       0.0532364 
        1.61376        0.050583       0.0493822       0.0528725 
        1.61989       0.0500904       0.0489249       0.0523431 
        1.62604       0.0496343       0.0484724        0.051832 
        1.63218       0.0492223       0.0480259       0.0513843 
        1.63831       0.0487703       0.0475861       0.0509184 
        1.64444       0.0483195       0.0471516       0.0504059 
        1.65059       0.0477728       0.0467215       0.0499769 
        1.65673       0.0474468       0.0462972       0.0495685 
        1.66285       0.0470663       0.0458794       0.0491284 
        1.66898        0.046527       0.0454666        0.048663 
        1.67512       0.0461882       0.0450581       0.0482329 
        1.68127       0.0457575       0.0446542       0.0478186 
         1.6874       0.0453841       0.0442562       0.0474416 
        1.69353       0.0449706       0.0438633       0.0470831 
        1.69967       0.0444906       0.0434742       0.0465782 
        1.70581       0.0442604         0.04309       0.0461284 
        1.71193       0.0438614       0.0427119       0.0457719 
        1.71806       0.0434174       0.0423375       0.0453683 
        1.72421       0.0430068       0.0419669        0.045036 
        1.73035       0.0426985       0.0416011       0.0446459 
        1.73649       0.0423046       0.0412397       0.0441774 
        1.74262       0.0419392        0.040883       0.0438263 
        1.74876       0.0416383       0.0405302       0.0435255 
        1.75489       0.0412108       0.0401823       0.0431625 
        1.76101       0.0409071       0.0398386       0.0427521 
        1.76715       0.0405852       0.0394984       0.0424423 
        1.77329       0.0401858       0.0391618       0.0421138 
        1.77943       0.0398384        0.038829       0.0417314 
        1.78557       0.0395752       0.0385006        0.041352 
        1.79171       0.0392222       0.0381759       0.0409799 
        1.79785        0.038831       0.0378548       0.0406575 
        1.80399       0.0385196       0.0375376       0.0403789 
        1.81012       0.0382493       0.0372244       0.0399725 
        1.81625       0.0379358       0.0369149       0.0396203 
        1.82239       0.0376756       0.0366084        0.039392 
        1.82853       0.0373076       0.0363056       0.0390956 
        1.83466       0.0370009       0.0360065       0.0387393 
        1.84078       0.0367519       0.0357111       0.0384026 
        1.84692       0.0364535       0.0354185        0.038139 
        1.85306       0.0361493       0.0351289       0.0377902 
         1.8592       0.0358655       0.0348429       0.0374235 
        1.86533       0.0355838       0.0345603       0.0371769 
        1.87147       0.0352827       0.0342805       0.0369086 
        1.87761       0.0349689       0.0340036        0.036638 
