# k  (h/Mpc)    P(k)  (Mpc/h)^3    P_linear(k)  (Mpc/h)^3     P_NL(k)  ShotnoiseSubtracted = false
     0.00783031         22756.8         22888.9         22666.5 
       0.013688         24749.9         25486.4         25279.9 
       0.019231         23142.1         23526.5         23339.2 
      0.0249154         19961.2           19805         19665.2 
      0.0312784         15467.2         15537.5           15456 
      0.0375637         12106.3         12232.6         12198.5 
      0.0433917         10214.7           10180         10141.1 
      0.0492413         8906.86         8923.95         8893.66 
      0.0555754         8173.01          8128.3         8104.75 
      0.0619321         7356.23         7553.59         7529.73 
       0.067871         6899.98         6975.76          6965.4 
      0.0738098         6279.48         6263.57         6206.79 
      0.0800417          5482.8         5412.45         5409.35 
      0.0862327         4662.27          4583.1         4674.49 
      0.0921407         4063.63         3915.69         4033.84 
      0.0982031         3630.74         3413.23         3597.93 
       0.104506         3228.97         3082.93         3303.85 
       0.110769         3048.66         2898.12         3059.46 
       0.116806         2952.57         2787.35         2914.57 
       0.122832         2804.22         2679.13         2795.02 
       0.129052         2622.48         2525.73         2629.62 
       0.135211         2500.01         2321.65         2438.35 
       0.141259         2246.52         2090.66         2251.81 
       0.147318         2034.16         1862.39         2074.99 
       0.153489         1865.06         1663.74         1860.72 
       0.159709         1770.16         1514.45         1736.55 
       0.165845         1626.65         1416.67         1666.02 
       0.171974         1589.81          1355.3          1581.5 
       0.178125         1541.84         1311.33         1542.92 
       0.184229         1427.68         1267.17         1473.96 
        0.19034         1399.18         1210.57         1404.58 
       0.196428         1345.23         1139.04         1329.61 
       0.202534          1243.9         1057.33         1263.58 
       0.208729         1209.46         973.931         1177.52 
       0.214876          1137.9         899.917          1135.2 
       0.220989         1073.47         840.386         1088.02 
       0.227147          1040.2         795.424         1046.87 
        0.23329         997.944         762.531         1017.22 
       0.239377         991.391         736.612         978.079 
       0.245482         940.958         711.944         937.112 
       0.251667         906.123         684.431         913.361 
       0.257832         886.263         653.053         874.627 
       0.263955         839.883         618.895         840.423 
       0.270079         809.566         584.208         809.438 
        0.27624         774.027         551.488         776.764 
       0.282372         759.905         522.986         755.937 
        0.28843         744.653         499.509         736.226 
       0.294538         708.218         479.951         712.892 
       0.300721         692.572         463.077         692.509 
        0.30691         674.242         447.455         681.409 
       0.313033         644.709         432.003         657.249 
       0.319153         636.457         415.831         637.734 
       0.325316         624.967         398.901          621.74 
        0.33145         608.138         381.889         597.337 
       0.337538         585.532          365.62         582.467 
       0.343633         570.863         350.531           573.7 
       0.349808         557.028         336.837         561.857 
       0.355968         545.828         324.719         549.188 
       0.362074         524.775         313.938         537.559 
       0.368217         521.552         303.894         522.464 
       0.374374         513.325         294.179         510.427 
       0.380519         492.639         284.589         497.861 
       0.386598         487.549         275.091         492.271 
       0.392688          473.85         265.645          477.94 
        0.39888         463.543         256.306          467.74 
       0.405048         451.374         247.439         458.265 
       0.411186         451.236         239.179         447.584 
       0.417313         443.599         231.551         439.186 
       0.423458         432.879         224.435         431.521 
       0.429607         418.993         217.748         424.019 
       0.435692          412.87         211.441         412.424 
       0.441815         405.436         205.288         408.844 
       0.447964         397.263         199.238         402.606 
       0.454126         392.478         193.316         390.817 
       0.460267         386.044         187.578         388.152 
       0.466387         376.571         182.057         381.352 
        0.47254         373.211         176.748         374.294 
       0.478662         364.783         171.739         366.697 
       0.484765         358.958         167.002         360.836 
       0.490885         356.494         162.474          354.33 
       0.497035          347.06         158.118           349.9 
       0.503198         346.094         153.918         345.116 
       0.509342         339.146         149.866         339.407 
       0.515458         332.244         145.943         335.316 
       0.521598         329.016         142.117         330.147 
       0.527764         322.808         138.399         326.948 
       0.533884         318.802         134.843         322.254 
           0.54         315.381         131.427         316.518 
       0.546137         309.012          128.13         312.733 
       0.552299          307.12         124.945         307.987 
       0.558452         301.693         121.886         304.285 
       0.564573         300.426         118.951         301.627 
       0.570708         294.427         116.107         297.827 
       0.576825         289.529         113.361         292.162 
       0.582926          288.45         110.701         289.664 
       0.589034         282.342         108.116         285.921 
       0.595184         280.478         105.594         281.065 
       0.601379         275.582         103.137         277.907 
       0.607522         269.949         100.782         273.617 
       0.613639         268.988         98.5154         272.941 
       0.619772         267.566         96.3171         270.859 
       0.625918         261.921         94.1835         265.868 
       0.632068         260.485         92.1136         263.215 
       0.638161         257.583         90.1231         261.471 
         0.6443         253.524          88.176         257.901 
       0.650464         251.294         86.2786         253.118 
       0.656582         247.976         84.4505         251.471 
       0.662703         247.318         82.6752         249.182 
       0.668861         242.007         80.9417         247.539 
       0.675024         241.119         79.2574         245.002 
       0.681124         236.683         77.6388         241.158 
       0.687237         235.821         76.0628         238.696 
       0.693381         231.751         74.5236         236.192 
       0.699536         231.343         73.0244         234.484 
       0.705665         228.023          71.573         231.096 
       0.711789         225.199         70.1624         230.008 
       0.717957         223.962         68.7803         228.639 
        0.72409         220.784         67.4432         225.717 
       0.730186         221.205           66.15         223.154 
       0.736317         217.369         64.8838         221.482 
       0.742472         215.705         63.6465         219.372 
       0.748622         213.911         62.4429         216.945 
        0.75476         212.231         61.2733         216.749 
       0.760888         210.172         60.1356          213.58 
       0.767043          207.13         59.0227          211.75 
       0.773185         204.884         57.9404         210.225 
       0.779291         203.803         56.8916         207.835 
       0.785407         202.178         55.8674         206.143 
       0.791564         200.763          54.862         204.337 
       0.797719         197.622          53.882         202.802 
       0.803834         197.324         52.9323         201.604 
       0.809972         194.497         52.0021         199.757 
       0.816124         192.463         51.0924         197.937 
       0.822261         190.826         50.2069         196.943 
       0.828378         189.997         49.3452         194.893 
       0.834502         187.445         48.5031         193.306 
       0.840667         187.144         47.6753         191.512 
       0.846816          184.33         46.8692         190.388 
       0.852925         184.119         46.0869         189.008 
       0.859047         181.521         45.3209         187.534 
       0.865192          180.82         44.5698         185.672 
       0.871341         179.229         43.8354         184.381 
       0.877463         177.738         43.1209         183.409 
       0.883569         176.986         42.4242         182.993 
       0.889708         175.531         41.7395         180.638 
       0.895864         172.945         41.0681         179.666 
       0.902008         171.846          40.413         177.865 
       0.908149          170.05         39.7726         176.587 
       0.914301         169.225         39.1451         175.166 
       0.920448         167.905         38.5318         174.226 
       0.926574         166.392         37.9339         172.869 
       0.932687         166.096         37.3499          171.61 
       0.938823         164.459         36.7762         170.938 
       0.944975          164.07         36.2132          169.48 
       0.951105         162.004         35.6642         168.421 
       0.957225         160.754         35.1275         167.033 
       0.963368         160.525         34.6001         165.941 
       0.969511         158.402         34.0835         164.798 
       0.975621         156.298         33.5803         164.035 
       0.981748         156.169          33.086         163.177 
       0.987916         155.168         32.5986         161.786 
        0.99406         153.739         32.1229         160.702 
        1.00019         152.998         31.6576         159.642 
        1.00632         151.917         31.2021         158.457 
        1.01246         150.712         30.7548         157.069 
        1.01859         149.184         30.3171         156.501 
        1.02471         148.063         29.8884         155.609 
        1.03085         147.459         29.4667         154.716 
        1.03698          146.68         29.0539         154.166 
        1.04314         145.749         28.6474         152.822 
        1.04929         144.645         28.2496         151.741 
        1.05541         144.431          27.861         151.056 
        1.06154         142.886         27.4787         150.358 
        1.06769         141.989         27.1031         149.458 
        1.07382         140.275         26.7358          148.58 
        1.07993         139.943         26.3761         147.685 
        1.08607           139.5         26.0215         146.569 
        1.09222           137.9         25.6731           145.9 
        1.09836         137.071         25.3315         144.982 
        1.10449         136.531         24.9965          144.55 
        1.11063         135.223         24.6673         143.438 
        1.11677         134.358          24.344         142.384 
         1.1229         133.904         24.0272         141.622 
        1.12903         132.258         23.7157         140.798 
        1.13518         131.684         23.4095         140.122 
        1.14131         131.181         23.1089           139.2 
        1.14745          129.96         22.8137           138.3 
        1.15359         129.247         22.5237         137.749 
        1.15973         128.575         22.2386         137.021 
        1.16584         127.778         21.9597          136.27 
        1.17197         127.149         21.6853         135.699 
        1.17811         125.836         21.4147          134.76 
        1.18424         125.291         21.1495         133.812 
        1.19038         124.583          20.888         133.647 
        1.19652         123.257         20.6311         132.475 
        1.20267         122.694         20.3785         132.085 
        1.20881          121.92         20.1302         131.182 
        1.21495         121.557         19.8864         130.603 
        1.22108         120.461         19.6467         129.833 
         1.2272         120.267         19.4115         129.136 
        1.23334         119.013         19.1797         128.718 
        1.23949          118.52         18.9511         127.866 
        1.24562         117.629         18.7269         126.833 
        1.25174         117.323         18.5067         126.248 
        1.25789         116.357         18.2893         125.505 
        1.26402         115.625         18.0758          125.19 
        1.27014          115.06         17.8663          124.63 
        1.27628         114.657         17.6594         124.306 
        1.28244         113.541         17.4555         123.369 
        1.28858         112.923          17.255         122.767 
        1.29471          112.04         17.0581          122.13 
        1.30084         111.624         16.8645         121.286 
        1.30697         110.905         16.6736         120.681 
        1.31312         110.478         16.4854         119.953 
        1.31925         109.344         16.3006          119.62 
        1.32537         109.041         16.1189         119.181 
        1.33151         108.035         15.9393         118.488 
        1.33765         107.879         15.7626         117.942 
        1.34378         107.223         15.5889          117.43 
        1.34992         106.391         15.4177         116.753 
        1.35606         105.966         15.2486         116.059 
         1.3622         105.322         15.0825         115.701 
        1.36833          104.73         14.9192          114.97 
        1.37445         103.941         14.7584          114.41 
        1.38059         103.379         14.5995         113.721 
        1.38675         102.807         14.4425          113.15 
        1.39288         102.138         14.2885         112.651 
        1.39901         101.443         14.1368         112.267 
        1.40515         100.994          13.987         111.802 
         1.4113         100.504         13.8394         111.289 
        1.41742         100.126         13.6945         110.748 
        1.42355          99.223         13.5514          110.08 
         1.4297          98.671         13.4099         109.699 
        1.43585         98.4525         13.2705         109.058 
        1.44198         97.7397         13.1336         108.849 
        1.44809         97.0885         12.9989         108.141 
        1.45423         96.7031         12.8656          107.48 
        1.46036         96.0181         12.7344         107.055 
        1.46649         95.2906          12.605         106.729 
        1.47263         95.0922         12.4773         106.283 
        1.47877         94.4447         12.3514         105.553 
        1.48491         93.7377         12.2271         105.057 
        1.49104         93.3203         12.1047         104.857 
        1.49718          92.708         11.9839          104.15 
        1.50333         92.0631         11.8646         103.559 
        1.50947         91.8982         11.7472         103.209 
         1.5156         91.1976         11.6315         102.823 
        1.52172         90.5919         11.5174         102.332 
        1.52787         90.2598         11.4045         101.841 
          1.534         89.8069         11.2934         101.421 
        1.54013         89.3585         11.1838         101.034 
        1.54627         88.7432         11.0755         100.614 
        1.55241         88.3132         10.9686         100.103 
        1.55855         87.6135         10.8632         99.5424 
        1.56467         87.2169         10.7595         99.2172 
         1.5708         86.7885         10.6569         98.7754 
        1.57695         86.3723         10.5555         98.2942 
        1.58308           85.61         10.4556         97.9732 
        1.58922         85.2919         10.3569         97.5369 
        1.59535         84.9672         10.2596         97.1015 
         1.6015         84.2974         10.1634         96.6553 
        1.60764          83.961         10.0684         96.2383 
        1.61376         83.7113         9.97494          95.914 
        1.61989         83.0792         9.88257          95.518 
        1.62604         82.8015         9.79117         94.8403 
        1.63218         82.0561         9.70097          94.383 
        1.63831          81.873         9.61213         94.2277 
        1.64444         81.1567         9.52436         93.8001 
        1.65059         80.7199         9.43748         93.3663 
        1.65673         80.4245         9.35178         92.9051 
        1.66285         80.2322         9.26739         92.5411 
        1.66898         79.5415         9.18401         92.2738 
        1.67512         78.8315         9.10149         91.8018 
        1.68127         78.7082         9.01991         91.4683 
         1.6874         78.4469         8.93951         91.1609 
        1.69353         77.7086         8.86014         90.6228 
        1.69967         77.4221         8.78155         90.3026 
        1.70581         76.9295         8.70394          89.954 
        1.71193         76.6269         8.62757         89.5056 
        1.71806         75.9195         8.55194         89.1689 
        1.72421         75.5905         8.47708         88.8477 
        1.73035         75.2816         8.40319         88.4822 
        1.73649         74.9025          8.3302         88.0543 
        1.74262         74.3465         8.25814         87.5872 
        1.74876         73.9702         8.18688         87.2579 
        1.75489         73.8744          8.1166         86.9748 
        1.76101         73.3965         8.04718         86.6284 
        1.76715         72.9318         7.97847         86.2785 
        1.77329          72.527         7.91048         85.8776 
        1.77943         72.0677         7.84325         85.5101 
        1.78557         71.7496          7.7769         85.2354 
        1.79171         71.3275         7.71131         84.8653 
        1.79785          70.971         7.64646         84.4577 
        1.80399         70.4761         7.58238         84.1438 
        1.81012          70.151         7.51911         83.8144 
        1.81625         69.6732         7.45659         83.4574 
        1.82239         69.4598          7.3947         83.1199 
        1.82853         69.0088         7.33353         82.7997 
        1.83466         68.6252         7.27311         82.4359 
        1.84078         68.3435         7.21344         82.1012 
        1.84692         68.0004         7.15434         81.8995 
        1.85306         67.6899         7.09583         81.4991 
         1.8592         67.3992         7.03807         81.0389 
        1.86533         66.8895         6.98098         80.8153 
        1.87147         66.5135         6.92446         80.5377 
        1.87761         66.1808         6.86854         80.1851 
