#  k  (h/Mpc)          P(k)  (Mpc/h)^3     P_linear(k)   P_NL(k) (Mpc/h)^3
     0.00783031         15680.6         15926.6         15926.6 
       0.013688         20476.7         20293.5         20293.5 
       0.019231         20965.9           20955           20955 
      0.0249154         19283.3         19750.2         19750.2 
      0.0312784         17246.5         17504.6         17504.6 
      0.0375637         15206.5         15276.8         15276.8 
      0.0433917         13255.3         13592.1         13592.1 
      0.0492413         12158.5           12336           12336 
      0.0555754         10892.6         11351.3         11351.3 
      0.0619321           10471           10558           10558 
       0.067871          9452.7         9834.79         9834.79 
      0.0738098         8702.36         9050.26         9050.26 
      0.0800417         7757.92         8165.87         8165.87 
      0.0862327         7040.88         7293.01         7293.01 
      0.0921407          6453.3         6542.35         6542.35 
      0.0982031         5809.93         5909.51         5909.51 
       0.104506         5496.72         5413.69         5413.69 
       0.110769         5119.55         5058.41         5058.41 
       0.116806         4835.07         4797.23         4797.23 
       0.122832         4607.23         4564.72         4564.72 
       0.129052         4263.99         4313.51         4313.51 
       0.135211         4022.78         4035.83         4035.83 
       0.141259         3836.22         3741.89         3741.89 
       0.147318         3608.83         3447.94         3447.94 
       0.153489         3310.84         3174.06         3174.06 
       0.159709         3144.42         2942.05         2942.05 
       0.165845         3049.43         2761.44         2761.44 
       0.171974         2891.11         2622.02         2622.02 
       0.178125         2758.75         2508.79         2508.79 
       0.184229         2642.27         2406.77         2406.77 
        0.19034         2505.07          2302.3          2302.3 
       0.196428         2450.92         2189.89         2189.89 
       0.202534         2351.44         2069.88         2069.88 
       0.208729         2248.37         1946.94         1946.94 
       0.214876         2161.83         1831.64         1831.64 
       0.220989         2091.35         1729.68         1729.68 
       0.227147         2008.51          1642.5          1642.5 
        0.23329         1935.74            1570            1570 
       0.239377         1912.28         1508.66         1508.66 
       0.245482         1798.78         1452.82         1452.82 
       0.251667         1789.69         1397.74         1397.74 
       0.257832         1719.89         1341.68         1341.68 
       0.263955         1663.39          1284.4          1284.4 
       0.270079          1609.9         1226.82         1226.82 
        0.27624         1591.09         1170.74         1170.74 
       0.282372         1525.76         1118.84         1118.84 
        0.28843         1523.59         1072.56         1072.56 
       0.294538         1451.61         1031.07         1031.07 
       0.300721         1443.21         993.578         993.578 
        0.30691         1389.87         959.162         959.162 
       0.313033         1362.44          926.81          926.81 
       0.319153         1345.96         895.102         895.102 
       0.325316         1300.84         863.376         863.376 
        0.33145         1274.03         832.079         832.079 
       0.337538         1251.33         801.799         801.799 
       0.343633         1226.89         772.832         772.832 
       0.349808         1188.17         745.321         745.321 
       0.355968         1179.48          719.92          719.92 
       0.362074         1169.65         696.615         696.615 
       0.368217         1132.95         674.754         674.754 
       0.374374          1093.2         653.986         653.986 
       0.380519          1096.9         634.031         634.031 
       0.386598         1066.32          614.82          614.82 
       0.392688         1061.38         596.001         596.001 
        0.39888         1032.78         577.389         577.389 
       0.405048         1021.52         559.501         559.501 
       0.411186         1007.47          542.47          542.47 
       0.417313         986.813         526.342         526.342 
       0.423458         970.027         511.033         511.033 
       0.429607         958.475         496.506         496.506 
       0.435692          940.07         482.816         482.816 
       0.441815         933.152         469.594         469.594 
       0.447964          913.39          456.76          456.76 
       0.454126         907.293         444.296         444.296 
       0.460267          885.49         432.257         432.257 
       0.466387         874.301         420.637         420.637 
        0.47254          870.39         409.362         409.362 
       0.478662         860.662         398.585         398.585 
       0.484765         838.246         388.283         388.283 
       0.490885         833.359         378.372         378.372 
       0.497035         815.375         368.806         368.806 
       0.503198         811.198         359.586         359.586 
       0.509342         801.843         350.717         350.717 
       0.515458         798.457         342.172         342.172 
       0.521598         779.639         333.855         333.855 
       0.527764         764.806         325.763         325.763 
       0.533884          763.78         317.991         317.991 
           0.54         756.715         310.481         310.481 
       0.546137         748.697         303.198         303.198 
       0.552299         739.958         296.132         296.132 
       0.558452         734.063         289.319         289.319 
       0.564573         724.529         282.769         282.769 
       0.570708         717.282         276.418         276.418 
       0.576825         698.073         270.284         270.284 
       0.582926         702.054         264.348         264.348 
       0.589034         694.539         258.579         258.579 
       0.595184         687.905         252.942         252.942 
       0.601379         678.716         247.435         247.435 
       0.607522         669.468          242.14          242.14 
       0.613639         670.044         237.028         237.028 
       0.619772         655.616         232.055         232.055 
       0.625918         651.404         227.219         227.219 
       0.632068         643.517         222.521         222.521 
       0.638161         641.137         218.001         218.001 
         0.6443         629.879         213.575         213.575 
       0.650464         628.407         209.259         209.259 
       0.656582         623.415         205.094         205.094 
       0.662703         620.617         201.042         201.042 
       0.668861         609.987         197.079         197.079 
       0.675024         604.879          193.22          193.22 
       0.681124         601.426         189.505         189.505 
       0.687237         596.454         185.882         185.882 
       0.693381         589.315         182.338         182.338 
       0.699536         579.019         178.882         178.882 
       0.705665         579.205         175.532         175.532 
       0.711789         575.345         172.272         172.272 
       0.717957         569.977         169.074         169.074 
        0.72409         567.494         165.976         165.976 
       0.730186          558.48         162.976         162.976 
       0.736317         555.728         160.035         160.035 
       0.742472         552.633         157.157         157.157 
       0.748622          546.48         154.353         154.353 
        0.75476         538.153         151.624         151.624 
       0.760888         534.059         148.967         148.967 
       0.767043         533.526         146.363         146.363 
       0.773185         528.384         143.828         143.828 
       0.779291         523.319         141.368         141.368 
       0.785407         518.585         138.963         138.963 
       0.791564         513.252           136.6           136.6 
       0.797719         511.211         134.293         134.293 
       0.803834          505.73         132.055         132.055 
       0.809972         503.922         129.861         129.861 
       0.816124         502.439         127.712         127.712 
       0.822261         494.926         125.619         125.619 
       0.828378         492.159         123.579         123.579 
       0.834502         487.091         121.583         121.583 
       0.840667          483.34          119.62          119.62 
       0.846816         480.735         117.705         117.705 
       0.852925         476.905         115.845         115.845 
       0.859047         475.955         114.022         114.022 
       0.865192         469.565         112.233         112.233 
       0.871341         465.593         110.481         110.481 
       0.877463         465.348         108.776         108.776 
       0.883569         460.102         107.111         107.111 
       0.889708         457.627         105.472         105.472 
       0.895864         455.612         103.865         103.865 
       0.902008         451.846         102.294         102.294 
       0.908149         445.803         100.758         100.758 
       0.914301         443.898         99.2504         99.2504 
       0.920448          441.62         97.7759         97.7759 
       0.926574           434.2         96.3369         96.3369 
       0.932687         434.065         94.9303         94.9303 
       0.938823         429.489          93.547          93.547 
       0.944975         429.958         92.1885         92.1885 
       0.951105         424.262         90.8622         90.8622 
       0.957225         421.526         89.5645         89.5645 
       0.963368         417.176         88.2881         88.2881 
       0.969511         415.929         87.0368         87.0368 
       0.975621         413.291         85.8168         85.8168 
       0.981748         410.369         84.6174         84.6174 
       0.987916         408.088         83.4335         83.4335 
        0.99406         401.498          82.277          82.277 
        1.00019          399.89         81.1449         81.1449 
        1.00632         398.164         80.0354         80.0354 
        1.01246         395.069         78.9453         78.9453 
        1.01859         394.649         77.8774         77.8774 
        1.02471         389.341         76.8309         76.8309 
        1.03085         387.407         75.8001         75.8001 
        1.03698         385.912         74.7907         74.7907 
        1.04314         382.276         73.7956         73.7956 
        1.04929         378.051         72.8211         72.8211 
        1.05541         379.003         71.8684         71.8684 
        1.06154         372.936         70.9305         70.9305 
        1.06769         370.953          70.008          70.008 
        1.07382         368.463         69.1052         69.1052 
        1.07993         366.361         68.2205         68.2205 
        1.08607         365.304         67.3478         67.3478 
        1.09222         361.326         66.4896         66.4896 
        1.09836         359.194         65.6475         65.6475 
        1.10449         355.984         64.8212         64.8212 
        1.11063         351.819         64.0083         64.0083 
        1.11677         352.591         63.2097         63.2097 
         1.1229         350.009         62.4264         62.4264 
        1.12903         347.324         61.6557         61.6557 
        1.13518         343.584         60.8976         60.8976 
        1.14131         342.294         60.1528         60.1528 
        1.14745         339.686          59.421          59.421 
        1.15359         337.888         58.7014         58.7014 
        1.15973          335.44         57.9935         57.9935 
        1.16584         333.027         57.3005         57.3005 
        1.17197         332.175         56.6181         56.6181 
        1.17811         328.515         55.9447         55.9447 
        1.18424         325.757         55.2844         55.2844 
        1.19038          324.29         54.6329         54.6329 
        1.19652          322.29         53.9923         53.9923 
        1.20267         320.782         53.3621         53.3621 
        1.20881         318.776         52.7422         52.7422 
        1.21495         316.027         52.1332         52.1332 
        1.22108         314.201          51.534          51.534 
         1.2272          312.04         50.9457         50.9457 
        1.23334         310.072         50.3653         50.3653 
        1.23949          307.75         49.7927         49.7927 
        1.24562         306.434         49.2307         49.2307 
        1.25174         304.074         48.6783         48.6783 
        1.25789         301.047         48.1328         48.1328 
        1.26402         299.272         47.5966         47.5966 
        1.27014         297.353           47.07           47.07 
        1.27628         295.366         46.5499         46.5499 
        1.28244         295.124         46.0367         46.0367 
        1.28858         291.938         45.5319         45.5319 
        1.29471         290.244          45.036          45.036 
        1.30084         288.197         44.5479         44.5479 
        1.30697         286.638         44.0663         44.0663 
        1.31312         283.547         43.5913         43.5913 
        1.31925         282.627         43.1248         43.1248 
        1.32537         281.441         42.6657         42.6657 
        1.33151         278.493         42.2116         42.2116 
        1.33765         276.515         41.7645         41.7645 
        1.34378         275.622         41.3248         41.3248 
        1.34992          273.72         40.8912         40.8912 
        1.35606         272.342          40.463          40.463 
         1.3622         270.106         40.0416         40.0416 
        1.36833         268.321         39.6274         39.6274 
        1.37445         266.589         39.2193         39.2193 
        1.38059         264.246         38.8157         38.8157 
        1.38675         263.055         38.4169         38.4169 
        1.39288         261.441         38.0253         38.0253 
        1.39901         260.282         37.6394         37.6394 
        1.40515          258.33         37.2581         37.2581 
         1.4113         256.865         36.8822         36.8822 
        1.41742         254.693          36.513          36.513 
        1.42355         253.417         36.1481         36.1481 
         1.4297         251.395         35.7873         35.7873 
        1.43585         250.139         35.4315         35.4315 
        1.44198         248.763          35.082          35.082 
        1.44809          246.57         34.7378         34.7378 
        1.45423         245.099         34.3971         34.3971 
        1.46036          243.87         34.0616         34.0616 
        1.46649         241.926         33.7305         33.7305 
        1.47263         240.748         33.4036         33.4036 
        1.47877          238.85         33.0811         33.0811 
        1.48491         236.676         32.7625         32.7625 
        1.49104         236.054         32.4488         32.4488 
        1.49718         234.131          32.139          32.139 
        1.50333          233.07         31.8327         31.8327 
        1.50947         231.451         31.5311         31.5311 
         1.5156         229.331         31.2339         31.2339 
        1.52172         228.502         30.9406         30.9406 
        1.52787         226.775         30.6505         30.6505 
          1.534         225.803         30.3644         30.3644 
        1.54013         223.681         30.0823         30.0823 
        1.54627         222.671         29.8034         29.8034 
        1.55241          221.39         29.5279         29.5279 
        1.55855         219.506         29.2563         29.2563 
        1.56467          218.43          28.989          28.989 
         1.5708         217.543         28.7242         28.7242 
        1.57695         215.679         28.4623         28.4623 
        1.58308          214.45         28.2044         28.2044 
        1.58922         212.122         27.9495         27.9495 
        1.59535         210.932         27.6979         27.6979 
         1.6015         210.238          27.449          27.449 
        1.60764         208.776         27.2033         27.2033 
        1.61376         207.669         26.9614         26.9614 
        1.61989         206.268         26.7222         26.7222 
        1.62604         204.728         26.4854         26.4854 
        1.63218         203.644         26.2516         26.2516 
        1.63831         202.114         26.0212         26.0212 
        1.64444         201.191         25.7936         25.7936 
        1.65059         200.033         25.5681         25.5681 
        1.65673         198.587         25.3456         25.3456 
        1.66285         196.989         25.1263         25.1263 
        1.66898         195.882         24.9097         24.9097 
        1.67512         195.245         24.6951         24.6951 
        1.68127         193.054         24.4829         24.4829 
         1.6874         192.192         24.2737         24.2737 
        1.69353         191.031         24.0671         24.0671 
        1.69967          189.47         23.8624         23.8624 
        1.70581         188.774         23.6602         23.6602 
        1.71193         187.083         23.4612         23.4612 
        1.71806         186.501          23.264          23.264 
        1.72421         185.012         23.0687         23.0687 
        1.73035         184.146         22.8758         22.8758 
        1.73649          182.98         22.6853         22.6853 
        1.74262         181.692          22.497          22.497 
        1.74876         180.333         22.3109         22.3109 
        1.75489         179.437         22.1272         22.1272 
        1.76101         177.998         21.9456         21.9456 
        1.76715         177.312         21.7659         21.7659 
        1.77329         176.223         21.5879         21.5879 
        1.77943          175.23         21.4119         21.4119 
        1.78557         173.855         21.2381         21.2381 
        1.79171         173.098         21.0663         21.0663 
        1.79785         171.486         20.8963         20.8963 
        1.80399         170.673         20.7283         20.7283 
        1.81012         169.634         20.5623         20.5623 
        1.81625         168.774         20.3982         20.3982 
        1.82239         167.428         20.2357         20.2357 
        1.82853          167.01         20.0751         20.0751 
        1.83466         165.545         19.9163         19.9163 
        1.84078         164.717         19.7595         19.7595 
        1.84692         163.256         19.6041         19.6041 
        1.85306         162.641         19.4502         19.4502 
         1.8592         161.493         19.2982         19.2982 
        1.86533         160.778         19.1479         19.1479 
        1.87147         159.565         18.9991         18.9991 
        1.87761         158.605         18.8517         18.8517 
