#  k  (h/Mpc)          P(k)  (Mpc/h)^3     P_linear(k)   P_NL(k) (Mpc/h)^3
     0.00783031         5561.28         5627.92         5627.92 
       0.013688         7144.64         7116.53         7116.53 
       0.019231         7343.86         7335.62         7335.62 
      0.0249154         6822.91         6909.04         6909.04 
      0.0312784         6088.86         6121.24         6121.24 
      0.0375637         5347.55          5341.2          5341.2 
      0.0433917         4705.08         4751.68         4751.68 
      0.0492413         4296.64         4312.29         4312.29 
      0.0555754         3898.87         3967.86         3967.86 
      0.0619321         3700.99         3690.44         3690.44 
       0.067871         3386.33         3437.57         3437.57 
      0.0738098         3113.86         3163.29         3163.29 
      0.0800417         2790.84         2854.14         2854.14 
      0.0862327         2514.89         2549.03         2549.03 
      0.0921407         2278.85         2286.64         2286.64 
      0.0982031         2048.79         2065.44         2065.44 
       0.104506         1914.55         1892.13         1892.13 
       0.110769         1784.42         1767.95         1767.95 
       0.116806         1678.38         1676.66         1676.66 
       0.122832         1606.41         1595.39         1595.39 
       0.129052         1497.69         1507.59         1507.59 
       0.135211         1406.19         1410.53         1410.53 
       0.141259         1323.93          1307.8          1307.8 
       0.147318          1233.5         1205.06         1205.06 
       0.153489         1130.39         1109.34         1109.34 
       0.159709         1061.91         1028.25         1028.25 
       0.165845         1015.39         965.124         965.124 
       0.171974         956.804         916.394         916.394 
       0.178125         916.078          876.82          876.82 
       0.184229          882.49         841.164         841.164 
        0.19034         826.707         804.649         804.649 
       0.196428         805.349         765.361         765.361 
       0.202534         774.403         723.418         723.418 
       0.208729         730.265         680.452         680.452 
       0.214876         687.477         640.152         640.152 
       0.220989         664.357          604.52          604.52 
       0.227147         627.303          574.05          574.05 
        0.23329          603.19         548.709         548.709 
       0.239377         588.989         527.272         527.272 
       0.245482         553.058         507.756         507.756 
       0.251667         545.594         488.506         488.506 
       0.257832         526.317         468.914         468.914 
       0.263955         506.622         448.893         448.893 
       0.270079          487.87         428.769         428.769 
        0.27624         478.621         409.171         409.171 
       0.282372         458.634         391.029         391.029 
        0.28843         443.816         374.856         374.856 
       0.294538         424.548         360.355         360.355 
       0.300721         420.452         347.251         347.251 
        0.30691         401.441         335.223         335.223 
       0.313033         392.178         323.916         323.916 
       0.319153         377.545         312.834         312.834 
       0.325316         368.017         301.746         301.746 
        0.33145         356.117         290.808         290.808 
       0.337538         350.726         280.225         280.225 
       0.343633         339.027         270.101         270.101 
       0.349808         328.494         260.486         260.486 
       0.355968         323.391         251.609         251.609 
       0.362074         315.276         243.464         243.464 
       0.368217         306.919         235.823         235.823 
       0.374374         296.696         228.565         228.565 
       0.380519         291.753         221.591         221.591 
       0.386598         284.486         214.877         214.877 
       0.392688          280.84           208.3           208.3 
        0.39888         273.382         201.795         201.795 
       0.405048          267.25         195.543         195.543 
       0.411186         261.458          189.59          189.59 
       0.417313         256.273         183.954         183.954 
       0.423458         251.046         178.604         178.604 
       0.429607         245.188         173.527         173.527 
       0.435692         238.201         168.742         168.742 
       0.441815         236.484         164.121         164.121 
       0.447964         232.274         159.635         159.635 
       0.454126         222.711         155.279         155.279 
       0.460267          220.29         151.072         151.072 
       0.466387         217.397          147.01          147.01 
        0.47254          212.83          143.07          143.07 
       0.478662         210.932         139.303         139.303 
       0.484765         205.173         135.703         135.703 
       0.490885         202.059         132.239         132.239 
       0.497035         199.268         128.896         128.896 
       0.503198         194.042         125.673         125.673 
       0.509342         191.347         122.574         122.574 
       0.515458          188.79         119.587         119.587 
       0.521598         186.188         116.681         116.681 
       0.527764         183.213         113.852         113.852 
       0.533884         180.318         111.136         111.136 
           0.54         177.514         108.512         108.512 
       0.546137         176.131         105.966         105.966 
       0.552299         173.175         103.496         103.496 
       0.558452         170.011         101.115         101.115 
       0.564573          167.03         98.8264         98.8264 
       0.570708         164.662         96.6068         96.6068 
       0.576825         162.424         94.4627         94.4627 
       0.582926         159.848         92.3884         92.3884 
       0.589034         157.237          90.372          90.372 
       0.595184         155.537         88.4018         88.4018 
       0.601379          154.06         86.4773         86.4773 
       0.607522         150.395         84.6268         84.6268 
       0.613639         150.033         82.8399         82.8399 
       0.619772         146.647         81.1019         81.1019 
       0.625918         145.184         79.4118         79.4118 
       0.632068         143.616           77.77           77.77 
       0.638161         142.171         76.1901         76.1901 
         0.6443         140.221         74.6435         74.6435 
       0.650464         138.582         73.1348         73.1348 
       0.656582         136.967         71.6792         71.6792 
       0.662703         134.657         70.2632         70.2632 
       0.668861         133.195          68.878          68.878 
       0.675024         131.598         67.5294         67.5294 
       0.681124         130.446         66.2311         66.2311 
       0.687237         128.131         64.9648         64.9648 
       0.693381         126.633         63.7262         63.7262 
       0.699536         125.421         62.5182         62.5182 
       0.705665         125.774         61.3474         61.3474 
       0.711789         122.431         60.2081         60.2081 
       0.717957         121.904         59.0904         59.0904 
        0.72409         120.158         58.0078         58.0078 
       0.730186         118.178         56.9593         56.9593 
       0.736317         117.914         55.9314         55.9314 
       0.742472         116.689         54.9255         54.9255 
       0.748622         115.694         53.9455         53.9455 
        0.75476         114.458         52.9919         52.9919 
       0.760888         112.915         52.0631         52.0631 
       0.767043         111.918         51.1532         51.1532 
       0.773185         110.725         50.2672         50.2672 
       0.779291         109.666         49.4075         49.4075 
       0.785407         108.861         48.5669         48.5669 
       0.791564         107.514         47.7409         47.7409 
       0.797719         106.091         46.9347         46.9347 
       0.803834         105.658         46.1526         46.1526 
       0.809972         103.902         45.3856         45.3856 
       0.816124         103.452         44.6347         44.6347 
       0.822261         102.557          43.903          43.903 
       0.828378         101.561         43.1902         43.1902 
       0.834502          100.79         42.4927         42.4927 
       0.840667         99.7481         41.8064         41.8064 
       0.846816         98.6836         41.1373         41.1373 
       0.852925         97.7826         40.4873         40.4873 
       0.859047         96.5628         39.8502         39.8502 
       0.865192         96.2095         39.2248         39.2248 
       0.871341         95.4148         38.6126         38.6126 
       0.877463         94.0753         38.0165         38.0165 
       0.883569         93.4938         37.4346         37.4346 
       0.889708         92.9495          36.862          36.862 
       0.895864         92.0815         36.3001         36.3001 
       0.902008         91.3768         35.7513         35.7513 
       0.908149         90.7138         35.2142         35.2142 
       0.914301         89.7251         34.6875         34.6875 
       0.920448         89.1141         34.1722         34.1722 
       0.926574         88.4209         33.6692         33.6692 
       0.932687         87.9284         33.1776         33.1776 
       0.938823         86.6177         32.6942         32.6942 
       0.944975         86.2965         32.2194         32.2194 
       0.951105         85.4918         31.7558         31.7558 
       0.957225         84.4302         31.3023         31.3023 
       0.963368         84.2177         30.8562         30.8562 
       0.969511         83.6899         30.4189         30.4189 
       0.975621         83.1493         29.9925         29.9925 
       0.981748         82.3098         29.5733         29.5733 
       0.987916         81.6841         29.1595         29.1595 
        0.99406          81.248         28.7554         28.7554 
        1.00019         80.2378         28.3597         28.3597 
        1.00632         79.9813         27.9719         27.9719 
        1.01246         79.1879         27.5909         27.5909 
        1.01859         78.2102         27.2177         27.2177 
        1.02471         78.5261          26.852          26.852 
        1.03085         77.5868         26.4917         26.4917 
        1.03698         76.9114         26.1389         26.1389 
        1.04314         76.1551         25.7912         25.7912 
        1.04929           75.85         25.4506         25.4506 
        1.05541         75.1559         25.1176         25.1176 
        1.06154         74.9137         24.7898         24.7898 
        1.06769         74.2585         24.4674         24.4674 
        1.07382         73.9616         24.1519         24.1519 
        1.07993         73.5687         23.8427         23.8427 
        1.08607         72.8207         23.5377         23.5377 
        1.09222         72.4759         23.2377         23.2377 
        1.09836          71.941         22.9434         22.9434 
        1.10449         71.4272         22.6546         22.6546 
        1.11063         70.7824         22.3705         22.3705 
        1.11677           70.38         22.0915         22.0915 
         1.1229         69.9961         21.8177         21.8177 
        1.12903         69.0457         21.5483         21.5483 
        1.13518         69.2298         21.2834         21.2834 
        1.14131         68.8273         21.0231         21.0231 
        1.14745         67.8831         20.7673         20.7673 
        1.15359         67.7475         20.5158         20.5158 
        1.15973         67.1563         20.2684         20.2684 
        1.16584         66.7037         20.0262         20.0262 
        1.17197         66.3548         19.7877         19.7877 
        1.17811         65.9779         19.5524         19.5524 
        1.18424         65.3278         19.3216         19.3216 
        1.19038         65.1278         19.0939         19.0939 
        1.19652         64.8276           18.87           18.87 
        1.20267         64.2959         18.6498         18.6498 
        1.20881         63.8905         18.4331         18.4331 
        1.21495          63.375         18.2203         18.2203 
        1.22108          62.992         18.0108         18.0108 
         1.2272         62.4546         17.8052         17.8052 
        1.23334         62.2178         17.6024         17.6024 
        1.23949         62.0386         17.4023         17.4023 
        1.24562         61.6043         17.2059         17.2059 
        1.25174         61.2795         17.0128         17.0128 
        1.25789         60.9163         16.8221         16.8221 
        1.26402         60.4364         16.6348         16.6348 
        1.27014         59.8843         16.4507         16.4507 
        1.27628         59.7459         16.2689         16.2689 
        1.28244         59.2007         16.0896         16.0896 
        1.28858         58.9912         15.9132         15.9132 
        1.29471         58.8088         15.7398         15.7398 
        1.30084         58.3721         15.5692         15.5692 
        1.30697         57.8987         15.4009         15.4009 
        1.31312         57.5334         15.2349         15.2349 
        1.31925         57.4056         15.0719         15.0719 
        1.32537         57.0561         14.9114         14.9114 
        1.33151          56.592         14.7527         14.7527 
        1.33765         56.4616         14.5965         14.5965 
        1.34378          56.107         14.4428         14.4428 
        1.34992         55.5128         14.2913         14.2913 
        1.35606         55.2593         14.1416         14.1416 
         1.3622         54.9102         13.9943         13.9943 
        1.36833         54.7314         13.8496         13.8496 
        1.37445         54.5305         13.7069         13.7069 
        1.38059         54.1981         13.5659         13.5659 
        1.38675         53.8261         13.4265         13.4265 
        1.39288         53.5363         13.2896         13.2896 
        1.39901         53.1938         13.1548         13.1548 
        1.40515         52.9519         13.0215         13.0215 
         1.4113         52.7648         12.8901         12.8901 
        1.41742         52.3233         12.7611         12.7611 
        1.42355         52.0956         12.6336         12.6336 
         1.4297          51.736         12.5075         12.5075 
        1.43585         51.5978         12.3831         12.3831 
        1.44198         51.2701          12.261          12.261 
        1.44809         50.9923         12.1407         12.1407 
        1.45423         50.8267         12.0216         12.0216 
        1.46036         50.4791         11.9043         11.9043 
        1.46649         50.1781         11.7886         11.7886 
        1.47263         49.9188         11.6744         11.6744 
        1.47877         49.7637         11.5617         11.5617 
        1.48491         49.4976         11.4503         11.4503 
        1.49104         49.1542         11.3407         11.3407 
        1.49718         48.7701         11.2324         11.2324 
        1.50333         48.6311         11.1254         11.1254 
        1.50947         48.3567           11.02           11.02 
         1.5156         48.0701         10.9161         10.9161 
        1.52172         47.8137         10.8136         10.8136 
        1.52787         47.7719         10.7122         10.7122 
          1.534         47.3895         10.6122         10.6122 
        1.54013         47.1196         10.5136         10.5136 
        1.54627              47         10.4161         10.4161 
        1.55241         46.6873         10.3198         10.3198 
        1.55855         46.3693         10.2249         10.2249 
        1.56467          46.024         10.1315         10.1315 
         1.5708         46.0032         10.0389         10.0389 
        1.57695         45.6617         9.94744         9.94744 
        1.58308         45.5922         9.85729         9.85729 
        1.58922         45.4047          9.7682          9.7682 
        1.59535         45.0734         9.68025         9.68025 
         1.6015         44.7909         9.59327         9.59327 
        1.60764         44.6518         9.50741         9.50741 
        1.61376         44.4446         9.42285         9.42285 
        1.61989         44.0157         9.33926         9.33926 
        1.62604         43.9577          9.2565          9.2565 
        1.63218         43.7188          9.1748          9.1748 
        1.63831         43.4965         9.09428         9.09428 
        1.64444          43.336         9.01471         9.01471 
        1.65059         42.9319         8.93591         8.93591 
        1.65673         42.7913         8.85814         8.85814 
        1.66285         42.6287         8.78152         8.78152 
        1.66898         42.3574         8.70579         8.70579 
        1.67512         42.1682         8.63081         8.63081 
        1.68127         41.8889         8.55665         8.55665 
         1.6874         41.8132         8.48354         8.48354 
        1.69353           41.52         8.41133         8.41133 
        1.69967         41.3699         8.33979         8.33979 
        1.70581         41.2292         8.26912         8.26912 
        1.71193         40.9411         8.19955         8.19955 
        1.71806         40.7092         8.13063         8.13063 
        1.72421         40.4883         8.06237         8.06237 
        1.73035         40.3014         7.99498         7.99498 
        1.73649         40.1169         7.92838         7.92838 
        1.74262          39.918          7.8626          7.8626 
        1.74876         39.8963         7.79752         7.79752 
        1.75489         39.5342         7.73332         7.73332 
        1.76101         39.3703         7.66987         7.66987 
        1.76715         39.1621         7.60705         7.60705 
        1.77329         38.9635         7.54487         7.54487 
        1.77943         38.8542         7.48335         7.48335 
        1.78557         38.6411         7.42262         7.42262 
        1.79171         38.4172         7.36255         7.36255 
        1.79785         38.2328         7.30315         7.30315 
        1.80399         38.0762         7.24441         7.24441 
        1.81012         37.9562         7.18641         7.18641 
        1.81625         37.6704         7.12907         7.12907 
        1.82239         37.5638         7.07227         7.07227 
        1.82853         37.2541         7.01613         7.01613 
        1.83466         37.1432         6.96065         6.96065 
        1.84078         36.8745         6.90584         6.90584 
        1.84692         36.7762         6.85153         6.85153 
        1.85306         36.5767         6.79774         6.79774 
         1.8592         36.4175         6.74461         6.74461 
        1.86533         36.1755         6.69209         6.69209 
        1.87147         36.0814         6.64007         6.64007 
        1.87761         35.9946         6.58858         6.58858 
