#  k  (h/Mpc)          P(k)  (Mpc/h)^3     P_linear(k)   P_NL(k) (Mpc/h)^3
     0.00783031         2606.47         2635.32         2635.32 
       0.013688         3072.55         3069.34         3069.34 
       0.019231         2964.56         2960.43         2960.43 
      0.0249154         2596.02         2613.66         2613.66 
      0.0312784         2164.67         2165.22         2165.22 
      0.0375637         1796.71         1788.65         1788.65 
      0.0433917         1534.06         1536.27         1536.27 
      0.0492413         1369.28         1367.07         1367.07 
      0.0555754         1237.99         1245.82         1245.82 
      0.0619321          1157.2         1150.19         1150.19 
       0.067871         1053.71         1058.38         1058.38 
      0.0738098         949.959         954.438         954.438 
      0.0800417         831.114         837.122         837.122 
      0.0862327         724.662         725.478         725.478 
      0.0921407         638.433         635.269         635.269 
      0.0982031         565.823         565.283         565.283 
       0.104506         522.644         515.882         515.882 
       0.110769         488.822         483.954         483.954 
       0.116806         462.396         461.015         461.015 
       0.122832          441.74         438.322         438.322 
       0.129052         410.362         410.382         410.382 
       0.135211         378.208         377.542         377.542 
       0.141259          347.01         342.986         342.986 
       0.147318         316.121         310.051         310.051 
       0.153489         286.443         281.628         281.628 
       0.159709         265.562         259.806         259.806 
       0.165845         252.365         244.536         244.536 
       0.171974         238.643         233.613         233.613 
       0.178125         229.713         224.531         224.531 
       0.184229         220.714         215.223         215.223 
        0.19034         206.723         204.385         204.385 
       0.196428         196.967         192.013         192.013 
       0.202534         186.168         178.877         178.877 
       0.208729         172.534         166.061         166.061 
       0.214876         160.549         154.916         154.916 
       0.220989         153.262         145.899         145.899 
       0.227147         144.573         138.817         138.817 
        0.23329         138.835         133.215         133.215 
       0.239377         134.497         128.374         128.374 
       0.245482         127.659         123.561         123.561 
       0.251667         124.017         118.323         118.323 
       0.257832          118.52         112.671         112.671 
       0.263955         112.692         106.851         106.851 
       0.270079         107.276         101.186         101.186 
        0.27624         103.301         95.9739         95.9739 
       0.282372         98.7905         91.4648         91.4648 
        0.28843         94.4298          87.684          87.684 
       0.294538         90.6846          84.412          84.412 
       0.300721         88.5431         81.4381         81.4381 
        0.30691         84.7097         78.5779         78.5779 
       0.313033         81.8489         75.7218         75.7218 
       0.319153         77.8153          72.788          72.788 
       0.325316           76.17         69.8043         69.8043 
        0.33145         72.8229         66.8975         66.8975 
       0.337538         70.5935         64.1768         64.1768 
       0.343633          67.792         61.6847         61.6847 
       0.349808         65.6104         59.4133         59.4133 
       0.355968         63.7374         57.3729         57.3729 
       0.362074          61.643          55.508          55.508 
       0.368217         59.6725         53.7275         53.7275 
       0.374374         57.7802          51.982          51.982 
       0.380519         56.2158         50.2545         50.2545 
       0.386598         54.5043         48.5649         48.5649 
       0.392688          53.163         46.9088         46.9088 
        0.39888         51.4054          45.295          45.295 
       0.405048         49.9823         43.7812         43.7812 
       0.411186         48.6338         42.3743         42.3743 
       0.417313         47.0322         41.0674         41.0674 
       0.423458         45.7381         39.8379         39.8379 
       0.429607         44.4491         38.6657         38.6657 
       0.435692         43.0276          37.547          37.547 
       0.441815         42.2245         36.4518         36.4518 
       0.447964         41.3677         35.3762         35.3762 
       0.454126         39.5998         34.3272         34.3272 
       0.460267         38.8639          33.319          33.319 
       0.466387         37.6811         32.3569         32.3569 
        0.47254         36.9724         31.4346         31.4346 
       0.478662         36.2636         30.5628         30.5628 
       0.484765         35.1313         29.7364         29.7364 
       0.490885         34.3078         28.9435         28.9435 
       0.497035         33.7659         28.1752         28.1752 
       0.503198         32.8089         27.4298         27.4298 
       0.509342         31.9422         26.7096         26.7096 
       0.515458         31.1901         26.0146         26.0146 
       0.521598         30.6089         25.3384         25.3384 
       0.527764         29.9072         24.6824         24.6824 
       0.533884         29.3572         24.0556         24.0556 
           0.54         28.6359         23.4543         23.4543 
       0.546137         28.1436         22.8748         22.8748 
       0.552299         27.6246         22.3144         22.3144 
       0.558452         26.7531         21.7741         21.7741 
       0.564573         26.3126         21.2536         21.2536 
       0.570708         25.8332         20.7481         20.7481 
       0.576825         25.1777         20.2598         20.2598 
       0.582926         24.6486          19.788          19.788 
       0.589034          23.967         19.3303         19.3303 
       0.595184          23.632          18.884          18.884 
       0.601379         23.1299         18.4489         18.4489 
       0.607522         22.6711         18.0314         18.0314 
       0.613639         22.4099         17.6291         17.6291 
       0.619772         21.8066         17.2388         17.2388 
       0.625918         21.6336           16.86           16.86 
       0.632068         21.2637         16.4926         16.4926 
       0.638161         20.7577         16.1393         16.1393 
         0.6443         20.3264         15.7935         15.7935 
       0.650464         19.9221         15.4564         15.4564 
       0.656582         19.7656         15.1313         15.1313 
       0.662703         19.3581         14.8153         14.8153 
       0.668861         18.9678         14.5067         14.5067 
       0.675024         18.5965         14.2067         14.2067 
       0.681124         18.2641         13.9184         13.9184 
       0.687237         17.9178         13.6378         13.6378 
       0.693381         17.7198         13.3638         13.3638 
       0.699536         17.2546         13.0969         13.0969 
       0.705665         17.1459         12.8385         12.8385 
       0.711789         16.7417         12.5873         12.5873 
       0.717957         16.4832         12.3411         12.3411 
        0.72409          16.221         12.1029         12.1029 
       0.730186         15.9765         11.8723         11.8723 
       0.736317         15.7733         11.6465         11.6465 
       0.742472         15.4833         11.4257         11.4257 
       0.748622         15.2906         11.2108         11.2108 
        0.75476         14.9803          11.002          11.002 
       0.760888         14.7462         10.7988         10.7988 
       0.767043         14.5476            10.6            10.6 
       0.773185         14.2639         10.4066         10.4066 
       0.779291         14.1578         10.2192         10.2192 
       0.785407         13.9761         10.0361         10.0361 
       0.791564         13.7032         9.85638         9.85638 
       0.797719         13.3771         9.68118         9.68118 
       0.803834         13.3402         9.51136         9.51136 
       0.809972         13.1914         9.34502         9.34502 
       0.816124         12.8654         9.18231         9.18231 
       0.822261         12.7119         9.02392         9.02392 
       0.828378         12.5748         8.86976         8.86976 
       0.834502         12.4351         8.71907         8.71907 
       0.840667         12.2271         8.57093         8.57093 
       0.846816         11.9902         8.42665         8.42665 
       0.852925         11.8678         8.28662         8.28662 
       0.859047         11.7159         8.14949         8.14949 
       0.865192          11.586         8.01501         8.01501 
       0.871341         11.4599          7.8835          7.8835 
       0.877463         11.2492         7.75554         7.75554 
       0.883569         11.0822         7.63075         7.63075 
       0.889708         10.8908         7.50808         7.50808 
       0.895864         10.7897          7.3878          7.3878 
       0.902008         10.6974         7.27041         7.27041 
       0.908149         10.5654         7.15565         7.15565 
       0.914301         10.4615         7.04319         7.04319 
       0.920448         10.2547         6.93326         6.93326 
       0.926574         10.1462         6.82606         6.82606 
       0.932687         10.0152         6.72136         6.72136 
       0.938823         9.87631         6.61849         6.61849 
       0.944975         9.74574         6.51753         6.51753 
       0.951105         9.64427         6.41905         6.41905 
       0.957225         9.55334         6.32277         6.32277 
       0.963368          9.4395         6.22814         6.22814 
       0.969511         9.33886         6.13545         6.13545 
       0.975621         9.23571         6.04515         6.04515 
       0.981748         9.10048         5.95644         5.95644 
       0.987916         9.02173         5.86895         5.86895 
        0.99406         8.88758         5.78354         5.78354 
        1.00019         8.74318         5.70001         5.70001 
        1.00632         8.70474         5.61821         5.61821 
        1.01246         8.60637         5.53789         5.53789 
        1.01859         8.45827         5.45927         5.45927 
        1.02471         8.40574         5.38228         5.38228 
        1.03085         8.31091         5.30651         5.30651 
        1.03698         8.16634         5.23235         5.23235 
        1.04314         8.11451          5.1593          5.1593 
        1.04929         8.00211         5.08781         5.08781 
        1.05541         7.89595         5.01796         5.01796 
        1.06154         7.83871         4.94926         4.94926 
        1.06769         7.78646         4.88174         4.88174 
        1.07382         7.67272          4.8157          4.8157 
        1.07993         7.59059         4.75104         4.75104 
        1.08607         7.51376          4.6873          4.6873 
        1.09222         7.44224         4.62466         4.62466 
        1.09836         7.34262         4.56325         4.56325 
        1.10449         7.28022         4.50302         4.50302 
        1.11063         7.18624         4.44381         4.44381 
        1.11677          7.1445          4.3857          4.3857 
         1.1229         7.08573         4.32872         4.32872 
        1.12903         6.98623          4.2727          4.2727 
        1.13518          6.8945         4.21764         4.21764 
        1.14131         6.84179         4.16357         4.16357 
        1.14745         6.76944         4.11048         4.11048 
        1.15359         6.71857         4.05831         4.05831 
        1.15973          6.6416         4.00702         4.00702 
        1.16584         6.53969         3.95685         3.95685 
        1.17197         6.49751         3.90747         3.90747 
        1.17811         6.45431         3.85878         3.85878 
        1.18424         6.38305         3.81106         3.81106 
        1.19038         6.34521         3.76401         3.76401 
        1.19652         6.26579         3.71778         3.71778 
        1.20267         6.19667         3.67232         3.67232 
        1.20881         6.16863         3.62762         3.62762 
        1.21495         6.10826         3.58375         3.58375 
        1.22108         6.02545          3.5406          3.5406 
         1.2272         5.97555         3.49826         3.49826 
        1.23334            5.91         3.45652         3.45652 
        1.23949         5.85057         3.41536         3.41536 
        1.24562         5.81469         3.37498         3.37498 
        1.25174         5.76665         3.33532         3.33532 
        1.25789         5.71139         3.29617         3.29617 
        1.26402         5.68119         3.25772         3.25772 
        1.27014         5.61864         3.21997         3.21997 
        1.27628         5.54525         3.18271         3.18271 
        1.28244         5.48748         3.14597         3.14597 
        1.28858          5.4811         3.10985         3.10985 
        1.29471         5.41084         3.07439         3.07439 
        1.30084         5.34986          3.0395          3.0395 
        1.30697         5.33558         3.00511         3.00511 
        1.31312         5.24574          2.9712          2.9712 
        1.31925         5.20352         2.93792         2.93792 
        1.32537         5.16543         2.90518         2.90518 
        1.33151         5.14257         2.87283         2.87283 
        1.33765         5.08006         2.84098         2.84098 
        1.34378         5.03747         2.80968         2.80968 
        1.34992         4.99847         2.77883         2.77883 
        1.35606         4.95467         2.74838         2.74838 
         1.3622         4.92216         2.71844         2.71844 
        1.36833          4.8648         2.68901         2.68901 
        1.37445         4.83302         2.66003         2.66003 
        1.38059         4.80816          2.6314          2.6314 
        1.38675         4.75865         2.60311         2.60311 
        1.39288         4.73322         2.57535         2.57535 
        1.39901         4.67121         2.54801         2.54801 
        1.40515         4.64554         2.52101         2.52101 
         1.4113          4.6042         2.49441         2.49441 
        1.41742         4.56755         2.46829         2.46829 
        1.42355         4.52264         2.44249         2.44249 
         1.4297         4.49593         2.41699         2.41699 
        1.43585         4.47044         2.39186         2.39186 
        1.44198         4.44045         2.36719         2.36719 
        1.44809         4.39557          2.3429          2.3429 
        1.45423         4.35563         2.31887         2.31887 
        1.46036          4.3182         2.29522         2.29522 
        1.46649         4.29316         2.27189         2.27189 
        1.47263         4.24933         2.24886         2.24886 
        1.47877         4.21748         2.22616         2.22616 
        1.48491         4.19185         2.20374         2.20374 
        1.49104           4.159         2.18168         2.18168 
        1.49718         4.12783          2.1599          2.1599 
        1.50333         4.09948         2.13838         2.13838 
        1.50947         4.05908         2.11719         2.11719 
         1.5156         4.03718         2.09633         2.09633 
        1.52172         4.01183         2.07574         2.07574 
        1.52787         3.97985         2.05539         2.05539 
          1.534         3.94545         2.03534         2.03534 
        1.54013         3.92193         2.01557         2.01557 
        1.54627         3.88345         1.99603         1.99603 
        1.55241         3.85421         1.97675         1.97675 
        1.55855         3.83776         1.95775         1.95775 
        1.56467         3.80382         1.93905         1.93905 
         1.5708         3.78322         1.92054         1.92054 
        1.57695         3.74814         1.90224         1.90224 
        1.58308         3.71357         1.88423         1.88423 
        1.58922         3.70228         1.86643         1.86643 
        1.59535         3.68078         1.84887         1.84887 
         1.6015         3.64233         1.83152         1.83152 
        1.60764         3.61329         1.81439         1.81439 
        1.61376         3.59676         1.79753         1.79753 
        1.61989         3.56845         1.78086         1.78086 
        1.62604          3.5432         1.76438         1.76438 
        1.63218         3.53031         1.74811         1.74811 
        1.63831         3.49855         1.73208         1.73208 
        1.64444          3.4776         1.71624         1.71624 
        1.65059         3.43541         1.70057         1.70057 
        1.65673         3.43506         1.68511         1.68511 
        1.66285         3.39462         1.66988         1.66988 
        1.66898         3.37361         1.65484         1.65484 
        1.67512          3.3561         1.63995         1.63995 
        1.68127         3.33025         1.62523         1.62523 
         1.6874         3.31464         1.61073         1.61073 
        1.69353         3.28392         1.59641         1.59641 
        1.69967         3.27052         1.58223         1.58223 
        1.70581         3.24922         1.56823         1.56823 
        1.71193         3.22128         1.55445         1.55445 
        1.71806         3.20463          1.5408          1.5408 
        1.72421          3.1826          1.5273          1.5273 
        1.73035         3.16718         1.51396         1.51396 
        1.73649         3.14401          1.5008          1.5008 
        1.74262         3.11866         1.48779         1.48779 
        1.74876         3.10414         1.47494         1.47494 
        1.75489         3.08709         1.46226         1.46226 
        1.76101         3.05906         1.44973         1.44973 
        1.76715          3.0468         1.43733         1.43733 
        1.77329          3.0262         1.42506         1.42506 
        1.77943         2.99822         1.41293         1.41293 
        1.78557          2.9873         1.40096         1.40096 
        1.79171         2.96901         1.38913         1.38913 
        1.79785         2.94902         1.37742         1.37742 
        1.80399          2.9278         1.36586         1.36586 
        1.81012         2.91015         1.35444         1.35444 
        1.81625         2.89406         1.34316         1.34316 
        1.82239         2.87882         1.33199         1.33199 
        1.82853         2.85421         1.32095         1.32095 
        1.83466         2.84243         1.31004         1.31004 
        1.84078         2.83029         1.29928         1.29928 
        1.84692         2.81509         1.28861         1.28861 
        1.85306         2.78933         1.27805         1.27805 
         1.8592          2.7703         1.26763         1.26763 
        1.86533         2.75389         1.25732         1.25732 
        1.87147         2.74125         1.24712         1.24712 
        1.87761         2.72371         1.23703         1.23703 
