# k  (h/Mpc)    P(k)  (Mpc/h)^3    P_linear(k)  (Mpc/h)^3     P_NL(k)  ShotnoiseSubtracted = false
     0.00783031           11998         12166.6         12166.6 
       0.013688         15497.8         15379.5         15379.5 
       0.019231           15866         15850.9         15850.9 
      0.0249154         14631.5           14928           14928 
      0.0312784         13075.3         13225.2         13225.2 
      0.0375637         11512.8         11539.5         11539.5 
      0.0433917         10064.9         10265.7         10265.7 
      0.0492413         9218.73         9316.26         9316.26 
      0.0555754         8293.32         8572.08         8572.08 
      0.0619321          7943.3         7972.66         7972.66 
       0.067871         7200.52         7426.32         7426.32 
      0.0738098         6625.55         6833.76         6833.76 
      0.0800417         5916.23         6165.86         6165.86 
      0.0862327         5357.04          5506.7          5506.7 
      0.0921407          4891.9         4939.85         4939.85 
      0.0982031         4399.78         4461.98         4461.98 
       0.104506          4148.7         4087.58         4087.58 
       0.110769         3863.88          3819.3          3819.3 
       0.116806          3642.4         3622.07         3622.07 
       0.122832         3476.84         3446.51         3446.51 
       0.129052         3223.58         3256.82         3256.82 
       0.135211          3038.3         3047.16         3047.16 
       0.141259         2885.47         2825.21         2825.21 
       0.147318         2705.34         2603.27         2603.27 
       0.153489         2480.05         2396.47         2396.47 
       0.159709         2349.61          2221.3          2221.3 
       0.165845         2267.29         2084.93         2084.93 
       0.171974         2146.35         1979.66         1979.66 
       0.178125         2049.05         1894.17         1894.17 
       0.184229         1968.56         1817.14         1817.14 
        0.19034         1852.63         1738.26         1738.26 
       0.196428         1813.98         1653.39         1653.39 
       0.202534         1743.89         1562.78         1562.78 
       0.208729         1659.34         1469.96         1469.96 
       0.214876         1583.68          1382.9          1382.9 
       0.220989         1532.88         1305.92         1305.92 
       0.227147         1464.25          1240.1          1240.1 
        0.23329         1410.26         1185.37         1185.37 
       0.239377         1388.74         1139.05         1139.05 
       0.245482         1302.39         1096.89         1096.89 
       0.251667         1294.11         1055.31         1055.31 
       0.257832          1244.3         1012.97         1012.97 
       0.263955         1203.12          969.73          969.73 
       0.270079         1162.17         926.257         926.257 
        0.27624         1149.11         883.917         883.917 
       0.282372         1100.36         844.734         844.734 
        0.28843         1089.18         809.783         809.783 
       0.294538         1035.92         778.468         778.468 
       0.300721         1032.28         750.152         750.152 
        0.30691         988.831         724.175         724.175 
       0.313033         970.364         699.741         699.741 
       0.319153         951.248          675.81          675.81 
       0.325316         920.753         651.846         651.846 
        0.33145         898.837         628.226         628.226 
       0.337538         885.463         605.357         605.357 
       0.343633         862.518         583.493         583.493 
       0.349808         833.922         562.718         562.718 
       0.355968         829.095         543.542         543.542 
       0.362074         818.683         525.947         525.947 
       0.368217         794.876         509.438         509.438 
       0.374374         762.763         493.764         493.764 
       0.380519         762.448         478.693         478.693 
       0.386598         743.023          464.19          464.19 
       0.392688         740.408         449.985         449.985 
        0.39888         718.958         435.928         435.928 
       0.405048         707.696         422.424         422.424 
       0.411186         697.354         409.569         409.569 
       0.417313         683.634         397.386         397.386 
       0.423458         672.124         385.832         385.832 
       0.429607         661.673         374.865         374.865 
       0.435692         647.099         364.525         364.525 
       0.441815         642.811         354.542         354.542 
       0.447964         629.041         344.857         344.857 
       0.454126         618.896         335.444         335.444 
       0.460267          606.99         326.352         326.352 
       0.466387         600.602         317.582         317.582 
        0.47254         591.077         309.071         309.071 
       0.478662         588.883         300.931         300.931 
       0.484765         571.098         293.152         293.152 
       0.490885         566.764         285.672         285.672 
       0.497035         555.771         278.451         278.451 
       0.503198         550.177         271.487         271.487 
       0.509342         545.209         264.789         264.789 
       0.515458         541.173          258.34          258.34 
       0.521598         528.585         252.063         252.063 
       0.527764         518.177         245.952         245.952 
       0.533884         517.017         240.082         240.082 
           0.54         510.449         234.412         234.412 
       0.546137         507.857         228.914         228.914 
       0.552299         498.739         223.581         223.581 
       0.558452          496.34         218.437         218.437 
       0.564573         488.922         213.491         213.491 
       0.570708         482.499         208.694         208.694 
       0.576825         470.708         204.063         204.063 
       0.582926         470.919         199.583         199.583 
       0.589034         466.577         195.229         195.229 
       0.595184         462.123         190.973         190.973 
       0.601379         456.136         186.815         186.815 
       0.607522         449.882         182.816         182.816 
       0.613639         448.847         178.954         178.954 
       0.619772         437.612           175.2           175.2 
       0.625918         436.756          171.55          171.55 
       0.632068         430.218         168.004         168.004 
       0.638161         428.664         164.592         164.592 
         0.6443         420.822         161.251         161.251 
       0.650464          418.24         157.991         157.991 
       0.656582         416.425         154.846         154.846 
       0.662703         414.103         151.786         151.786 
       0.668861         406.635         148.793         148.793 
       0.675024         403.122          145.88          145.88 
       0.681124         400.587         143.076         143.076 
       0.687237         396.667          140.34          140.34 
       0.693381         391.505         137.665         137.665 
       0.699536          387.03         135.056         135.056 
       0.705665         384.752         132.527         132.527 
       0.711789         382.119         130.066         130.066 
       0.717957         378.757         127.652         127.652 
        0.72409         375.878         125.313         125.313 
       0.730186         371.401         123.047         123.047 
       0.736317         368.213         120.827         120.827 
       0.742472         366.726         118.653         118.653 
       0.748622         362.596         116.536         116.536 
        0.75476         358.612         114.476         114.476 
       0.760888         354.759         112.469         112.469 
       0.767043         355.432         110.504         110.504 
       0.773185         350.626          108.59          108.59 
       0.779291         345.723         106.733         106.733 
       0.785407         344.477         104.917         104.917 
       0.791564         340.349         103.133         103.133 
       0.797719         338.048         101.391         101.391 
       0.803834         335.321         99.7017         99.7017 
       0.809972         333.861          98.045          98.045 
       0.816124         333.497         96.4228         96.4228 
       0.822261          328.31         94.8421         94.8421 
       0.828378         326.286         93.3022         93.3022 
       0.834502         324.288         91.7955         91.7955 
       0.840667         320.413         90.3128         90.3128 
       0.846816         318.853         88.8675         88.8675 
       0.852925         316.602         87.4633         87.4633 
       0.859047          314.92         86.0869         86.0869 
       0.865192         311.476         84.7359         84.7359 
       0.871341         309.128         83.4134         83.4134 
       0.877463         307.353         82.1255         82.1255 
       0.883569         305.669         80.8685         80.8685 
       0.889708         302.747         79.6316         79.6316 
       0.895864         299.582         78.4177         78.4177 
       0.902008         298.497         77.2321         77.2321 
       0.908149         296.632         76.0719         76.0719 
       0.914301         293.034         74.9341         74.9341 
       0.920448         291.091         73.8208         73.8208 
       0.926574         288.348         72.7343         72.7343 
       0.932687         288.758         71.6723         71.6723 
       0.938823         285.127          70.628          70.628 
       0.944975         284.261         69.6023         69.6023 
       0.951105         281.895         68.6009         68.6009 
       0.957225         279.741         67.6212         67.6212 
       0.963368         276.282         66.6575         66.6575 
       0.969511         275.112         65.7128         65.7128 
       0.975621         272.755         64.7917         64.7917 
       0.981748         272.808         63.8861         63.8861 
       0.987916         270.224         62.9923         62.9923 
        0.99406         266.518         62.1192         62.1192 
        1.00019         266.476         61.2645         61.2645 
        1.00632         264.544         60.4268         60.4268 
        1.01246         262.312         59.6037         59.6037 
        1.01859         262.422         58.7974         58.7974 
        1.02471         258.806         58.0073         58.0073 
        1.03085         256.492          57.229          57.229 
        1.03698         255.793         56.4669         56.4669 
        1.04314         253.242         55.7156         55.7156 
        1.04929         251.642         54.9798         54.9798 
        1.05541         251.564         54.2605         54.2605 
        1.06154         248.081         53.5524         53.5524 
        1.06769         247.475         52.8559         52.8559 
        1.07382         245.834         52.1743         52.1743 
        1.07993         243.745         51.5064         51.5064 
        1.08607          243.12         50.8475         50.8475 
        1.09222         241.322         50.1996         50.1996 
        1.09836           239.3         49.5639         49.5639 
        1.10449         236.842           48.94           48.94 
        1.11063         234.931         48.3263         48.3263 
        1.11677         234.572         47.7234         47.7234 
         1.1229         232.893          47.132          47.132 
        1.12903         231.379         46.5501         46.5501 
        1.13518         229.935         45.9777         45.9777 
        1.14131         228.107         45.4154         45.4154 
        1.14745         227.756         44.8629         44.8629 
        1.15359         225.743         44.3196         44.3196 
        1.15973         224.465         43.7851         43.7851 
        1.16584          222.36         43.2619         43.2619 
        1.17197          222.11         42.7467         42.7467 
        1.17811         219.891         42.2383         42.2383 
        1.18424         218.628         41.7397         41.7397 
        1.19038         217.848         41.2479         41.2479 
        1.19652         216.176         40.7642         40.7642 
        1.20267         215.573         40.2884         40.2884 
        1.20881         213.433         39.8203         39.8203 
        1.21495         212.318         39.3605         39.3605 
        1.22108          211.11         38.9081         38.9081 
         1.2272         209.392         38.4639         38.4639 
        1.23334         208.426         38.0257         38.0257 
        1.23949         207.174         37.5934         37.5934 
        1.24562          206.08         37.1691         37.1691 
        1.25174         203.959          36.752          36.752 
        1.25789         202.631         36.3401         36.3401 
        1.26402         201.515         35.9353         35.9353 
        1.27014         200.157         35.5378         35.5378 
        1.27628         199.154         35.1451         35.1451 
        1.28244         198.824         34.7576         34.7576 
        1.28858         196.724         34.3766         34.3766 
        1.29471          195.07         34.0021         34.0021 
        1.30084         194.344         33.6336         33.6336 
        1.30697         192.925         33.2701         33.2701 
        1.31312         191.582         32.9114         32.9114 
        1.31925          191.06         32.5593         32.5593 
        1.32537         189.823         32.2126         32.2126 
        1.33151         187.996         31.8698         31.8698 
        1.33765         187.104         31.5323         31.5323 
        1.34378         186.178         31.2003         31.2003 
        1.34992         185.272         30.8729         30.8729 
        1.35606         184.904         30.5496         30.5496 
         1.3622         183.148         30.2315         30.2315 
        1.36833         181.399         29.9187         29.9187 
        1.37445         180.435         29.6106         29.6106 
        1.38059         179.319         29.3059         29.3059 
        1.38675         178.548         29.0048         29.0048 
        1.39288         177.371         28.7091         28.7091 
        1.39901         177.223         28.4178         28.4178 
        1.40515         175.287         28.1299         28.1299 
         1.4113         174.006         27.8461         27.8461 
        1.41742         173.148         27.5673         27.5673 
        1.42355         171.992         27.2919         27.2919 
         1.4297         171.016         27.0194         27.0194 
        1.43585         169.785         26.7508         26.7508 
        1.44198         169.014         26.4869         26.4869 
        1.44809         168.285         26.2271         26.2271 
        1.45423         166.985         25.9698         25.9698 
        1.46036         166.128         25.7165         25.7165 
        1.46649         164.835         25.4665         25.4665 
        1.47263         163.906         25.2196         25.2196 
        1.47877          163.21         24.9762         24.9762 
        1.48491         161.509         24.7356         24.7356 
        1.49104         161.406         24.4987         24.4987 
        1.49718          159.51         24.2648         24.2648 
        1.50333         159.009         24.0336         24.0336 
        1.50947         158.339         23.8059         23.8059 
         1.5156         156.995         23.5815         23.5815 
        1.52172         156.087           23.36           23.36 
        1.52787         154.962          23.141          23.141 
          1.534         154.442          22.925          22.925 
        1.54013         153.245         22.7121         22.7121 
        1.54627         152.551         22.5015         22.5015 
        1.55241           151.4         22.2935         22.2935 
        1.55855         150.596         22.0885         22.0885 
        1.56467         149.723         21.8866         21.8866 
         1.5708          148.88         21.6867         21.6867 
        1.57695         147.937          21.489          21.489 
        1.58308         147.313         21.2943         21.2943 
        1.58922         146.407         21.1019         21.1019 
        1.59535         145.156         20.9119         20.9119 
         1.6015         144.757          20.724          20.724 
        1.60764         143.739         20.5385         20.5385 
        1.61376         142.864         20.3558         20.3558 
        1.61989         141.876         20.1752         20.1752 
        1.62604         141.145         19.9965         19.9965 
        1.63218         140.427           19.82           19.82 
        1.63831         139.344          19.646          19.646 
        1.64444         138.937         19.4741         19.4741 
        1.65059         138.128         19.3039         19.3039 
        1.65673         136.783         19.1359         19.1359 
        1.66285         136.597         18.9704         18.9704 
        1.66898         135.591         18.8068         18.8068 
        1.67512         135.111         18.6448         18.6448 
        1.68127         133.789         18.4846         18.4846 
         1.6874         132.687         18.3267         18.3267 
        1.69353         132.516         18.1707         18.1707 
        1.69967         131.581         18.0162         18.0162 
        1.70581         130.844         17.8635         17.8635 
        1.71193         129.952         17.7132         17.7132 
        1.71806         129.447         17.5643         17.5643 
        1.72421         128.545         17.4169         17.4169 
        1.73035         128.213         17.2713         17.2713 
        1.73649          127.31         17.1274         17.1274 
        1.74262         126.316         16.9853         16.9853 
        1.74876         125.919         16.8447         16.8447 
        1.75489         124.753          16.706          16.706 
        1.76101         124.179          16.569          16.569 
        1.76715         123.427         16.4333         16.4333 
        1.77329         123.201         16.2989         16.2989 
        1.77943         121.974          16.166          16.166 
        1.78557         121.357         16.0348         16.0348 
        1.79171         120.691          15.905          15.905 
        1.79785         119.882         15.7767         15.7767 
        1.80399         119.236         15.6498         15.6498 
        1.81012         118.593         15.5245         15.5245 
        1.81625         117.853         15.4006         15.4006 
        1.82239         117.462         15.2779         15.2779 
        1.82853         116.794         15.1566         15.1566 
        1.83466         115.891         15.0368         15.0368 
        1.84078         115.489         14.9184         14.9184 
        1.84692         114.473         14.8011         14.8011 
        1.85306         114.091         14.6849         14.6849 
         1.8592         113.205         14.5701         14.5701 
        1.86533         112.423         14.4566         14.4566 
        1.87147         111.805         14.3443         14.3443 
        1.87761         111.403          14.233          14.233 
