# k  (h/Mpc)    P(k)  (Mpc/h)^3    P_linear(k)  (Mpc/h)^3     P_NL(k)  ShotnoiseSubtracted = false
     0.00783031         653.788         659.993         659.993 
       0.013688         833.232         834.995         834.995 
       0.019231         860.634         860.889         860.889 
      0.0249154         807.028         810.924         810.924 
      0.0312784         717.988         718.515         718.515 
      0.0375637         628.324         626.984         626.984 
      0.0433917          557.18           557.8           557.8 
      0.0492413         506.633         506.229         506.229 
      0.0555754         464.209         465.805         465.805 
      0.0619321         434.625         433.242         433.242 
       0.067871         402.466         403.559         403.559 
      0.0738098         370.089         371.363         371.363 
      0.0800417         333.282         335.071         335.071 
      0.0862327         298.534         299.253         299.253 
      0.0921407         268.417          268.45          268.45 
      0.0982031         241.943         242.482         242.482 
       0.104506         223.011         222.137         222.137 
       0.110769         208.124         207.558         207.558 
       0.116806         196.398         196.841         196.841 
       0.122832          187.53           187.3           187.3 
       0.129052         176.417         176.992         176.992 
       0.135211         164.975         165.599         165.599 
       0.141259         153.642         153.537         153.537 
       0.147318         142.151         141.476         141.476 
       0.153489         130.551         130.238         130.238 
       0.159709         121.191         120.718         120.718 
       0.165845         114.552         113.307         113.307 
       0.171974         107.995         107.586         107.586 
       0.178125         103.445          102.94          102.94 
       0.184229         99.4781         98.7541         98.7541 
        0.19034         94.3844         94.4673         94.4673 
       0.196428         90.3346          89.855          89.855 
       0.202534         86.0468         84.9309         84.9309 
       0.208729         80.6819         79.8867         79.8867 
       0.214876         75.6092         75.1552         75.1552 
       0.220989         72.1585         70.9716         70.9716 
       0.227147         67.9334         67.3949         67.3949 
        0.23329         64.9983         64.4201         64.4201 
       0.239377         62.6284         61.9029         61.9029 
       0.245482         59.9847         59.6119         59.6119 
       0.251667         58.1611         57.3522         57.3522 
       0.257832         55.7873         55.0513         55.0513 
       0.263955         53.4584         52.7012         52.7012 
       0.270079         51.1879         50.3387         50.3387 
        0.27624         49.2305         48.0376         48.0376 
       0.282372         47.0853         45.9082         45.9082 
        0.28843         44.9886         44.0088         44.0088 
       0.294538          43.273         42.3069         42.3069 
       0.300721         41.9909         40.7681         40.7681 
        0.30691         40.3098         39.3563         39.3563 
       0.313033         38.9978         38.0284         38.0284 
       0.319153         37.2907         36.7278         36.7278 
       0.325316         36.5264         35.4255         35.4255 
        0.33145         35.1234         34.1419         34.1419 
       0.337538         33.9391          32.899          32.899 
       0.343633         32.6666         31.7108         31.7108 
       0.349808         31.6304         30.5817         30.5817 
       0.355968         30.6182         29.5396         29.5396 
       0.362074          29.617         28.5833         28.5833 
       0.368217         28.7212         27.6862         27.6862 
       0.374374         27.7563         26.8344         26.8344 
       0.380519         27.0441         26.0153         26.0153 
       0.386598         26.2792         25.2271         25.2271 
       0.392688         25.6059         24.4551         24.4551 
        0.39888         24.7784         23.6911         23.6911 
       0.405048         24.0984         22.9573         22.9573 
       0.411186         23.4438         22.2586         22.2586 
       0.417313         22.6503         21.5965         21.5965 
       0.423458          22.065         20.9686         20.9686 
       0.429607         21.4069         20.3726         20.3726 
       0.435692         20.8107         19.8107         19.8107 
       0.441815         20.3172         19.2682         19.2682 
       0.447964         19.9124         18.7418         18.7418 
       0.454126         19.2145         18.2302         18.2302 
       0.460267         18.7599         17.7361         17.7361 
       0.466387         18.1914         17.2595         17.2595 
        0.47254         17.8237          16.797          16.797 
       0.478662         17.4306         16.3545         16.3545 
       0.484765         16.9332         15.9318         15.9318 
       0.490885         16.5197         15.5253         15.5253 
       0.497035         16.2525         15.1328         15.1328 
       0.503198         15.8159         14.7544         14.7544 
       0.509342          15.443         14.3904         14.3904 
       0.515458          15.046         14.0399         14.0399 
       0.521598          14.736         13.6988         13.6988 
       0.527764         14.3669         13.3667         13.3667 
       0.533884         14.1055         13.0476         13.0476 
           0.54         13.7771         12.7395         12.7395 
       0.546137         13.5004         12.4407         12.4407 
       0.552299         13.2198         12.1509         12.1509 
       0.558452         12.8295         11.8713         11.8713 
       0.564573         12.6333         11.6025         11.6025 
       0.570708         12.3741         11.3418         11.3418 
       0.576825         12.0526         11.0901         11.0901 
       0.582926         11.8446         10.8467         10.8467 
       0.589034         11.4973           10.61           10.61 
       0.595184         11.3109         10.3787         10.3787 
       0.601379         11.0664         10.1527         10.1527 
       0.607522         10.8917         9.93541         9.93541 
       0.613639         10.7305         9.72556         9.72556 
       0.619772         10.4422         9.52153         9.52153 
       0.625918         10.3123         9.32315         9.32315 
       0.632068         10.1408         9.13046         9.13046 
       0.638161         9.88894         8.94503         8.94503 
         0.6443         9.68696         8.76345         8.76345 
       0.650464         9.47723          8.5863          8.5863 
       0.656582         9.37704         8.41536         8.41536 
       0.662703         9.19854         8.24908         8.24908 
       0.668861         9.03489         8.08642         8.08642 
       0.675024         8.84096         7.92809         7.92809 
       0.681124          8.6783         7.77567         7.77567 
       0.687237         8.54385         7.62703         7.62703 
       0.693381         8.40709         7.48165         7.48165 
       0.699536         8.18044         7.33986         7.33986 
       0.705665         8.06887         7.20241         7.20241 
       0.711789         7.93751         7.06866         7.06866 
       0.717957         7.79136         6.93744         6.93744 
        0.72409         7.65458         6.81033         6.81033 
       0.730186         7.54413         6.68721         6.68721 
       0.736317         7.45603         6.56652         6.56652 
       0.742472         7.33014         6.44841         6.44841 
       0.748622         7.19486         6.33335         6.33335 
        0.75476           7.031         6.22139         6.22139 
       0.760888         6.94378         6.11234         6.11234 
       0.767043         6.85805         6.00551         6.00551 
       0.773185          6.7111          5.9015          5.9015 
       0.779291         6.63779         5.80057         5.80057 
       0.785407         6.52644          5.7019          5.7019 
       0.791564         6.42044         5.60492         5.60492 
       0.797719         6.32128         5.51028         5.51028 
       0.803834         6.24832         5.41845         5.41845 
       0.809972         6.16462         5.32842         5.32842 
       0.816124         6.03445         5.24026         5.24026 
       0.822261         5.93404         5.15436         5.15436 
       0.828378         5.86428         5.07066         5.07066 
       0.834502         5.79962         4.98878         4.98878 
       0.840667          5.6817          4.9082          4.9082 
       0.846816         5.59012         4.82965         4.82965 
       0.852925          5.5366         4.75334         4.75334 
       0.859047         5.45462         4.67854         4.67854 
       0.865192         5.38953         4.60512         4.60512 
       0.871341         5.31817         4.53324         4.53324 
       0.877463         5.24244         4.46325         4.46325 
       0.883569         5.14545         4.39493         4.39493 
       0.889708         5.06233         4.32771         4.32771 
       0.895864         5.00877         4.26174         4.26174 
       0.902008          4.9364         4.19731         4.19731 
       0.908149         4.87682         4.13426         4.13426 
       0.914301         4.78965         4.07242         4.07242 
       0.920448         4.72408         4.01192         4.01192 
       0.926574          4.6572         3.95287         3.95287 
       0.932687         4.61005         3.89515         3.89515 
       0.938823         4.55193          3.8384          3.8384 
       0.944975         4.48645         3.78265         3.78265 
       0.951105         4.43549         3.72823         3.72823 
       0.957225          4.4058         3.67499         3.67499 
       0.963368          4.3345         3.62261         3.62261 
       0.969511          4.2731         3.57127         3.57127 
       0.975621          4.2094         3.52122         3.52122 
       0.981748         4.16876           3.472           3.472 
       0.987916         4.11428         3.42342         3.42342 
        0.99406         4.04551         3.37597         3.37597 
        1.00019         3.99774         3.32952         3.32952 
        1.00632         3.95585           3.284           3.284 
        1.01246         3.91094         3.23926         3.23926 
        1.01859         3.86125         3.19545         3.19545 
        1.02471         3.81216          3.1525          3.1525 
        1.03085         3.76851         3.11021         3.11021 
        1.03698         3.71574         3.06879         3.06879 
        1.04314         3.67843         3.02796         3.02796 
        1.04929         3.62916         2.98797         2.98797 
        1.05541         3.58752         2.94888         2.94888 
        1.06154         3.54793         2.91039         2.91039 
        1.06769         3.51699         2.87255         2.87255 
        1.07382         3.46497          2.8355          2.8355 
        1.07993         3.41576          2.7992          2.7992 
        1.08607          3.3948          2.7634          2.7634 
        1.09222         3.35013         2.72818         2.72818 
        1.09836         3.32099         2.69363         2.69363 
        1.10449         3.28027         2.65973         2.65973 
        1.11063         3.23731         2.62637         2.62637 
        1.11677         3.20249         2.59361         2.59361 
         1.1229         3.16556         2.56147         2.56147 
        1.12903         3.12799         2.52985         2.52985 
        1.13518         3.10145         2.49874         2.49874 
        1.14131         3.05335         2.46818         2.46818 
        1.14745         3.00779         2.43815         2.43815 
        1.15359         2.99334         2.40862         2.40862 
        1.15973         2.94784         2.37958         2.37958 
        1.16584         2.93154         2.35114         2.35114 
        1.17197         2.89584         2.32314         2.32314 
        1.17811         2.86652         2.29551         2.29551 
        1.18424         2.84472         2.26842         2.26842 
        1.19038         2.81003         2.24169         2.24169 
        1.19652         2.78012          2.2154          2.2154 
        1.20267         2.75361         2.18954         2.18954 
        1.20881          2.7185          2.1641          2.1641 
        1.21495           2.698         2.13911         2.13911 
        1.22108         2.66929         2.11453         2.11453 
         1.2272         2.64946         2.09039         2.09039 
        1.23334         2.61179         2.06657         2.06657 
        1.23949         2.58359         2.04308         2.04308 
        1.24562         2.56733         2.02002         2.02002 
        1.25174          2.5331         1.99735         1.99735 
        1.25789         2.51243         1.97497         1.97497 
        1.26402         2.48005         1.95297         1.95297 
        1.27014         2.45561         1.93136         1.93136 
        1.27628         2.44324         1.91002         1.91002 
        1.28244          2.4074         1.88896         1.88896 
        1.28858         2.39085         1.86825         1.86825 
        1.29471         2.36475          1.8479          1.8479 
        1.30084         2.33936         1.82788         1.82788 
        1.30697         2.32559         1.80812         1.80812 
        1.31312         2.28524         1.78863         1.78863 
        1.31925         2.27533         1.76949         1.76949 
        1.32537         2.25339         1.75065         1.75065 
        1.33151         2.23728         1.73202         1.73202 
        1.33765         2.20743         1.71368         1.71368 
        1.34378         2.18603         1.69563         1.69563 
        1.34992         2.17586         1.67784         1.67784 
        1.35606         2.14386         1.66027         1.66027 
         1.3622         2.13225         1.64298         1.64298 
        1.36833         2.11079         1.62599         1.62599 
        1.37445         2.08812         1.60924         1.60924 
        1.38059         2.07325         1.59268         1.59268 
        1.38675         2.06267         1.57632         1.57632 
        1.39288         2.03396         1.56025         1.56025 
        1.39901         2.01427         1.54441         1.54441 
        1.40515          1.9989         1.52877         1.52877 
         1.4113         1.98135         1.51334         1.51334 
        1.41742         1.96471         1.49819         1.49819 
        1.42355         1.95352         1.48322         1.48322 
         1.4297         1.92702         1.46842         1.46842 
        1.43585         1.91646         1.45382         1.45382 
        1.44198         1.90323         1.43948         1.43948 
        1.44809         1.87693         1.42536         1.42536 
        1.45423         1.86274         1.41137         1.41137 
        1.46036         1.84701         1.39761         1.39761 
        1.46649         1.82976         1.38402         1.38402 
        1.47263         1.81233          1.3706          1.3706 
        1.47877         1.79479         1.35737         1.35737 
        1.48491         1.78161          1.3443          1.3443 
        1.49104          1.7692         1.33143         1.33143 
        1.49718         1.75602         1.31871         1.31871 
        1.50333         1.73838         1.30615         1.30615 
        1.50947         1.72666         1.29377         1.29377 
         1.5156         1.71134         1.28158         1.28158 
        1.52172         1.69687         1.26954         1.26954 
        1.52787         1.68137         1.25764         1.25764 
          1.534         1.67086          1.2459          1.2459 
        1.54013         1.65288         1.23433         1.23433 
        1.54627         1.63701         1.22288         1.22288 
        1.55241         1.62467         1.21158         1.21158 
        1.55855         1.61426         1.20044         1.20044 
        1.56467          1.6016         1.18947         1.18947 
         1.5708         1.58281          1.1786          1.1786 
        1.57695         1.57621         1.16786         1.16786 
        1.58308         1.56225         1.15728         1.15728 
        1.58922         1.55079         1.14682         1.14682 
        1.59535         1.53809         1.13649         1.13649 
         1.6015          1.5264         1.12628         1.12628 
        1.60764         1.51631          1.1162          1.1162 
        1.61376         1.50311         1.10627         1.10627 
        1.61989         1.49036         1.09646         1.09646 
        1.62604           1.478         1.08674         1.08674 
        1.63218         1.47123         1.07715         1.07715 
        1.63831         1.45423          1.0677          1.0677 
        1.64444          1.4429         1.05836         1.05836 
        1.65059         1.43495         1.04911         1.04911 
        1.65673         1.42279         1.03998         1.03998 
        1.66285         1.40985         1.03098         1.03098 
        1.66898         1.40317         1.02209         1.02209 
        1.67512         1.38782         1.01329         1.01329 
        1.68127         1.37925         1.00458         1.00458 
         1.6874         1.37196        0.995997        0.995997 
        1.69353         1.35614        0.987519        0.987519 
        1.69967         1.34664        0.979121        0.979121 
        1.70581          1.3414        0.970825        0.970825 
        1.71193         1.32873        0.962656        0.962656 
        1.71806         1.32155        0.954565        0.954565 
        1.72421         1.31045        0.946552        0.946552 
        1.73035         1.29883         0.93864         0.93864 
        1.73649         1.29149        0.930821        0.930821 
        1.74262         1.28176        0.923097        0.923097 
        1.74876         1.27254        0.915457        0.915457 
        1.75489          1.2607         0.90792         0.90792 
        1.76101         1.25226         0.90047         0.90047 
        1.76715          1.2442        0.893095        0.893095 
        1.77329         1.23543        0.885793        0.885793 
        1.77943         1.22492        0.878571        0.878571 
        1.78557         1.21642         0.87144         0.87144 
        1.79171         1.21065        0.864388        0.864388 
        1.79785         1.19968        0.857413        0.857413 
        1.80399         1.19255        0.850518        0.850518 
        1.81012         1.18568        0.843707        0.843707 
        1.81625         1.17438        0.836975        0.836975 
        1.82239         1.16719        0.830307        0.830307 
        1.82853         1.15472        0.823716        0.823716 
        1.83466         1.15026        0.817202        0.817202 
        1.84078         1.14169        0.810767        0.810767 
        1.84692         1.13588        0.804391        0.804391 
        1.85306         1.12607        0.798076        0.798076 
         1.8592         1.11992        0.791839        0.791839 
        1.86533         1.11097        0.785673        0.785673 
        1.87147         1.10448        0.779566        0.779566 
        1.87761         1.09684        0.773521        0.773521 
