# k  (h/Mpc)    Pcb(k)  (Mpc/h)^3    Pcb_linear(k) (Mpc/h)^3    Pcb_NL(k) (Mpc/h)^3   ShotnoiseSubtracted = false
     0.00783031         9484.44         9610.46         9610.46 
       0.013688         12227.4         12149.5         12149.5 
       0.019231         12536.3         12522.3         12522.3 
      0.0249154         11592.2         11793.5         11793.5 
      0.0312784           10355         10448.4         10448.4 
      0.0375637         9109.18         9116.75         9116.75 
      0.0433917         7982.16         8110.42         8110.42 
      0.0492413         7303.41         7360.36         7360.36 
      0.0555754         6591.27         6772.44         6772.44 
      0.0619321         6293.69         6298.88         6298.88 
       0.067871         5724.26         5867.25         5867.25 
      0.0738098         5265.49          5399.1          5399.1 
      0.0800417         4707.95         4871.42         4871.42 
      0.0862327         4255.53         4350.65         4350.65 
      0.0921407         3874.75         3902.81         3902.81 
      0.0982031         3483.59         3525.26         3525.26 
       0.104506         3274.87         3229.46         3229.46 
       0.110769         3050.56          3017.5          3017.5 
       0.116806         2872.35         2861.68         2861.68 
       0.122832         2745.21         2722.98         2722.98 
       0.129052         2549.77         2573.11         2573.11 
       0.135211         2400.24         2407.47         2407.47 
       0.141259         2272.24         2232.11         2232.11 
       0.147318         2125.12         2056.76         2056.76 
       0.153489          1947.6         1893.38         1893.38 
       0.159709         1840.36         1754.98         1754.98 
       0.165845          1769.6         1647.24         1647.24 
       0.171974         1672.41         1564.07         1564.07 
       0.178125         1598.05         1496.53         1496.53 
       0.184229         1537.71         1435.67         1435.67 
        0.19034         1441.96         1373.35         1373.35 
       0.196428         1410.98         1306.29         1306.29 
       0.202534         1357.51         1234.71         1234.71 
       0.208729          1287.2         1161.37         1161.37 
       0.214876         1221.45         1092.59         1092.59 
       0.220989         1182.46         1031.77         1031.77 
       0.227147         1124.45          979.77          979.77 
        0.23329         1082.47         936.523         936.523 
       0.239377         1062.94         899.928         899.928 
       0.245482         995.763         866.621         866.621 
       0.251667         987.468         833.768         833.768 
       0.257832          950.64          800.32          800.32 
       0.263955         918.391         766.157         766.157 
       0.270079         885.998          731.81          731.81 
        0.27624         874.756         698.357         698.357 
       0.282372         837.552         667.399         667.399 
        0.28843         822.135         639.786         639.786 
       0.294538         782.508         615.045         615.045 
       0.300721         779.478         592.674         592.674 
        0.30691         744.839          572.15          572.15 
       0.313033         730.544         552.845         552.845 
       0.319153         711.551         533.938         533.938 
       0.325316         689.928         515.006         515.006 
        0.33145         671.366         496.344         496.344 
       0.337538         662.358         478.276         478.276 
       0.343633         642.443         461.002         461.002 
       0.349808         621.393         444.588         444.588 
       0.355968         616.997         429.436         429.436 
       0.362074         606.461         415.536         415.536 
       0.368217         589.767         402.493         402.493 
       0.374374         565.754         390.109         390.109 
       0.380519         562.697         378.202         378.202 
       0.386598         549.044         366.742         366.742 
       0.392688         546.176          355.52          355.52 
        0.39888         530.478         344.414         344.414 
       0.405048         520.301         333.745         333.745 
       0.411186         511.301         323.588         323.588 
       0.417313         502.044         313.963         313.963 
       0.423458         493.196         304.835         304.835 
       0.429607         483.884          296.17          296.17 
       0.435692         472.708         288.001         288.001 
       0.441815         469.421         280.114         280.114 
       0.447964         459.699         272.462         272.462 
       0.454126         447.421         265.025         265.025 
       0.460267          441.16         257.842         257.842 
       0.466387          436.39         250.913         250.913 
        0.47254         427.292         244.189         244.189 
       0.478662         426.315         237.757         237.757 
       0.484765         413.349         231.611         231.611 
       0.490885          409.11         225.702         225.702 
       0.497035         402.008         219.996         219.996 
       0.503198         395.254         214.494         214.494 
       0.509342         392.141         209.203         209.203 
       0.515458          388.19         204.107         204.107 
       0.521598         380.261         199.148         199.148 
       0.527764         373.241          194.32          194.32 
       0.533884         370.843         189.682         189.682 
           0.54         365.851         185.202         185.202 
       0.546137          364.24         180.859         180.859 
       0.552299         356.872         176.645         176.645 
       0.558452         354.439         172.581         172.581 
       0.564573         348.901         168.673         168.673 
       0.570708         343.029         164.884         164.884 
       0.576825         337.186         161.224         161.224 
       0.582926         334.858         157.685         157.685 
       0.589034         331.371         154.245         154.245 
       0.595184         328.124         150.882         150.882 
       0.601379         324.665         147.597         147.597 
       0.607522         319.236         144.437         144.437 
       0.613639         317.649         141.387         141.387 
       0.619772         310.018          138.42          138.42 
       0.625918         309.005         135.537         135.537 
       0.632068          304.46         132.735         132.735 
       0.638161         303.232          130.04          130.04 
         0.6443         297.946           127.4           127.4 
       0.650464         295.379         124.825         124.825 
       0.656582         293.948         122.339         122.339 
       0.662703         291.567         119.922         119.922 
       0.668861          286.44         117.557         117.557 
       0.675024         283.382         115.256         115.256 
       0.681124         282.204          113.04          113.04 
       0.687237         278.686         110.879         110.879 
       0.693381         274.687         108.765         108.765 
       0.699536         272.621         106.704         106.704 
       0.705665         270.704         104.706         104.706 
       0.711789         267.614         102.762         102.762 
       0.717957         265.826         100.854         100.854 
        0.72409         263.023          99.006          99.006 
       0.730186         260.006         97.2163         97.2163 
       0.736317         257.579         95.4617         95.4617 
       0.742472         256.343         93.7446         93.7446 
       0.748622         254.076         92.0719         92.0719 
        0.75476         251.839         90.4442         90.4442 
       0.760888         248.562          88.859          88.859 
       0.767043         248.361         87.3059         87.3059 
       0.773185         245.315         85.7938         85.7938 
       0.779291         241.032         84.3266         84.3266 
       0.785407         240.446         82.8921         82.8921 
       0.791564         238.036         81.4823         81.4823 
       0.797719         235.568         80.1064         80.1064 
       0.803834         234.229         78.7715         78.7715 
       0.809972         232.241         77.4626         77.4626 
       0.816124         232.338         76.1809         76.1809 
       0.822261         228.705         74.9321         74.9321 
       0.828378         226.964         73.7154         73.7154 
       0.834502         226.723         72.5251         72.5251 
       0.840667         223.011         71.3536         71.3536 
       0.846816         221.683         70.2117         70.2117 
       0.852925         220.529         69.1023         69.1023 
       0.859047         218.512         68.0148         68.0148 
       0.865192         216.661         66.9475         66.9475 
       0.871341         214.643         65.9026         65.9026 
       0.877463         213.203         64.8851         64.8851 
       0.883569         211.992         63.8919         63.8919 
       0.889708         210.055         62.9147         62.9147 
       0.895864         207.541         61.9557         61.9557 
       0.902008         206.989         61.0189         61.0189 
       0.908149         205.973         60.1023         60.1023 
       0.914301         203.427         59.2033         59.2033 
       0.920448         201.902         58.3237         58.3237 
       0.926574         200.894         57.4654         57.4654 
       0.932687         200.383         56.6263         56.6263 
       0.938823         197.971         55.8012         55.8012 
       0.944975         196.409         54.9908         54.9908 
       0.951105         195.514         54.1996         54.1996 
       0.957225         193.407         53.4256         53.4256 
       0.963368         191.306         52.6642         52.6642 
       0.969511         190.656         51.9178         51.9178 
       0.975621         189.233         51.1901         51.1901 
       0.981748         189.063         50.4746         50.4746 
       0.987916         186.665         49.7685         49.7685 
        0.99406         185.339         49.0786         49.0786 
        1.00019         185.016         48.4033         48.4033 
        1.00632         183.245         47.7415         47.7415 
        1.01246          182.06         47.0912         47.0912 
        1.01859         180.965         46.4542         46.4542 
        1.02471         179.615         45.8299         45.8299 
        1.03085         177.624         45.2151         45.2151 
        1.03698         176.727         44.6129         44.6129 
        1.04314         175.462         44.0193         44.0193 
        1.04929         174.173          43.438          43.438 
        1.05541         173.604         42.8697         42.8697 
        1.06154         172.255         42.3102         42.3102 
        1.06769         172.033           41.76           41.76 
        1.07382           170.6         41.2215         41.2215 
        1.07993         169.081         40.6938         40.6938 
        1.08607         168.161         40.1732         40.1732 
        1.09222         167.304         39.6613         39.6613 
        1.09836         165.755          39.159          39.159 
        1.10449         164.354         38.6661         38.6661 
        1.11063         163.178         38.1812         38.1812 
        1.11677         162.871         37.7049         37.7049 
         1.1229         161.214         37.2376         37.2376 
        1.12903         160.408         36.7779         36.7779 
        1.13518         159.985         36.3257         36.3257 
        1.14131         158.348         35.8814         35.8814 
        1.14745         157.797         35.4449         35.4449 
        1.15359         156.617         35.0156         35.0156 
        1.15973         156.121         34.5934         34.5934 
        1.16584         154.405           34.18           34.18 
        1.17197         153.833         33.7729         33.7729 
        1.17811         152.889         33.3713         33.3713 
        1.18424         152.036         32.9774         32.9774 
        1.19038         151.471         32.5888         32.5888 
        1.19652         150.342         32.2067         32.2067 
        1.20267          149.49         31.8307         31.8307 
        1.20881          148.21         31.4609         31.4609 
        1.21495         147.603         31.0976         31.0976 
        1.22108         146.844         30.7402         30.7402 
         1.2272         145.545         30.3893         30.3893 
        1.23334         144.874         30.0431         30.0431 
        1.23949         143.457         29.7015         29.7015 
        1.24562         143.018         29.3662         29.3662 
        1.25174         141.414         29.0367         29.0367 
        1.25789         140.958         28.7113         28.7113 
        1.26402         140.288         28.3915         28.3915 
        1.27014         139.299         28.0774         28.0774 
        1.27628         138.572         27.7671         27.7671 
        1.28244         137.946          27.461          27.461 
        1.28858         137.321         27.1599         27.1599 
        1.29471          135.76         26.8641         26.8641 
        1.30084         135.233          26.573          26.573 
        1.30697         134.459         26.2858         26.2858 
        1.31312         134.091         26.0024         26.0024 
        1.31925         132.844         25.7242         25.7242 
        1.32537         132.269         25.4503         25.4503 
        1.33151         130.962         25.1795         25.1795 
        1.33765         130.626         24.9128         24.9128 
        1.34378         129.681         24.6505         24.6505 
        1.34992          129.45         24.3918         24.3918 
        1.35606         128.499         24.1364         24.1364 
         1.3622         127.542         23.8851         23.8851 
        1.36833          126.83         23.6379         23.6379 
        1.37445         125.944         23.3945         23.3945 
        1.38059         125.607         23.1538         23.1538 
        1.38675         124.569         22.9159         22.9159 
        1.39288          124.13         22.6823         22.6823 
        1.39901         123.599         22.4521         22.4521 
        1.40515         122.676         22.2246         22.2246 
         1.4113           121.5         22.0004         22.0004 
        1.41742         121.298         21.7802         21.7802 
        1.42355         120.418         21.5625         21.5625 
         1.4297         119.685         21.3473         21.3473 
        1.43585          118.64          21.135          21.135 
        1.44198         118.528         20.9265         20.9265 
        1.44809         117.559         20.7213         20.7213 
        1.45423         116.691          20.518          20.518 
        1.46036         116.486         20.3179         20.3179 
        1.46649         115.711         20.1203         20.1203 
        1.47263          115.15         19.9253         19.9253 
        1.47877         114.614          19.733          19.733 
        1.48491         113.484         19.5429         19.5429 
        1.49104         113.151         19.3558         19.3558 
        1.49718         112.194         19.1709         19.1709 
        1.50333         111.744         18.9883         18.9883 
        1.50947         111.119         18.8084         18.8084 
         1.5156         110.551         18.6311         18.6311 
        1.52172         109.731         18.4561         18.4561 
        1.52787         109.384          18.283          18.283 
          1.534         108.685         18.1124         18.1124 
        1.54013         107.899         17.9442         17.9442 
        1.54627         107.435         17.7778         17.7778 
        1.55241         106.764         17.6135         17.6135 
        1.55855         106.348         17.4515         17.4515 
        1.56467         105.728          17.292          17.292 
         1.5708         105.022         17.1341         17.1341 
        1.57695          104.74         16.9779         16.9779 
        1.58308         103.713          16.824          16.824 
        1.58922         103.544          16.672          16.672 
        1.59535         102.882         16.5219         16.5219 
         1.6015         102.332         16.3734         16.3734 
        1.60764         101.668         16.2269         16.2269 
        1.61376         101.408         16.0826         16.0826 
        1.61989         100.592         15.9399         15.9399 
        1.62604         100.138         15.7986         15.7986 
        1.63218         99.6613         15.6592         15.6592 
        1.63831         98.8486         15.5218         15.5218 
        1.64444         98.4659          15.386          15.386 
        1.65059         97.8728         15.2515         15.2515 
        1.65673         97.0274         15.1187         15.1187 
        1.66285         96.9181          14.988          14.988 
        1.66898         96.1527         14.8587         14.8587 
        1.67512         95.6851         14.7308         14.7308 
        1.68127         95.1149         14.6042         14.6042 
         1.6874         94.5439         14.4794         14.4794 
        1.69353         94.0264         14.3562         14.3562 
        1.69967         93.5728         14.2341         14.2341 
        1.70581         93.1213         14.1135         14.1135 
        1.71193         92.8068         13.9947         13.9947 
        1.71806         91.9526         13.8771         13.8771 
        1.72421         91.5844         13.7606         13.7606 
        1.73035         91.0147         13.6456         13.6456 
        1.73649         90.5118         13.5319         13.5319 
        1.74262         90.0238         13.4196         13.4196 
        1.74876          89.686         13.3085         13.3085 
        1.75489         88.9256          13.199          13.199 
        1.76101         88.7006         13.0907         13.0907 
        1.76715         88.0304         12.9835         12.9835 
        1.77329         87.6986         12.8773         12.8773 
        1.77943          87.072         12.7723         12.7723 
        1.78557         86.7914         12.6687         12.6687 
        1.79171         86.2096         12.5661         12.5661 
        1.79785         85.7609         12.4647         12.4647 
        1.80399         85.3575         12.3645         12.3645 
        1.81012         84.9924         12.2655         12.2655 
        1.81625          84.305         12.1676         12.1676 
        1.82239         84.0233         12.0707         12.0707 
        1.82853         83.7035         11.9748         11.9748 
        1.83466          83.068         11.8802         11.8802 
        1.84078         82.8593         11.7866         11.7866 
        1.84692         82.0858         11.6939         11.6939 
        1.85306         81.6583         11.6021         11.6021 
         1.8592         81.1639         11.5114         11.5114 
        1.86533         80.8272         11.4218         11.4218 
        1.87147         80.1762          11.333          11.333 
