# k  (h/Mpc)    Pcb(k)  (Mpc/h)^3    Pcb_linear(k) (Mpc/h)^3    Pcb_NL(k) (Mpc/h)^3   ShotnoiseSubtracted = false
     0.00783031         1107.79          1118.7          1118.7 
       0.013688          1413.6         1415.16         1415.16 
       0.019231         1459.06         1458.97         1458.97 
      0.0249154          1366.3         1374.26         1374.26 
      0.0312784         1216.25         1217.64         1217.64 
      0.0375637         1064.97         1062.51         1062.51 
      0.0433917         943.323         945.266         945.266 
      0.0492413          858.32         857.869         857.869 
      0.0555754         785.418         789.363         789.363 
      0.0619321         736.989         734.179         734.179 
       0.067871         681.266         683.878         683.878 
      0.0738098         626.408         629.317         629.317 
      0.0800417         563.725         567.815         567.815 
      0.0862327         505.385         507.117         507.117 
      0.0921407         454.822         454.918         454.918 
      0.0982031         409.723         410.913         410.913 
       0.104506         378.445         376.435         376.435 
       0.110769         353.115         351.729         351.729 
       0.116806          332.89         333.568         333.568 
       0.122832          318.14           317.4           317.4 
       0.129052          298.88         299.931         299.931 
       0.135211         279.579         280.624         280.624 
       0.141259         260.774         260.185         260.185 
       0.147318         241.538         239.745         239.745 
       0.153489         221.709         220.701         220.701 
       0.159709         206.081         204.569         204.569 
       0.165845         195.173          192.01          192.01 
       0.171974         183.804         182.316         182.316 
       0.178125         176.122         174.443         174.443 
       0.184229         169.462         167.349         167.349 
        0.19034         160.381         160.084         160.084 
       0.196428         153.916         152.269         152.269 
       0.202534         146.914         143.924         143.924 
       0.208729         137.761         135.376         135.376 
       0.214876         129.051         127.358         127.358 
       0.220989         123.499         120.269         120.269 
       0.227147         116.131         114.207         114.207 
        0.23329         111.199         109.166         109.166 
       0.239377         107.335         104.901         104.901 
       0.245482         102.499         101.018         101.018 
       0.251667         99.6662         97.1888         97.1888 
       0.257832          95.706         93.2899         93.2899 
       0.263955         91.7152         89.3076         89.3076 
       0.270079          87.915          85.304          85.304 
        0.27624         84.8032         81.4046         81.4046 
       0.282372         81.1569          77.796          77.796 
        0.28843         77.5769         74.5772         74.5772 
       0.294538          74.621         71.6933         71.6933 
       0.300721         72.6085         69.0856         69.0856 
        0.30691         69.6256         66.6932         66.6932 
       0.313033         67.4113         64.4429         64.4429 
       0.319153         64.3671          62.239          62.239 
       0.325316         63.1946         60.0321         60.0321 
        0.33145         60.7513         57.8568         57.8568 
       0.337538          58.873         55.7507         55.7507 
       0.343633         56.6991         53.7371         53.7371 
       0.349808         54.9463         51.8238         51.8238 
       0.355968         53.2599         50.0577         50.0577 
       0.362074         51.5512         48.4374         48.4374 
       0.368217         50.0244          46.917          46.917 
       0.374374         48.4146         45.4735         45.4735 
       0.380519         47.1884         44.0855         44.0855 
       0.386598         45.8716         42.7497         42.7497 
       0.392688         44.7813         41.4417         41.4417 
        0.39888          43.373          40.147          40.147 
       0.405048         42.2497         38.9034         38.9034 
       0.411186         41.1702         37.7195         37.7195 
       0.417313         39.7692         36.5975         36.5975 
       0.423458         38.7543         35.5334         35.5334 
       0.429607         37.6482         34.5235         34.5235 
       0.435692         36.5633         33.5712         33.5712 
       0.441815          35.816         32.6518         32.6518 
       0.447964         35.1589         31.7598         31.7598 
       0.454126         33.8463         30.8929         30.8929 
       0.460267         33.1358         30.0556         30.0556 
       0.466387         32.1333          29.248          29.248 
        0.47254         31.5717         28.4642         28.4642 
       0.478662         30.9314         27.7144         27.7144 
       0.484765         30.0499         26.9981         26.9981 
       0.490885         29.3334         26.3092         26.3092 
       0.497035         28.8971         25.6441         25.6441 
       0.503198         28.1412         25.0028         25.0028 
       0.509342         27.4482          24.386          24.386 
       0.515458         26.7979          23.792          23.792 
       0.521598          26.298         23.2139         23.2139 
       0.527764         25.6873         22.6512         22.6512 
       0.533884         25.2265         22.1105         22.1105 
           0.54         24.6696         21.5883         21.5883 
       0.546137          24.211          21.082          21.082 
       0.552299         23.7629         20.5909         20.5909 
       0.558452         23.0309         20.1172         20.1172 
       0.564573         22.7126         19.6616         19.6616 
       0.570708         22.2902         19.2199         19.2199 
       0.576825         21.7037         18.7933         18.7933 
       0.582926         21.3277         18.3808         18.3808 
       0.589034           20.72         17.9797         17.9797 
       0.595184         20.4229         17.5878         17.5878 
       0.601379         20.0065         17.2048         17.2048 
       0.607522         19.6816         16.8365         16.8365 
       0.613639         19.4338         16.4809         16.4809 
       0.619772         18.9167         16.1352         16.1352 
       0.625918         18.7592          15.799          15.799 
       0.632068         18.4443         15.4725         15.4725 
       0.638161         18.0016         15.1582         15.1582 
         0.6443         17.6341         14.8505         14.8505 
       0.650464          17.285         14.5503         14.5503 
       0.656582         17.1484         14.2607         14.2607 
       0.662703         16.8247         13.9789         13.9789 
       0.668861         16.5061         13.7032         13.7032 
       0.675024         16.1806         13.4349         13.4349 
       0.681124         15.9014         13.1767         13.1767 
       0.687237         15.6436         12.9248         12.9248 
       0.693381          15.443         12.6784         12.6784 
       0.699536          15.028         12.4381         12.4381 
       0.705665         14.8788         12.2052         12.2052 
       0.711789           14.61         11.9785         11.9785 
       0.717957         14.3745         11.7562         11.7562 
        0.72409         14.1326         11.5408         11.5408 
       0.730186         13.9477         11.3322         11.3322 
       0.736317         13.7816         11.1276         11.1276 
       0.742472         13.5549         10.9275         10.9275 
       0.748622         13.3453         10.7325         10.7325 
        0.75476         13.0531         10.5428         10.5428 
       0.760888         12.9048          10.358          10.358 
       0.767043         12.7402         10.1769         10.1769 
       0.773185         12.4784         10.0007         10.0007 
       0.779291         12.3765         9.82965         9.82965 
       0.785407         12.1854         9.66243         9.66243 
       0.791564         11.9747          9.4981          9.4981 
       0.797719         11.7652         9.33772         9.33772 
       0.803834         11.6821         9.18211         9.18211 
       0.809972         11.5577         9.02953         9.02953 
       0.816124         11.2905         8.88014         8.88014 
       0.822261         11.1429         8.73457         8.73457 
       0.828378         11.0117         8.59274         8.59274 
       0.834502         10.8985         8.45399         8.45399 
       0.840667         10.7083         8.31744         8.31744 
       0.846816         10.5216         8.18433         8.18433 
       0.852925         10.4233         8.05501         8.05501 
       0.859047          10.286         7.92825         7.92825 
       0.865192          10.188         7.80383         7.80383 
       0.871341         10.0705         7.68203         7.68203 
       0.877463         9.90595         7.56342         7.56342 
       0.883569         9.74057         7.44765         7.44765 
       0.889708         9.57915         7.33374         7.33374 
       0.895864         9.50791         7.22195         7.22195 
       0.902008         9.40045         7.11276         7.11276 
       0.908149         9.28892         7.00591         7.00591 
       0.914301         9.15663         6.90112         6.90112 
       0.920448         9.00994         6.79859         6.79859 
       0.926574          8.9032         6.69853         6.69853 
       0.932687           8.819         6.60073         6.60073 
       0.938823          8.6951         6.50455         6.50455 
       0.944975         8.57442         6.41008         6.41008 
       0.951105         8.49503         6.31786         6.31786 
       0.957225          8.4422         6.22763         6.22763 
       0.963368         8.31543         6.13888         6.13888 
       0.969511         8.22244         6.05188         6.05188 
       0.975621         8.11614         5.96705         5.96705 
       0.981748         8.02755         5.88365         5.88365 
       0.987916         7.94409         5.80133         5.80133 
        0.99406         7.81679         5.72092         5.72092 
        1.00019         7.69911         5.64221         5.64221 
        1.00632         7.66962         5.56506         5.56506 
        1.01246          7.5806         5.48926         5.48926 
        1.01859         7.47021           5.415           5.415 
        1.02471         7.40122         5.34223         5.34223 
        1.03085         7.32158         5.27056         5.27056 
        1.03698         7.21456         5.20037         5.20037 
        1.04314         7.15704         5.13118         5.13118 
        1.04929         7.06146         5.06342         5.06342 
        1.05541         6.97874         4.99717         4.99717 
        1.06154         6.91696         4.93195         4.93195 
        1.06769          6.8781         4.86782         4.86782 
        1.07382          6.7642         4.80504         4.80504 
        1.07993         6.69159         4.74353         4.74353 
        1.08607         6.64451         4.68285         4.68285 
        1.09222         6.57094         4.62318         4.62318 
        1.09836         6.50022         4.56463         4.56463 
        1.10449         6.43117         4.50717         4.50717 
        1.11063         6.36607         4.45065         4.45065 
        1.11677         6.31195         4.39513         4.39513 
         1.1229         6.24834         4.34066         4.34066 
        1.12903          6.1786         4.28708         4.28708 
        1.13518         6.11174         4.23436         4.23436 
        1.14131         6.03411         4.18257         4.18257 
        1.14745         5.96429         4.13169         4.13169 
        1.15359         5.93122         4.08165         4.08165 
        1.15973          5.8637         4.03243         4.03243 
        1.16584         5.79521         3.98425         3.98425 
        1.17197         5.74492         3.93679         3.93679 
        1.17811         5.70341         3.88997         3.88997 
        1.18424         5.65431         3.84406         3.84406 
        1.19038         5.61015         3.79876         3.79876 
        1.19652         5.54938         3.75422         3.75422 
        1.20267         5.48344          3.7104          3.7104 
        1.20881         5.44726         3.66729         3.66729 
        1.21495         5.39954         3.62494         3.62494 
        1.22108         5.33662         3.58328         3.58328 
         1.2272         5.30464         3.54237         3.54237 
        1.23334         5.23018         3.50202         3.50202 
        1.23949         5.18466          3.4622          3.4622 
        1.24562         5.15597         3.42312         3.42312 
        1.25174         5.09296         3.38471         3.38471 
        1.25789         5.05642         3.34678         3.34678 
        1.26402         5.01268          3.3095          3.3095 
        1.27014         4.96295         3.27288         3.27288 
        1.27628         4.92262         3.23672         3.23672 
        1.28244         4.85961         3.20103         3.20103 
        1.28858         4.84322         3.16594         3.16594 
        1.29471         4.78744         3.13146         3.13146 
        1.30084         4.73943         3.09752         3.09752 
        1.30697         4.73284         3.06404         3.06404 
        1.31312         4.63919         3.03101         3.03101 
        1.31925         4.61993         2.99858         2.99858 
        1.32537         4.57665         2.96665         2.96665 
        1.33151         4.55895         2.93508         2.93508 
        1.33765         4.49485         2.90399         2.90399 
        1.34378         4.46081         2.87342         2.87342 
        1.34992         4.43857         2.84327         2.84327 
        1.35606         4.38127         2.81349         2.81349 
         1.3622         4.36015          2.7842          2.7842 
        1.36833         4.32075         2.75539         2.75539 
        1.37445         4.28539         2.72702         2.72702 
        1.38059         4.26555         2.69895         2.69895 
        1.38675         4.22858         2.67122         2.67122 
        1.39288         4.18717           2.644           2.644 
        1.39901         4.14266         2.61716         2.61716 
        1.40515         4.11707         2.59065         2.59065 
         1.4113         4.08591         2.56451         2.56451 
        1.41742         4.05538         2.53884         2.53884 
        1.42355         4.01916         2.51347         2.51347 
         1.4297         3.98226         2.48838         2.48838 
        1.43585         3.96633         2.46364         2.46364 
        1.44198           3.941         2.43933         2.43933 
        1.44809          3.8941         2.41541         2.41541 
        1.45423          3.8629         2.39171         2.39171 
        1.46036         3.83174         2.36838         2.36838 
        1.46649         3.80007         2.34536         2.34536 
        1.47263         3.76883         2.32263         2.32263 
        1.47877         3.73663         2.30021         2.30021 
        1.48491         3.71342         2.27805         2.27805 
        1.49104         3.69019         2.25624         2.25624 
        1.49718         3.66008         2.23469         2.23469 
        1.50333         3.63653          2.2134          2.2134 
        1.50947         3.60585         2.19243         2.19243 
         1.5156         3.58045         2.17176         2.17176 
        1.52172         3.55754         2.15137         2.15137 
        1.52787         3.53243         2.13119         2.13119 
          1.534         3.50106          2.1113          2.1113 
        1.54013         3.48099         2.09169         2.09169 
        1.54627         3.44435         2.07229         2.07229 
        1.55241         3.41959         2.05314         2.05314 
        1.55855         3.40518         2.03426         2.03426 
        1.56467         3.37881         2.01567         2.01567 
         1.5708         3.34962         1.99726         1.99726 
        1.57695         3.32422         1.97906         1.97906 
        1.58308          3.2977         1.96112         1.96112 
        1.58922         3.28479          1.9434          1.9434 
        1.59535         3.26061          1.9259          1.9259 
         1.6015         3.23651          1.9086          1.9086 
        1.60764         3.21442         1.89151         1.89151 
        1.61376         3.19298         1.87469         1.87469 
        1.61989         3.16892         1.85806         1.85806 
        1.62604         3.14476         1.84159         1.84159 
        1.63218         3.13379         1.82534         1.82534 
        1.63831         3.10501         1.80932         1.80932 
        1.64444         3.08232         1.79349         1.79349 
        1.65059         3.05848         1.77781         1.77781 
        1.65673         3.04505         1.76234         1.76234 
        1.66285         3.01492          1.7471          1.7471 
        1.66898         3.00104         1.73203         1.73203 
        1.67512         2.97519         1.71712         1.71712 
        1.68127         2.95833         1.70236         1.70236 
         1.6874          2.9463         1.68782         1.68782 
        1.69353          2.9125         1.67345         1.67345 
        1.69967         2.89896         1.65922         1.65922 
        1.70581         2.88579         1.64516         1.64516 
        1.71193         2.86436         1.63132         1.63132 
        1.71806         2.84837         1.61761         1.61761 
        1.72421         2.82862         1.60403         1.60403 
        1.73035         2.81134         1.59062         1.59062 
        1.73649         2.78952         1.57737         1.57737 
        1.74262         2.77005         1.56428         1.56428 
        1.74876         2.76059         1.55133         1.55133 
        1.75489         2.73924         1.53856         1.53856 
        1.76101         2.71658         1.52594         1.52594 
        1.76715         2.70408         1.51344         1.51344 
        1.77329         2.68933         1.50106         1.50106 
        1.77943         2.66275         1.48883         1.48883 
        1.78557         2.65351         1.47674         1.47674 
        1.79171          2.6383         1.46479         1.46479 
        1.79785         2.61697         1.45297         1.45297 
        1.80399         2.60285         1.44129         1.44129 
        1.81012         2.59022         1.42975         1.42975 
        1.81625         2.57075         1.41834         1.41834 
        1.82239         2.55351         1.40704         1.40704 
        1.82853          2.5349         1.39587         1.39587 
        1.83466         2.52809         1.38483         1.38483 
        1.84078         2.51158         1.37392         1.37392 
        1.84692          2.4974         1.36312         1.36312 
        1.85306         2.47557         1.35242         1.35242 
         1.8592         2.46096         1.34185         1.34185 
        1.86533         2.44698          1.3314          1.3314 
        1.87147         2.43733         1.32105         1.32105 
