# k  (h/Mpc)    P(k)  (Mpc/h)^3    P_linear(k)  (Mpc/h)^3     P_NL(k)  ShotnoiseSubtracted = false
     0.00783031         5722.49         5791.46         5791.46 
       0.013688         7352.87         7322.76         7322.76 
       0.019231         7556.62         7548.04         7548.04 
      0.0249154         7018.56         7109.03         7109.03 
      0.0312784         6263.88         6298.39         6298.39 
      0.0375637         5501.82         5495.76         5495.76 
      0.0433917         4839.64         4889.18         4889.18 
      0.0492413         4420.07         4437.06         4437.06 
      0.0555754         4009.61         4082.67         4082.67 
      0.0619321         3807.54         3797.21         3797.21 
       0.067871         3482.57         3537.02         3537.02 
      0.0738098         3202.42         3254.81         3254.81 
      0.0800417          2869.8         2936.71         2936.71 
      0.0862327         2586.53         2622.77         2622.77 
      0.0921407         2344.43          2352.8          2352.8 
      0.0982031         2107.71          2125.2          2125.2 
       0.104506         1970.37         1946.87         1946.87 
       0.110769         1836.38          1819.1          1819.1 
       0.116806         1727.31         1725.16         1725.16 
       0.122832         1653.16         1641.55         1641.55 
       0.129052         1540.91          1551.2          1551.2 
       0.135211            1447         1451.34         1451.34 
       0.141259         1362.82         1345.63         1345.63 
       0.147318         1270.01         1239.92         1239.92 
       0.153489         1163.83         1141.43         1141.43 
       0.159709         1093.76         1057.99         1057.99 
       0.165845         1046.19         993.043         993.043 
       0.171974         985.983         942.905         942.905 
       0.178125         943.921         902.185         902.185 
       0.184229         909.291         865.496         865.496 
        0.19034         851.727         827.925         827.925 
       0.196428         830.043         787.502         787.502 
       0.202534         798.244         744.347         744.347 
       0.208729         752.981         700.138         700.138 
       0.214876         709.132          658.67          658.67 
       0.220989         685.419         622.005         622.005 
       0.227147         647.441         590.657         590.657 
        0.23329         622.614         564.586         564.586 
       0.239377         608.186         542.525         542.525 
       0.245482         570.894         522.446         522.446 
       0.251667          563.41         502.641         502.641 
       0.257832         543.483         482.476         482.476 
       0.263955         523.285          461.88          461.88 
       0.270079          503.98         441.174         441.174 
        0.27624          494.68         421.007         421.007 
       0.282372         474.003         402.344         402.344 
        0.28843         459.034         385.698         385.698 
       0.294538         438.957         370.782         370.782 
       0.300721          434.95         357.296         357.296 
        0.30691         415.264         344.923         344.923 
       0.313033         405.826         333.285         333.285 
       0.319153         390.941         321.886         321.886 
       0.325316         380.917         310.473         310.473 
        0.33145         368.734         299.223         299.223 
       0.337538         363.258          288.33          288.33 
       0.343633         351.176         277.917         277.917 
       0.349808         340.248         268.021         268.021 
       0.355968         335.174         258.888         258.888 
       0.362074         326.913         250.507         250.507 
       0.368217         318.255         242.644         242.644 
       0.374374         307.491         235.179         235.179 
       0.380519         302.569             228             228 
       0.386598         295.079         221.093         221.093 
       0.392688         291.448         214.327         214.327 
        0.39888         283.691         207.631         207.631 
       0.405048         277.358           201.2           201.2 
       0.411186         271.387         195.077         195.077 
       0.417313         266.123         189.274         189.274 
       0.423458         260.747         183.771         183.771 
       0.429607         254.722         178.548         178.548 
       0.435692         247.563         173.623         173.623 
       0.441815         245.791         168.868         168.868 
       0.447964         241.379         164.255         164.255 
       0.454126         231.564         159.771         159.771 
       0.460267         229.056         155.441         155.441 
       0.466387         226.131         151.264         151.264 
        0.47254          221.33          147.21          147.21 
       0.478662         219.485         143.333         143.333 
       0.484765         213.457         139.628         139.628 
       0.490885         210.282         136.065         136.065 
       0.497035         207.358         132.625         132.625 
       0.503198         201.979         129.309         129.309 
       0.509342         199.314         126.119         126.119 
       0.515458         196.676         123.047         123.047 
       0.521598          193.92         120.057         120.057 
       0.527764         190.821         117.147         117.147 
       0.533884         187.874         114.351         114.351 
           0.54         185.004          111.65          111.65 
       0.546137         183.621         109.031         109.031 
       0.552299         180.481         106.491         106.491 
       0.558452         177.333         104.041         104.041 
       0.564573         174.254         101.685         101.685 
       0.570708         171.705         99.4008         99.4008 
       0.576825         169.419         97.1947         97.1947 
       0.582926           166.8         95.0611         95.0611 
       0.589034         164.157         92.9871         92.9871 
       0.595184           162.4         90.9601         90.9601 
       0.601379         160.876         88.9795         88.9795 
       0.607522         157.103         87.0747         87.0747 
       0.613639         156.684         85.2356         85.2356 
       0.619772         153.169         83.4474         83.4474 
       0.625918         151.652         81.7088         81.7088 
       0.632068         150.018         80.0201         80.0201 
       0.638161         148.592         78.3949         78.3949 
         0.6443          146.53         76.8036         76.8036 
       0.650464          144.86          75.251          75.251 
       0.656582         143.208         73.7529         73.7529 
       0.662703         140.864         72.2956         72.2956 
       0.668861         139.284           70.87           70.87 
       0.675024         137.628         69.4824         69.4824 
       0.681124         136.515         68.1466         68.1466 
       0.687237         134.093         66.8439         66.8439 
       0.693381         132.492         65.5698         65.5698 
       0.699536         131.303         64.3271         64.3271 
       0.705665         131.621         63.1225         63.1225 
       0.711789         128.184         61.9503         61.9503 
       0.717957         127.658         60.8003         60.8003 
        0.72409         125.842         59.6862         59.6862 
       0.730186         123.781         58.6073         58.6073 
       0.736317         123.479         57.5495         57.5495 
       0.742472         122.271         56.5143         56.5143 
       0.748622         121.231          55.506          55.506 
        0.75476         119.965         54.5247         54.5247 
       0.760888         118.345          53.569          53.569 
       0.767043         117.346         52.6328         52.6328 
       0.773185         116.111         51.7212         51.7212 
       0.779291         114.932         50.8367         50.8367 
       0.785407         114.126         49.9718         49.9718 
       0.791564         112.761          49.122          49.122 
       0.797719         111.271         48.2925         48.2925 
       0.803834         110.811         47.4877         47.4877 
       0.809972         109.018         46.6987         46.6987 
       0.816124         108.616          45.926          45.926 
       0.822261         107.623         45.1732         45.1732 
       0.828378         106.578         44.4397         44.4397 
       0.834502         105.845         43.7221         43.7221 
       0.840667         104.699         43.0159         43.0159 
       0.846816          103.62         42.3275         42.3275 
       0.852925         102.682         41.6586         41.6586 
       0.859047         101.424         41.0031         41.0031 
       0.865192         101.051         40.3596         40.3596 
       0.871341         100.181         39.7297         39.7297 
       0.877463         98.8619         39.1163         39.1163 
       0.883569         98.2359         38.5175         38.5175 
       0.889708         97.6519         37.9284         37.9284 
       0.895864         96.7511         37.3502         37.3502 
       0.902008         96.0264         36.7855         36.7855 
       0.908149         95.3476          36.233          36.233 
       0.914301         94.2911          35.691          35.691 
       0.920448         93.6848         35.1607         35.1607 
       0.926574         92.9727         34.6433         34.6433 
       0.932687         92.4763         34.1374         34.1374 
       0.938823         91.1072           33.64           33.64 
       0.944975         90.7253         33.1515         33.1515 
       0.951105         89.9176         32.6745         32.6745 
       0.957225         88.8042         32.2079         32.2079 
       0.963368         88.5606         31.7489         31.7489 
       0.969511         88.0379         31.2989         31.2989 
       0.975621         87.5036         30.8602         30.8602 
       0.981748         86.6425         30.4289         30.4289 
       0.987916         85.9453         30.0031         30.0031 
        0.99406         85.4909         29.5873         29.5873 
        1.00019           84.47         29.1802         29.1802 
        1.00632         84.1904         28.7812         28.7812 
        1.01246         83.3622         28.3892         28.3892 
        1.01859         82.3228         28.0051         28.0051 
        1.02471         82.6665         27.6288         27.6288 
        1.03085          81.692         27.2581         27.2581 
        1.03698         80.9919         26.8951         26.8951 
        1.04314         80.2056         26.5373         26.5373 
        1.04929         79.8721         26.1868         26.1868 
        1.05541         79.1712         25.8442         25.8442 
        1.06154         78.8902         25.5069         25.5069 
        1.06769         78.2406         25.1752         25.1752 
        1.07382         77.9425         24.8506         24.8506 
        1.07993         77.5021         24.5324         24.5324 
        1.08607          76.737         24.2186         24.2186 
        1.09222         76.3624           23.91           23.91 
        1.09836         75.8036         23.6072         23.6072 
        1.10449         75.2784           23.31           23.31 
        1.11063          74.647         23.0177         23.0177 
        1.11677         74.2103         22.7306         22.7306 
         1.1229         73.7628         22.4489         22.4489 
        1.12903         72.8006         22.1718         22.1718 
        1.13518         73.0089         21.8991         21.8991 
        1.14131         72.5555         21.6313         21.6313 
        1.14745         71.5791         21.3681         21.3681 
        1.15359         71.4278         21.1093         21.1093 
        1.15973          70.858         20.8548         20.8548 
        1.16584         70.3721         20.6056         20.6056 
        1.17197         69.9807         20.3602         20.3602 
        1.17811          69.596          20.118          20.118 
        1.18424         68.9241         19.8806         19.8806 
        1.19038         68.6786         19.6463         19.6463 
        1.19652         68.3836         19.4159         19.4159 
        1.20267         67.8188         19.1893         19.1893 
        1.20881         67.4081         18.9664         18.9664 
        1.21495         66.8637         18.7473         18.7473 
        1.22108         66.4662         18.5319         18.5319 
         1.2272         65.9244         18.3203         18.3203 
        1.23334         65.6606         18.1116         18.1116 
        1.23949         65.4542         17.9057         17.9057 
        1.24562         65.0212         17.7036         17.7036 
        1.25174         64.6735         17.5049         17.5049 
        1.25789         64.2964         17.3087         17.3087 
        1.26402         63.8067         17.1159         17.1159 
        1.27014         63.2068         16.9266         16.9266 
        1.27628         63.0773         16.7395         16.7395 
        1.28244         62.4922          16.555          16.555 
        1.28858         62.2658         16.3735         16.3735 
        1.29471         62.0789         16.1952         16.1952 
        1.30084         61.6122         16.0197         16.0197 
        1.30697         61.1284         15.8465         15.8465 
        1.31312         60.7599         15.6757         15.6757 
        1.31925         60.6253         15.5079         15.5079 
        1.32537         60.2481         15.3428         15.3428 
        1.33151         59.7496         15.1796         15.1796 
        1.33765         59.5905         15.0188         15.0188 
        1.34378         59.2173         14.8607         14.8607 
        1.34992         58.6527         14.7047         14.7047 
        1.35606         58.3731         14.5507         14.5507 
         1.3622         57.9832         14.3992         14.3992 
        1.36833         57.8149         14.2502         14.2502 
        1.37445         57.5685         14.1035         14.1035 
        1.38059         57.2032         13.9584         13.9584 
        1.38675         56.8453         13.8149         13.8149 
        1.39288          56.515         13.6741         13.6741 
        1.39901         56.2091         13.5354         13.5354 
        1.40515         55.9431         13.3982         13.3982 
         1.4113         55.7161          13.263          13.263 
        1.41742         55.3005         13.1303         13.1303 
        1.42355         55.0229         12.9991         12.9991 
         1.4297         54.6606         12.8693         12.8693 
        1.43585          54.479         12.7414         12.7414 
        1.44198         54.1693         12.6157         12.6157 
        1.44809          53.868         12.4919         12.4919 
        1.45423         53.6948         12.3694         12.3694 
        1.46036         53.3213         12.2487         12.2487 
        1.46649         53.0109         12.1296         12.1296 
        1.47263         52.7314         12.0121         12.0121 
        1.47877         52.5755         11.8961         11.8961 
        1.48491            52.3         11.7815         11.7815 
        1.49104         51.9217         11.6687         11.6687 
        1.49718          51.532         11.5573         11.5573 
        1.50333         51.3794         11.4472         11.4472 
        1.50947         51.0864         11.3387         11.3387 
         1.5156         50.7969         11.2318         11.2318 
        1.52172         50.5413         11.1264         11.1264 
        1.52787         50.4688          11.022          11.022 
          1.534         50.0917         10.9192         10.9192 
        1.54013         49.8084         10.8177         10.8177 
        1.54627         49.6666         10.7174         10.7174 
        1.55241         49.3301         10.6184         10.6184 
        1.55855         48.9905         10.5207         10.5207 
        1.56467         48.6283         10.4246         10.4246 
         1.5708         48.6164         10.3294         10.3294 
        1.57695         48.2805         10.2352         10.2352 
        1.58308         48.1633         10.1425         10.1425 
        1.58922         47.9961         10.0508         10.0508 
        1.59535         47.6634          9.9603          9.9603 
         1.6015         47.3361         9.87081         9.87081 
        1.60764         47.1999         9.78247         9.78247 
        1.61376          46.977         9.69546         9.69546 
        1.61989         46.5284         9.60944         9.60944 
        1.62604         46.4667         9.52429         9.52429 
        1.63218         46.2407         9.44023         9.44023 
        1.63831         45.9886         9.35738         9.35738 
        1.64444         45.8118         9.27551         9.27551 
        1.65059         45.3893         9.19443         9.19443 
        1.65673         45.2395         9.11441         9.11441 
        1.66285         45.0691         9.03558         9.03558 
        1.66898         44.7859         8.95766         8.95766 
        1.67512         44.5721         8.88051         8.88051 
        1.68127         44.2893         8.80421         8.80421 
         1.6874         44.2129         8.72898         8.72898 
        1.69353         43.8942         8.65468         8.65468 
        1.69967         43.7386         8.58108         8.58108 
        1.70581         43.6095         8.50837         8.50837 
        1.71193         43.2944         8.43678         8.43678 
        1.71806         43.0283         8.36587         8.36587 
        1.72421          42.824         8.29564         8.29564 
        1.73035         42.6105          8.2263          8.2263 
        1.73649         42.3958         8.15777         8.15777 
        1.74262          42.224         8.09008         8.09008 
        1.74876         42.1862         8.02312         8.02312 
        1.75489         41.8002         7.95707         7.95707 
        1.76101         41.6437         7.89178         7.89178 
        1.76715         41.4102         7.82714         7.82714 
        1.77329         41.1882         7.76315         7.76315 
        1.77943         41.0871         7.69985         7.69985 
        1.78557         40.8727         7.63736         7.63736 
        1.79171         40.6159         7.57555         7.57555 
        1.79785         40.4247         7.51442         7.51442 
        1.80399         40.2646         7.45399         7.45399 
        1.81012         40.1304          7.3943          7.3943 
        1.81625         39.8107          7.3353          7.3353 
        1.82239         39.7028         7.27686         7.27686 
        1.82853          39.385         7.21909         7.21909 
        1.83466         39.2833         7.16201         7.16201 
        1.84078         38.9896         7.10561         7.10561 
        1.84692         38.8702         7.04973         7.04973 
        1.85306          38.668         6.99438         6.99438 
         1.8592         38.4978         6.93972         6.93972 
        1.86533          38.253         6.88568         6.88568 
        1.87147           38.15         6.83216         6.83216 
        1.87761         38.0432         6.77918         6.77918 
