# k  (h/Mpc)    Pcb(k)  (Mpc/h)^3    Pcb_linear(k) (Mpc/h)^3    Pcb_NL(k) (Mpc/h)^3   ShotnoiseSubtracted = false
     0.00783031         9096.26         9216.03         9216.03 
       0.013688         11723.3           11651           11651 
       0.019231         12022.2         12008.6         12008.6 
      0.0249154         11121.6         11309.8         11309.8 
      0.0312784         9933.84         10019.8         10019.8 
      0.0375637         8737.46         8742.84         8742.84 
      0.0433917         7659.25         7777.79         7777.79 
      0.0492413         7006.77         7058.49         7058.49 
      0.0555754         6326.71         6494.69         6494.69 
      0.0619321         6038.04         6040.56         6040.56 
       0.067871         5494.66         5626.63         5626.63 
      0.0738098         5054.08         5177.68         5177.68 
      0.0800417         4519.89         4671.65         4671.65 
      0.0862327         4084.42         4172.23         4172.23 
      0.0921407         3717.27         3742.75         3742.75 
      0.0982031          3341.9         3380.69         3380.69 
       0.104506         3140.08         3097.02         3097.02 
       0.110769         2925.12         2893.75         2893.75 
       0.116806         2753.82         2744.33         2744.33 
       0.122832          2632.4         2611.31         2611.31 
       0.129052         2445.74         2467.58         2467.58 
       0.135211          2301.8         2308.74         2308.74 
       0.141259         2177.98         2140.58         2140.58 
       0.147318          2036.2         1972.41         1972.41 
       0.153489         1866.06         1815.73         1815.73 
       0.159709          1762.5         1683.01         1683.01 
       0.165845         1693.82         1579.69         1579.69 
       0.171974         1600.35         1499.93         1499.93 
       0.178125         1529.47         1435.16         1435.16 
       0.184229         1471.98         1376.79         1376.79 
        0.19034         1379.82         1317.03         1317.03 
       0.196428         1349.87         1252.72         1252.72 
       0.202534         1298.79         1184.07         1184.07 
       0.208729         1230.88         1113.75         1113.75 
       0.214876         1167.01         1047.78         1047.78 
       0.220989         1129.72         989.457         989.457 
       0.227147         1073.55          939.59          939.59 
        0.23329         1033.39         898.117         898.117 
       0.239377         1014.27         863.023         863.023 
       0.245482         950.126         831.082         831.082 
       0.251667         941.858         799.576         799.576 
       0.257832         906.943           767.5           767.5 
       0.263955         875.979         734.737         734.737 
       0.270079          844.94         701.799         701.799 
        0.27624         833.899         669.718         669.718 
       0.282372         798.478          640.03          640.03 
        0.28843         782.699         613.549         613.549 
       0.294538         745.196         589.822         589.822 
       0.300721         742.131         568.369         568.369 
        0.30691         708.973         548.686         548.686 
       0.313033         695.236         530.173         530.173 
       0.319153         676.435         512.041         512.041 
       0.325316         656.113         493.886         493.886 
        0.33145         638.135         475.989         475.989 
       0.337538         629.628         458.662         458.662 
       0.343633         610.381         442.096         442.096 
       0.349808         590.484         426.356         426.356 
       0.355968          586.01         411.826         411.826 
       0.362074         575.567         398.495         398.495 
       0.368217          559.83         385.987         385.987 
       0.374374         537.231         374.111         374.111 
       0.380519         533.821         362.692         362.692 
       0.386598         520.938         351.703         351.703 
       0.392688         517.956         340.941         340.941 
        0.39888         503.151          330.29          330.29 
       0.405048         493.269         320.059         320.059 
       0.411186         484.488         310.318         310.318 
       0.417313         475.818         301.088         301.088 
       0.423458         467.341         292.334         292.334 
       0.429607          458.29         284.025         284.025 
       0.435692          447.59          276.19          276.19 
       0.441815         444.444         268.627         268.627 
       0.447964          435.33         261.288         261.288 
       0.454126         422.977         254.156         254.156 
       0.460267         417.318         247.268         247.268 
       0.466387          412.78         240.623         240.623 
        0.47254         404.002         234.175         234.175 
       0.478662         402.995         228.007         228.007 
       0.484765         390.822         222.113         222.113 
       0.490885         386.632         216.446         216.446 
       0.497035         380.071         210.974         210.974 
       0.503198         373.261         205.698         205.698 
       0.509342         370.301         200.623         200.623 
       0.515458          366.41         195.737         195.737 
       0.521598          359.16         190.981         190.981 
       0.527764         352.643         186.351         186.351 
       0.533884          350.06         181.903         181.903 
           0.54          345.33         177.607         177.607 
       0.546137         343.762         173.442         173.442 
       0.552299         336.797         169.401         169.401 
       0.558452          334.27         165.504         165.504 
       0.564573         329.031         161.756         161.756 
       0.570708         323.366         158.122         158.122 
       0.576825         318.203         154.613         154.613 
       0.582926          315.67         151.218         151.218 
       0.589034         312.267         147.919         147.919 
       0.595184         309.182         144.695         144.695 
       0.601379         306.029         141.544         141.544 
       0.607522         300.729         138.514         138.514 
       0.613639          299.19         135.589         135.589 
       0.619772         292.085         132.744         132.744 
       0.625918          290.94         129.978         129.978 
       0.632068         286.755         127.292         127.292 
       0.638161         285.559         124.707         124.707 
         0.6443         280.634         122.175         122.175 
       0.650464         278.144         119.706         119.706 
       0.656582         276.682         117.322         117.322 
       0.662703          274.26         115.004         115.004 
       0.668861         269.528         112.736         112.736 
       0.675024         266.587         110.529         110.529 
       0.681124         265.533         108.404         108.404 
       0.687237         262.044         106.332         106.332 
       0.693381          258.28         104.305         104.305 
       0.699536         256.439         102.328         102.328 
       0.705665         254.771         100.412         100.412 
       0.711789         251.538         98.5475         98.5475 
       0.717957         249.966          96.718          96.718 
        0.72409         247.236         94.9459         94.9459 
       0.730186          244.28         93.2295         93.2295 
       0.736317          242.09         91.5469         91.5469 
       0.742472         240.892         89.9002         89.9002 
       0.748622         238.815         88.2961         88.2961 
        0.75476         236.739         86.7352         86.7352 
       0.760888         233.594         85.2149         85.2149 
       0.767043          233.25         83.7256         83.7256 
       0.773185         230.494         82.2755         82.2755 
       0.779291         226.445         80.8684         80.8684 
       0.785407         225.864         79.4927         79.4927 
       0.791564         223.662         78.1408         78.1408 
       0.797719         221.206         76.8213         76.8213 
       0.803834         220.023         75.5411         75.5411 
       0.809972         218.001         74.2859         74.2859 
       0.816124         218.089         73.0568         73.0568 
       0.822261         214.739         71.8592         71.8592 
       0.828378         213.033         70.6924         70.6924 
       0.834502         212.886         69.5509         69.5509 
       0.840667         209.353         68.4275         68.4275 
       0.846816         208.049         67.3324         67.3324 
       0.852925          206.96         66.2685         66.2685 
       0.859047         204.952         65.2256         65.2256 
       0.865192          203.32          64.202          64.202 
       0.871341         201.376            63.2            63.2 
       0.877463         200.032         62.2242         62.2242 
       0.883569         198.815         61.2718         61.2718 
       0.889708          197.07         60.3346         60.3346 
       0.895864         194.761         59.4149         59.4149 
       0.902008         194.153         58.5166         58.5166 
       0.908149         193.189         57.6376         57.6376 
       0.914301         190.868         56.7754         56.7754 
       0.920448          189.44         55.9319         55.9319 
       0.926574         188.524         55.1088         55.1088 
       0.932687         187.903         54.3041         54.3041 
       0.938823         185.631         53.5128         53.5128 
       0.944975         184.111         52.7357         52.7357 
       0.951105         183.288          51.977          51.977 
       0.957225         181.244         51.2347         51.2347 
       0.963368         179.397         50.5045         50.5045 
       0.969511         178.824         49.7887         49.7887 
       0.975621         177.589         49.0909         49.0909 
       0.981748         177.248         48.4047         48.4047 
       0.987916         174.976         47.7275         47.7275 
        0.99406         173.872         47.0659         47.0659 
        1.00019         173.434         46.4184         46.4184 
        1.00632         171.806         45.7837         45.7837 
        1.01246         170.725           45.16           45.16 
        1.01859         169.498         44.5492         44.5492 
        1.02471         168.428         43.9505         43.9505 
        1.03085         166.599         43.3608         43.3608 
        1.03698         165.674         42.7834         42.7834 
        1.04314         164.486         42.2141         42.2141 
        1.04929         163.304         41.6567         41.6567 
        1.05541         162.661         41.1116         41.1116 
        1.06154          161.47         40.5751         40.5751 
        1.06769         161.274         40.0475         40.0475 
        1.07382         159.957          39.531          39.531 
        1.07993         158.555          39.025          39.025 
        1.08607         157.582         38.5257         38.5257 
        1.09222         156.811         38.0348         38.0348 
        1.09836         155.382         37.5532         37.5532 
        1.10449         154.142         37.0805         37.0805 
        1.11063         153.094         36.6155         36.6155 
        1.11677         152.747         36.1587         36.1587 
         1.1229          151.12         35.7106         35.7106 
        1.12903         150.343         35.2697         35.2697 
        1.13518         150.083          34.836          34.836 
        1.14131         148.512           34.41           34.41 
        1.14745         147.904         33.9913         33.9913 
        1.15359         146.822         33.5797         33.5797 
        1.15973         146.396         33.1747         33.1747 
        1.16584         144.824         32.7783         32.7783 
        1.17197         144.235         32.3879         32.3879 
        1.17811         143.358         32.0028         32.0028 
        1.18424         142.561          31.625          31.625 
        1.19038         141.974         31.2524         31.2524 
        1.19652         140.965         30.8859         30.8859 
        1.20267         140.108         30.5254         30.5254 
        1.20881         138.974         30.1707         30.1707 
        1.21495         138.334         29.8223         29.8223 
        1.22108          137.64         29.4796         29.4796 
         1.2272         136.461          29.143          29.143 
        1.23334         135.809          28.811          28.811 
        1.23949         134.418         28.4835         28.4835 
        1.24562         134.078          28.162          28.162 
        1.25174         132.644          27.846          27.846 
        1.25789         132.224         27.5339         27.5339 
        1.26402         131.617         27.2272         27.2272 
        1.27014         130.648          26.926          26.926 
        1.27628         129.984         26.6284         26.6284 
        1.28244         129.306         26.3349         26.3349 
        1.28858         128.787         26.0461         26.0461 
        1.29471         127.378         25.7624         25.7624 
        1.30084         126.846         25.4833         25.4833 
        1.30697         126.133         25.2078         25.2078 
        1.31312         125.793         24.9361         24.9361 
        1.31925         124.598         24.6692         24.6692 
        1.32537         124.106         24.4066         24.4066 
        1.33151         122.871         24.1469         24.1469 
        1.33765         122.498         23.8911         23.8911 
        1.34378          121.63         23.6396         23.6396 
        1.34992         121.465         23.3915         23.3915 
        1.35606         120.527         23.1466         23.1466 
         1.3622         119.605         22.9056         22.9056 
        1.36833         119.021         22.6686         22.6686 
        1.37445         118.186         22.4351         22.4351 
        1.38059         117.838         22.2042         22.2042 
        1.38675          116.86         21.9761         21.9761 
        1.39288         116.403         21.7521         21.7521 
        1.39901         115.925         21.5314         21.5314 
        1.40515         115.112         21.3132         21.3132 
         1.4113         114.011         21.0982         21.0982 
        1.41742         113.867          20.887          20.887 
        1.42355             113         20.6783         20.6783 
         1.4297         112.321         20.4718         20.4718 
        1.43585          111.39         20.2683         20.2683 
        1.44198          111.22         20.0684         20.0684 
        1.44809          110.34         19.8715         19.8715 
        1.45423         109.544         19.6766         19.6766 
        1.46036         109.358         19.4846         19.4846 
        1.46649         108.662         19.2952         19.2952 
        1.47263         108.093         19.1082         19.1082 
        1.47877         107.627         18.9238         18.9238 
        1.48491         106.614         18.7415         18.7415 
        1.49104         106.248          18.562          18.562 
        1.49718         105.427         18.3848         18.3848 
        1.50333         104.944         18.2096         18.2096 
        1.50947         104.327         18.0371         18.0371 
         1.5156         103.873          17.867          17.867 
        1.52172         103.071         17.6992         17.6992 
        1.52787          102.81         17.5333         17.5333 
          1.534         102.147         17.3696         17.3696 
        1.54013         101.399         17.2083         17.2083 
        1.54627         100.931         17.0487         17.0487 
        1.55241         100.349         16.8912         16.8912 
        1.55855         99.9776         16.7358         16.7358 
        1.56467          99.322         16.5829         16.5829 
         1.5708         98.7155         16.4314         16.4314 
        1.57695         98.4698         16.2817         16.2817 
        1.58308         97.4377         16.1341         16.1341 
        1.58922         97.3141         15.9883         15.9883 
        1.59535         96.7637         15.8443         15.8443 
         1.6015         96.1788          15.702          15.702 
        1.60764         95.5934         15.5615         15.5615 
        1.61376         95.2753          15.423          15.423 
        1.61989         94.5747         15.2862         15.2862 
        1.62604          94.132         15.1508         15.1508 
        1.63218         93.7298          15.017          15.017 
        1.63831         92.9594         14.8853         14.8853 
        1.64444         92.5795          14.755          14.755 
        1.65059         91.9905          14.626          14.626 
        1.65673         91.2916         14.4987         14.4987 
        1.66285         91.1215         14.3733         14.3733 
        1.66898         90.4312         14.2494         14.2494 
        1.67512         89.9536         14.1267         14.1267 
        1.68127         89.4528         14.0053         14.0053 
         1.6874         88.9641         13.8856         13.8856 
        1.69353         88.4831         13.7674         13.7674 
        1.69967          87.995         13.6503         13.6503 
        1.70581         87.6356         13.5347         13.5347 
        1.71193         87.3341         13.4208         13.4208 
        1.71806         86.5012          13.308          13.308 
        1.72421         86.2068         13.1963         13.1963 
        1.73035         85.6731          13.086          13.086 
        1.73649         85.2152          12.977          12.977 
        1.74262         84.7729         12.8693         12.8693 
        1.74876         84.4322         12.7628         12.7628 
        1.75489         83.7437         12.6577         12.6577 
        1.76101         83.5174         12.5538         12.5538 
        1.76715         82.9358          12.451          12.451 
        1.77329         82.5845         12.3492         12.3492 
        1.77943         82.0198         12.2485         12.2485 
        1.78557         81.7501         12.1491         12.1491 
        1.79171         81.2312         12.0508         12.0508 
        1.79785         80.8209         11.9536         11.9536 
        1.80399         80.4233         11.8574         11.8574 
        1.81012          80.102         11.7625         11.7625 
        1.81625          79.435         11.6686         11.6686 
        1.82239         79.1459         11.5757         11.5757 
        1.82853         78.8358         11.4838         11.4838 
        1.83466         78.2933          11.393          11.393 
        1.84078         78.0184         11.3032         11.3032 
        1.84692         77.3512         11.2144         11.2144 
        1.85306         76.9922         11.1263         11.1263 
         1.8592         76.4585         11.0394         11.0394 
        1.86533         76.1699         10.9534         10.9534 
        1.87147         75.5947         10.8683         10.8683 
