# k  (h/Mpc)    P(k)  (Mpc/h)^3    P_linear(k)  (Mpc/h)^3     P_NL(k)  ShotnoiseSubtracted = false
     0.00783031         7165.02         7255.04         7255.04 
       0.013688         9219.48         9172.63         9172.63 
       0.019231         9465.57         9454.51         9454.51 
      0.0249154          8775.4         8904.46         8904.46 
      0.0312784            7835         7888.98         7888.98 
      0.0375637         6886.26         6883.61         6883.61 
      0.0433917         6047.79         6123.82         6123.82 
      0.0492413         5527.76          5557.5          5557.5 
      0.0555754         5003.83         5113.61         5113.61 
      0.0619321         4762.94         4756.06         4756.06 
       0.067871         4346.16         4430.16         4430.16 
      0.0738098         3996.95         4076.68         4076.68 
      0.0800417         3578.43         3678.26         3678.26 
      0.0862327          3229.1         3285.04         3285.04 
      0.0921407         2932.26         2946.89         2946.89 
      0.0982031         2635.98         2661.82         2661.82 
       0.104506         2470.18         2438.47         2438.47 
       0.110769         2301.64         2278.43         2278.43 
       0.116806         2165.54         2160.78         2160.78 
       0.122832         2071.65         2056.04         2056.04 
       0.129052         1927.99         1942.88         1942.88 
       0.135211         1812.37         1817.81         1817.81 
       0.141259         1710.59         1685.41         1685.41 
       0.147318         1596.39            1553            1553 
       0.153489         1462.86         1429.64         1429.64 
       0.159709         1378.14         1325.14         1325.14 
       0.165845         1321.01         1243.79         1243.79 
       0.171974         1246.34         1180.99         1180.99 
       0.178125         1192.28         1129.99         1129.99 
       0.184229          1148.2         1084.03         1084.03 
        0.19034         1075.27         1036.98         1036.98 
       0.196428         1050.13         986.347         986.347 
       0.202534         1010.38         932.295         932.295 
       0.208729         955.072         876.924         876.924 
       0.214876         901.967         824.985         824.985 
       0.220989          872.65         779.061         779.061 
       0.227147         826.478         739.799         739.799 
        0.23329         795.175         707.145         707.145 
       0.239377         778.564         679.513         679.513 
       0.245482         729.674         654.363         654.363 
       0.251667         721.736         629.559         629.559 
       0.257832         695.775         604.301         604.301 
       0.263955         671.007         578.505         578.505 
       0.270079         646.706          552.57          552.57 
        0.27624         636.636         527.312         527.312 
       0.282372          609.83         503.937         503.937 
        0.28843         593.694         483.086         483.086 
       0.294538         566.443         464.405         464.405 
       0.300721         562.926         447.513         447.513 
        0.30691         537.389         432.016         432.016 
       0.313033         526.212         417.439         417.439 
       0.319153         509.177         403.163         403.163 
       0.325316          494.94         388.867         388.867 
        0.33145         480.163         374.776         374.776 
       0.337538         473.625         361.134         361.134 
       0.343633         458.273         348.091         348.091 
       0.349808          443.75         335.697         335.697 
       0.355968         438.818         324.257         324.257 
       0.362074         429.347          313.76          313.76 
       0.368217           417.9         303.912         303.912 
       0.374374         402.302         294.562         294.562 
       0.380519         397.662         285.571         285.571 
       0.386598         388.105         276.919         276.919 
       0.392688         384.585         268.444         268.444 
        0.39888         374.042         260.058         260.058 
       0.405048         366.019         252.003         252.003 
       0.411186         358.628         244.334         244.334 
       0.417313         352.274         237.066         237.066 
       0.423458         345.582         230.173         230.173 
       0.429607         338.119         223.631         223.631 
       0.435692          329.49         217.462         217.462 
       0.441815         327.131         211.507         211.507 
       0.447964         320.865         205.729         205.729 
       0.454126         309.304         200.113         200.113 
       0.460267         305.805          194.69          194.69 
       0.466387         302.321         189.458         189.458 
        0.47254         295.652         184.381         184.381 
       0.478662         294.184         179.524         179.524 
       0.484765         285.729         174.884         174.884 
       0.490885         282.015         170.422         170.422 
       0.497035         277.757         166.113         166.113 
       0.503198         271.367         161.959         161.959 
       0.509342         268.738         157.964         157.964 
       0.515458         265.427         154.116         154.116 
       0.521598         261.089         150.371         150.371 
       0.527764         256.756         146.726         146.726 
       0.533884         253.632         143.224         143.224 
           0.54         250.055         139.841         139.841 
       0.546137         248.614         136.562         136.562 
       0.552299          243.86          133.38          133.38 
       0.558452         240.843         130.312         130.312 
       0.564573         236.927         127.361         127.361 
       0.570708         232.869         124.499         124.499 
       0.576825         229.877         121.736         121.736 
       0.582926         227.002         119.064         119.064 
       0.589034         224.007         116.466         116.466 
       0.595184         221.726         113.927         113.927 
       0.601379         219.669         111.447         111.447 
       0.607522         215.113         109.061         109.061 
       0.613639         214.153         106.758         106.758 
       0.619772         209.349         104.518         104.518 
       0.625918          207.68          102.34          102.34 
       0.632068         205.197         100.225         100.225 
       0.638161         203.932         98.1896         98.1896 
         0.6443         200.734         96.1965         96.1965 
       0.650464         198.737         94.2519         94.2519 
       0.656582         197.035         92.3755         92.3755 
       0.662703         194.504         90.5502         90.5502 
       0.668861         191.723         88.7647         88.7647 
       0.675024         189.497         87.0267         87.0267 
       0.681124         188.591         85.3536         85.3536 
       0.687237         185.463          83.722          83.722 
       0.693381         182.981         82.1261         82.1261 
       0.699536         181.763         80.5697         80.5697 
       0.705665         181.458         79.0609         79.0609 
       0.711789         177.684         77.5927         77.5927 
       0.717957         176.946         76.1523         76.1523 
        0.72409         174.647          74.757          74.757 
       0.730186         172.021         73.4056         73.4056 
       0.736317         171.121         72.0807         72.0807 
       0.742472         169.979         70.7842         70.7842 
       0.748622         168.553         69.5212         69.5212 
        0.75476         167.017         68.2922         68.2922 
       0.760888         164.727         67.0952         67.0952 
       0.767043         163.808         65.9225         65.9225 
       0.773185         162.131         64.7808         64.7808 
       0.779291         159.752         63.6729         63.6729 
       0.785407         158.995         62.5897         62.5897 
       0.791564         157.429         61.5253         61.5253 
       0.797719          155.39         60.4864         60.4864 
       0.803834         154.707         59.4784         59.4784 
       0.809972         152.711         58.4901         58.4901 
       0.816124         152.573         57.5223         57.5223 
       0.822261         150.648         56.5794         56.5794 
       0.828378         149.236         55.6607         55.6607 
       0.834502         148.899         54.7619         54.7619 
       0.840667         146.707         53.8774         53.8774 
       0.846816         145.514         53.0151         53.0151 
       0.852925         144.445         52.1774         52.1774 
       0.859047         142.816         51.3563         51.3563 
       0.865192          142.06         50.5504         50.5504 
       0.871341         140.651         49.7614         49.7614 
       0.877463         139.475         48.9931         48.9931 
       0.883569         138.452         48.2432         48.2432 
       0.889708         137.495         47.5053         47.5053 
       0.895864         136.155         46.7812         46.7812 
       0.902008         135.315         46.0738         46.0738 
       0.908149         134.519         45.3818         45.3818 
       0.914301         133.003         44.7029         44.7029 
       0.920448         132.162         44.0388         44.0388 
       0.926574         131.378         43.3907         43.3907 
       0.932687         130.704         42.7571         42.7571 
       0.938823         128.926         42.1341         42.1341 
       0.944975         127.992         41.5222         41.5222 
       0.951105         127.238         40.9248         40.9248 
       0.957225         125.694         40.3403         40.3403 
       0.963368         124.983         39.7654         39.7654 
       0.969511         124.507         39.2019         39.2019 
       0.975621         123.904         38.6524         38.6524 
       0.981748         122.986         38.1121         38.1121 
       0.987916         121.591         37.5789         37.5789 
        0.99406         121.021          37.058          37.058 
        1.00019         120.086         36.5482         36.5482 
        1.00632         119.351         36.0484         36.0484 
        1.01246         118.409         35.5574         35.5574 
        1.01859         116.991         35.0764         35.0764 
        1.02471         117.138          34.605          34.605 
        1.03085         115.914         34.1408         34.1408 
        1.03698         114.987         33.6861         33.6861 
        1.04314         114.023         33.2379         33.2379 
        1.04929         113.418          32.799          32.799 
        1.05541         112.627         32.3698         32.3698 
        1.06154         111.959         31.9474         31.9474 
        1.06769         111.538         31.5319         31.5319 
        1.07382         110.972         31.1253         31.1253 
        1.07993         110.111         30.7269         30.7269 
        1.08607         109.194         30.3338         30.3338 
        1.09222          108.65         29.9473         29.9473 
        1.09836         107.774          29.568          29.568 
        1.10449         107.111         29.1958         29.1958 
        1.11063         106.451         28.8297         28.8297 
        1.11677         105.914           28.47           28.47 
         1.1229         104.846         28.1172         28.1172 
        1.12903         103.932         27.7701         27.7701 
        1.13518         104.157         27.4287         27.4287 
        1.14131         103.215         27.0932         27.0932 
        1.14745         102.249         26.7636         26.7636 
        1.15359         101.765         26.4394         26.4394 
        1.15973         101.384         26.1206         26.1206 
        1.16584         100.544         25.8085         25.8085 
        1.17197         99.9467         25.5011         25.5011 
        1.17811         99.3208         25.1978         25.1978 
        1.18424         98.5984         24.9004         24.9004 
        1.19038         98.0637          24.607          24.607 
        1.19652         97.6052         24.3184         24.3184 
        1.20267         96.8205         24.0346         24.0346 
        1.20881         96.2597         23.7553         23.7553 
        1.21495         95.5782          23.481          23.481 
        1.22108         95.0334         23.2111         23.2111 
         1.2272         94.3665         22.9462         22.9462 
        1.23334         93.9415         22.6848         22.6848 
        1.23949         93.2105         22.4269         22.4269 
        1.24562         92.9276         22.1737         22.1737 
        1.25174         92.2733         21.9249         21.9249 
        1.25789           91.78         21.6792         21.6792 
        1.26402         91.3707         21.4377         21.4377 
        1.27014         90.4366         21.2005         21.2005 
        1.27628         90.2661         20.9663         20.9663 
        1.28244         89.4345         20.7351         20.7351 
        1.28858         89.1026         20.5078         20.5078 
        1.29471         88.6063         20.2844         20.2844 
        1.30084         87.9697         20.0646         20.0646 
        1.30697          87.457         19.8477         19.8477 
        1.31312         87.0502         19.6338         19.6338 
        1.31925         86.6528         19.4237         19.4237 
        1.32537         86.2071         19.2169         19.2169 
        1.33151         85.3863         19.0124         19.0124 
        1.33765         84.9534          18.811          18.811 
        1.34378         84.4207          18.613          18.613 
        1.34992         84.1665         18.4177         18.4177 
        1.35606         83.6622         18.2248         18.2248 
         1.3622         82.8811          18.035          18.035 
        1.36833         82.7386         17.8484         17.8484 
        1.37445         82.1296         17.6646         17.6646 
        1.38059         81.6081         17.4828         17.4828 
        1.38675          81.162         17.3032         17.3032 
        1.39288         80.6154         17.1268         17.1268 
        1.39901         80.5023          16.953          16.953 
        1.40515         80.0483         16.7813         16.7813 
         1.4113         79.3708          16.612          16.612 
        1.41742         79.1968         16.4457         16.4457 
        1.42355         78.5062         16.2813         16.2813 
         1.4297         78.1477         16.1188         16.1188 
        1.43585         77.5684         15.9585         15.9585 
        1.44198         77.3182         15.8011         15.8011 
        1.44809         76.8526         15.6461         15.6461 
        1.45423         76.4775         15.4926         15.4926 
        1.46036         76.1352         15.3415         15.3415 
        1.46649         75.6446         15.1924         15.1924 
        1.47263         75.2277         15.0451         15.0451 
        1.47877         74.9862         14.8999         14.8999 
        1.48491         74.4995         14.7564         14.7564 
        1.49104         74.0246         14.6151         14.6151 
        1.49718         73.5963         14.4755         14.4755 
        1.50333         73.2164         14.3376         14.3376 
        1.50947         72.7444         14.2017         14.2017 
         1.5156         72.5253         14.0679         14.0679 
        1.52172         72.0558         13.9357         13.9357 
        1.52787         71.8342         13.8051         13.8051 
          1.534         71.4421         13.6762         13.6762 
        1.54013           70.94         13.5492         13.5492 
        1.54627         70.6266         13.4236         13.4236 
        1.55241         70.1595         13.2995         13.2995 
        1.55855         69.7693         13.1772         13.1772 
        1.56467         69.2716         13.0568         13.0568 
         1.5708         69.1684         12.9375         12.9375 
        1.57695         68.8584         12.8196         12.8196 
        1.58308         68.3211         12.7034         12.7034 
        1.58922         68.1786         12.5886         12.5886 
        1.59535          67.889         12.4753         12.4753 
         1.6015         67.2673         12.3632         12.3632 
        1.60764         67.1084         12.2525         12.2525 
        1.61376          66.642         12.1436         12.1436 
        1.61989         66.2276         12.0358         12.0358 
        1.62604         66.0218         11.9292         11.9292 
        1.63218         65.8023         11.8239         11.8239 
        1.63831         65.3508         11.7201         11.7201 
        1.64444         65.0407         11.6176         11.6176 
        1.65059         64.5038          11.516          11.516 
        1.65673         64.3313         11.4158         11.4158 
        1.66285         63.9859         11.3171         11.3171 
        1.66898         63.6699         11.2195         11.2195 
        1.67512         63.2342         11.1228         11.1228 
        1.68127         62.8814         11.0273         11.0273 
         1.6874          62.661          10.933          10.933 
        1.69353         62.3157           10.84           10.84 
        1.69967         62.0109         10.7478         10.7478 
        1.70581         61.8324         10.6567         10.6567 
        1.71193         61.5424         10.5671         10.5671 
        1.71806         60.9689         10.4782         10.4782 
        1.72421         60.8719         10.3903         10.3903 
        1.73035         60.4557         10.3034         10.3034 
        1.73649         60.0508         10.2176         10.2176 
        1.74262         59.9147         10.1328         10.1328 
        1.74876         59.6395          10.049          10.049 
        1.75489          59.224         9.96622         9.96622 
        1.76101         59.0356         9.88445         9.88445 
        1.76715          58.605         9.80348         9.80348 
        1.77329         58.3607         9.72334         9.72334 
        1.77943         58.0875         9.64406         9.64406 
        1.78557         57.8786         9.56578         9.56578 
        1.79171         57.5178         9.48837         9.48837 
        1.79785         57.2779         9.41181         9.41181 
        1.80399         56.9119         9.33612         9.33612 
        1.81012         56.7873         9.26136         9.26136 
        1.81625         56.2175         9.18746         9.18746 
        1.82239         56.0733         9.11427         9.11427 
        1.82853         55.6457         9.04191         9.04191 
        1.83466          55.533         8.97041         8.97041 
        1.84078         55.0824         8.89977         8.89977 
        1.84692          54.854         8.82978         8.82978 
        1.85306         54.6229         8.76046         8.76046 
         1.8592         54.2638           8.692           8.692 
        1.86533         54.0552         8.62431         8.62431 
        1.87147         53.7799         8.55727         8.55727 
        1.87761         53.5727         8.49092         8.49092 
