# k  (h/Mpc)    Pcb(k)  (Mpc/h)^3    Pcb_linear(k) (Mpc/h)^3    Pcb_NL(k) (Mpc/h)^3   ShotnoiseSubtracted = false
     0.00783031         11376.3         11533.8         11533.8 
       0.013688         14687.3           14580           14580 
       0.019231         15042.2           15027           15027 
      0.0249154         13881.8         14152.2         14152.2 
      0.0312784         12404.1         12537.9         12537.9 
      0.0375637         10919.1         10939.9         10939.9 
      0.0433917          9551.8         9732.27         9732.27 
      0.0492413         8746.34         8832.18         8832.18 
      0.0555754          7875.1         8126.67         8126.67 
      0.0619321         7536.66         7558.41         7558.41 
       0.067871         6837.97         7040.46         7040.46 
      0.0738098         6291.35         6478.69         6478.69 
      0.0800417         5619.74         5845.49         5845.49 
      0.0862327          5086.2         5220.59         5220.59 
      0.0921407         4640.96         4683.19         4683.19 
      0.0982031         4173.51         4230.15         4230.15 
       0.104506         3932.28          3875.2          3875.2 
       0.110769         3662.42         3620.86         3620.86 
       0.116806         3451.29         3433.88         3433.88 
       0.122832         3295.57         3267.44         3267.44 
       0.129052         3056.87          3087.6          3087.6 
       0.135211         2880.32         2888.84         2888.84 
       0.141259         2733.08         2678.43         2678.43 
       0.147318         2560.71         2468.01         2468.01 
       0.153489         2347.23         2271.96         2271.96 
       0.159709         2222.35         2105.89         2105.89 
       0.165845          2142.4         1976.61         1976.61 
       0.171974         2027.28         1876.81         1876.81 
       0.178125         1935.75         1795.76         1795.76 
       0.184229         1860.65         1722.73         1722.73 
        0.19034         1749.02         1647.95         1647.95 
       0.196428         1712.44         1567.49         1567.49 
       0.202534         1646.73         1481.59         1481.59 
       0.208729         1565.38         1393.59         1393.59 
       0.214876         1491.65         1311.05         1311.05 
       0.220989         1443.94         1238.07         1238.07 
       0.227147         1377.61         1175.67         1175.67 
        0.23329         1326.66         1123.78         1123.78 
       0.239377         1305.45         1079.87         1079.87 
       0.245482         1223.78          1039.9          1039.9 
       0.251667         1215.44         1000.48         1000.48 
       0.257832         1168.97         960.343         960.343 
       0.263955         1130.12         919.348         919.348 
       0.270079         1091.22         878.134         878.134 
        0.27624         1078.72         837.993         837.993 
       0.282372         1032.84         800.844         800.844 
        0.28843         1020.16          767.71          767.71 
       0.294538         970.269         738.022         738.022 
       0.300721          966.96         711.178         711.178 
        0.30691         925.505          686.55          686.55 
       0.313033         908.193         663.385         663.385 
       0.319153         888.824         640.698         640.698 
       0.325316         860.649          617.98          617.98 
        0.33145         839.481         595.587         595.587 
       0.337538         827.418         573.906         573.906 
       0.343633          804.95         553.178         553.178 
       0.349808         778.229         533.482         533.482 
       0.355968         773.686         515.301         515.301 
       0.362074         763.087         498.622         498.622 
       0.368217         741.255          482.97          482.97 
       0.374374         710.936         468.111         468.111 
       0.380519         709.806         453.823         453.823 
       0.386598         691.997         440.072         440.072 
       0.392688         689.416         426.606         426.606 
        0.39888         669.385         413.279         413.279 
       0.405048         658.224         400.477         400.477 
       0.411186         648.218         388.289         388.289 
       0.417313          635.72          376.74          376.74 
       0.423458          624.93         365.786         365.786 
       0.429607         614.635         355.389         355.389 
       0.435692         600.918         345.586         345.586 
       0.441815          596.92         336.122         336.122 
       0.447964         584.196          326.94          326.94 
       0.454126         573.182         318.016         318.016 
       0.460267         563.027         309.396         309.396 
       0.466387          557.09         301.082         301.082 
        0.47254         547.276         293.014         293.014 
       0.478662         545.708         285.296         285.296 
       0.484765         529.036         277.921         277.921 
       0.490885         524.691          270.83          270.83 
       0.497035         514.755         263.984         263.984 
       0.503198         508.735         257.382         257.382 
       0.509342         504.366         251.032         251.032 
       0.515458         500.287         244.918         244.918 
       0.521598         488.918         238.967         238.967 
       0.527764         479.371         233.174         233.174 
       0.533884         477.907         227.608         227.608 
           0.54         471.677         222.233         222.233 
       0.546137         469.493         217.021         217.021 
       0.552299         460.636         211.965         211.965 
       0.558452          458.35         207.088         207.088 
       0.564573         451.379         202.399         202.399 
       0.570708         444.973         197.852         197.852 
       0.576825         434.907         193.461         193.461 
       0.582926         434.245         189.214         189.214 
       0.589034         430.193         185.086         185.086 
       0.595184         426.094         181.051         181.051 
       0.601379         420.807         177.109         177.109 
       0.607522         414.771         173.317         173.317 
       0.613639         413.439         169.657         169.657 
       0.619772         403.105         166.097         166.097 
       0.625918         402.357         162.637         162.637 
       0.632068         396.257         159.275         159.275 
       0.638161         394.781         156.041         156.041 
         0.6443         387.612         152.873         152.873 
       0.650464         384.944         149.783         149.783 
       0.656582         383.353         146.801         146.801 
       0.662703         381.062           143.9           143.9 
       0.668861         374.161         141.063         141.063 
       0.675024         370.714         138.301         138.301 
       0.681124         368.539         135.642         135.642 
       0.687237         364.754         133.049         133.049 
       0.693381         359.862         130.513         130.513 
       0.699536           356.2         128.039         128.039 
       0.705665         353.735         125.642         125.642 
       0.711789         351.071         123.309         123.309 
       0.717957         348.146         121.019         121.019 
        0.72409         345.164         118.802         118.802 
       0.730186         341.294         116.654         116.654 
       0.736317         338.165         114.549         114.549 
       0.742472         336.736         112.489         112.489 
       0.748622         333.167         110.481         110.481 
        0.75476         329.775         108.528         108.528 
       0.760888         326.035         106.626         106.626 
       0.767043         326.499         104.763         104.763 
       0.773185         322.058         102.948         102.948 
       0.779291         317.189         101.187         101.187 
       0.785407         316.234         99.4661         99.4661 
       0.791564         312.567         97.7745         97.7745 
       0.797719         310.196         96.1235         96.1235 
       0.803834          307.88         94.5216         94.5216 
       0.809972          306.24          92.951          92.951 
       0.816124         306.108         91.4131         91.4131 
       0.822261         301.252         89.9146         89.9146 
       0.828378         299.307         88.4546         88.4546 
       0.834502         297.942         87.0263         87.0263 
       0.840667         293.962         85.6206         85.6206 
       0.846816         292.453         84.2504         84.2504 
       0.852925         290.586         82.9191         82.9191 
       0.859047         288.746         81.6142         81.6142 
       0.865192         285.738         80.3335         80.3335 
       0.871341         283.499         79.0797         79.0797 
       0.877463         281.662         77.8587         77.8587 
       0.883569         280.263         76.6669         76.6669 
       0.889708         277.518         75.4943         75.4943 
       0.895864         274.343         74.3435         74.3435 
       0.902008         273.588         73.2195         73.2195 
       0.908149         272.087         72.1196         72.1196 
       0.914301         268.587         71.0408         71.0408 
       0.920448         266.726         69.9854         69.9854 
       0.926574         264.653         68.9554         68.9554 
       0.932687         264.839         67.9486         67.9486 
       0.938823         261.517         66.9585         66.9585 
       0.944975         260.312         65.9861         65.9861 
       0.951105         258.522         65.0367         65.0367 
       0.957225         256.344         64.1079         64.1079 
       0.963368          253.15         63.1943         63.1943 
       0.969511         252.094         62.2987         62.2987 
       0.975621         249.864         61.4254         61.4254 
       0.981748         250.088         60.5669         60.5669 
       0.987916         247.435         59.7195         59.7195 
        0.99406         244.474         58.8917         58.8917 
        1.00019         244.482         58.0814         58.0814 
        1.00632         242.458         57.2873         57.2873 
        1.01246           240.5          56.507          56.507 
        1.01859         240.287         55.7426         55.7426 
        1.02471         237.327         54.9935         54.9935 
        1.03085         234.949         54.2557         54.2557 
        1.03698         234.191         53.5332         53.5332 
        1.04314         232.073         52.8209         52.8209 
        1.04929         230.582         52.1233         52.1233 
        1.05541         230.353         51.4414         51.4414 
        1.06154         227.583           50.77           50.77 
        1.06769         227.082         50.1098         50.1098 
        1.07382          225.43         49.4636         49.4636 
        1.07993         223.424         48.8304         48.8304 
        1.08607         222.812         48.2057         48.2057 
        1.09222         221.309         47.5915         47.5915 
        1.09836         219.325         46.9888         46.9888 
        1.10449         217.148         46.3973         46.3973 
        1.11063         215.383         45.8155         45.8155 
        1.11677          215.09         45.2439         45.2439 
         1.1229          213.43         44.6832         44.6832 
        1.12903         212.134         44.1316         44.1316 
        1.13518         210.926          43.589          43.589 
        1.14131         209.128         43.0558         43.0558 
        1.14745         208.795          42.532          42.532 
        1.15359         207.009         42.0169         42.0169 
        1.15973         205.983         41.5102         41.5102 
        1.16584         203.846         41.0142         41.0142 
        1.17197         203.507         40.5257         40.5257 
        1.17811         201.762         40.0438         40.0438 
        1.18424         200.614         39.5711         39.5711 
        1.19038          199.94         39.1048         39.1048 
        1.19652         198.394         38.6463         38.6463 
        1.20267         197.702         38.1952         38.1952 
        1.20881         195.736         37.7514         37.7514 
        1.21495         194.865         37.3155         37.3155 
        1.22108         193.781         36.8866         36.8866 
         1.2272         192.095         36.4655         36.4655 
        1.23334         191.299         36.0501         36.0501 
        1.23949         189.967         35.6402         35.6402 
        1.24562         189.019         35.2379         35.2379 
        1.25174         186.923         34.8425         34.8425 
        1.25789         185.877          34.452          34.452 
        1.26402         184.914         34.0683         34.0683 
        1.27014         183.627         33.6914         33.6914 
        1.27628         182.742         33.3191         33.3191 
        1.28244          182.37         32.9518         32.9518 
        1.28858         180.661         32.5905         32.5905 
        1.29471         178.962         32.2355         32.2355 
        1.30084           178.3         31.8862         31.8862 
        1.30697         177.068         31.5415         31.5415 
        1.31312          176.06         31.2015         31.2015 
        1.31925         175.264         30.8676         30.8676 
        1.32537         174.152          30.539          30.539 
        1.33151         172.528          30.214          30.214 
        1.33765         171.896          29.894          29.894 
        1.34378         170.865         29.5793         29.5793 
        1.34992           170.1         29.2689         29.2689 
        1.35606         169.558         28.9624         28.9624 
         1.3622         168.046         28.6608         28.6608 
        1.36833         166.641         28.3643         28.3643 
        1.37445         165.626         28.0722         28.0722 
        1.38059         164.823         27.7833         27.7833 
        1.38675         163.949         27.4978         27.4978 
        1.39288         163.038         27.2175         27.2175 
        1.39901         162.799         26.9413         26.9413 
        1.40515         161.108         26.6684         26.6684 
         1.4113         159.777         26.3993         26.3993 
        1.41742         159.128          26.135          26.135 
        1.42355         158.047         25.8739         25.8739 
         1.4297         157.205         25.6156         25.6156 
        1.43585         155.861         25.3609         25.3609 
        1.44198         155.428         25.1107         25.1107 
        1.44809         154.566         24.8644         24.8644 
        1.45423         153.393         24.6205         24.6205 
        1.46036         152.638         24.3804         24.3804 
        1.46649         151.523         24.1433         24.1433 
        1.47263         150.827         23.9093         23.9093 
        1.47877         150.107         23.6785         23.6785 
        1.48491         148.479         23.4505         23.4505 
        1.49104         148.377         23.2259         23.2259 
        1.49718         146.685         23.0041         23.0041 
        1.50333         146.234         22.7849         22.7849 
        1.50947         145.613         22.5691         22.5691 
         1.5156         144.476         22.3563         22.3563 
        1.52172         143.551         22.1464         22.1464 
        1.52787         142.686         21.9387         21.9387 
          1.534         142.024         21.7339         21.7339 
        1.54013         140.937         21.5321         21.5321 
        1.54627         140.395         21.3324         21.3324 
        1.55241         139.264         21.1352         21.1352 
        1.55855         138.607         20.9409         20.9409 
        1.56467         137.949         20.7495         20.7495 
         1.5708         136.973           20.56           20.56 
        1.57695         136.255         20.3726         20.3726 
        1.58308         135.587          20.188          20.188 
        1.58922         134.899         20.0055         20.0055 
        1.59535         133.738         19.8254         19.8254 
         1.6015         133.279         19.6473         19.6473 
        1.60764         132.428         19.4714         19.4714 
        1.61376         131.809         19.2982         19.2982 
        1.61989         130.757          19.127          19.127 
        1.62604         130.173         18.9575         18.9575 
        1.63218         129.439         18.7902         18.7902 
        1.63831         128.454         18.6253         18.6253 
        1.64444         128.082         18.4624         18.4624 
        1.65059         127.414          18.301          18.301 
        1.65673          126.08         18.1417         18.1417 
        1.66285         125.986         17.9848         17.9848 
        1.66898         125.108         17.8297         17.8297 
        1.67512         124.533         17.6761         17.6761 
        1.68127         123.483         17.5243         17.5243 
         1.6874         122.424         17.3745         17.3745 
        1.69353          122.14         17.2266         17.2266 
        1.69967         121.505         17.0801         17.0801 
        1.70581         120.722         16.9354         16.9354 
        1.71193         120.097         16.7929         16.7929 
        1.71806         119.437         16.6518         16.6518 
        1.72421         118.666          16.512          16.512 
        1.73035         118.252          16.374          16.374 
        1.73649         117.403         16.2376         16.2376 
        1.74262         116.615         16.1028         16.1028 
        1.74876         116.262         15.9696         15.9696 
        1.75489          115.16         15.8381         15.8381 
        1.76101         114.709         15.7081         15.7081 
        1.76715         113.841         15.5795         15.5795 
        1.77329         113.641         15.4521         15.4521 
        1.77943         112.589         15.3261         15.3261 
        1.78557         112.027         15.2017         15.2017 
        1.79171         111.376         15.0787         15.0787 
        1.79785         110.723          14.957          14.957 
        1.80399         110.094         14.8367         14.8367 
        1.81012         109.559         14.7179         14.7179 
        1.81625          108.82         14.6005         14.6005 
        1.82239         108.531         14.4842         14.4842 
        1.82853         107.932         14.3692         14.3692 
        1.83466         107.045         14.2556         14.2556 
        1.84078         106.746         14.1433         14.1433 
        1.84692         105.833         14.0321         14.0321 
        1.85306           105.3         13.9219         13.9219 
         1.8592          104.62         13.8131         13.8131 
        1.86533          104.01         13.7055         13.7055 
        1.87147         103.277          13.599          13.599 
