# k  (h/Mpc)    P(k)  (Mpc/h)^3    P_linear(k)  (Mpc/h)^3     P_NL(k)  ShotnoiseSubtracted = false
     0.00783031         5371.17          5435.2          5435.2 
       0.013688         6898.86         6872.44         6872.44 
       0.019231         7091.84         7083.93         7083.93 
      0.0249154         6590.02         6671.95         6671.95 
      0.0312784         5880.75         5911.17         5911.17 
      0.0375637         5164.42         5157.89         5157.89 
      0.0433917         4544.73         4588.61         4588.61 
      0.0492413         4149.87         4164.29         4164.29 
      0.0555754         3766.54         3831.69         3831.69 
      0.0619321         3574.46         3563.78         3563.78 
       0.067871          3271.4         3319.59         3319.59 
      0.0738098         3008.16         3054.72         3054.72 
      0.0800417         2696.39         2756.18         2756.18 
      0.0862327         2429.48         2461.54         2461.54 
      0.0921407         2201.05         2208.16         2208.16 
      0.0982031         1978.89         1994.55         1994.55 
       0.104506         1848.75         1827.19         1827.19 
       0.110769         1723.15         1707.27         1707.27 
       0.116806         1620.74         1619.11         1619.11 
       0.122832          1551.3         1540.64         1540.64 
       0.129052         1446.56         1455.84         1455.84 
       0.135211         1358.05         1362.13         1362.13 
       0.141259         1278.32         1262.91         1262.91 
       0.147318         1190.84          1163.7          1163.7 
       0.153489         1091.32         1071.26         1071.26 
       0.159709         1024.94         992.956         992.956 
       0.165845         979.824         931.999         931.999 
       0.171974           923.2         884.942         884.942 
       0.178125         883.973         846.726         846.726 
       0.184229          851.58         812.292         812.292 
        0.19034         797.835         777.031         777.031 
       0.196428         777.014         739.093         739.093 
       0.202534         747.099          698.59          698.59 
       0.208729         704.378         657.099         657.099 
       0.214876         662.944          618.18          618.18 
       0.220989          640.57         583.769         583.769 
       0.227147         604.691         554.348         554.348 
        0.23329         581.414          529.88          529.88 
       0.239377         567.583         509.175         509.175 
       0.245482         533.095          490.33          490.33 
       0.251667         525.767         471.743         471.743 
       0.257832         507.203         452.817         452.817 
       0.263955         488.143         433.487         433.487 
       0.270079         470.041         414.054         414.054 
        0.27624         460.972         395.127         395.127 
       0.282372         441.735         377.611         377.611 
        0.28843         427.255         361.988         361.988 
       0.294538         408.809         347.989         347.989 
       0.300721         404.718         335.332         335.332 
        0.30691         386.442          323.72          323.72 
       0.313033         377.435         312.797         312.797 
       0.319153         363.199         302.099         302.099 
       0.325316         354.139         291.388         291.388 
        0.33145          342.61         280.829         280.829 
       0.337538         337.355         270.606         270.606 
       0.343633         326.085         260.832         260.832 
       0.349808         315.972         251.545         251.545 
       0.355968         310.933         242.973         242.973 
       0.362074         303.042         235.108         235.108 
       0.368217         295.008         227.729         227.729 
       0.374374         285.291         220.722         220.722 
       0.380519         280.414         213.985         213.985 
       0.386598         273.404         207.502         207.502 
       0.392688         269.812         201.152         201.152 
        0.39888         262.659         194.868         194.868 
       0.405048         256.757         188.832         188.832 
       0.411186         251.174         183.085         183.085 
       0.417313         246.115         177.639         177.639 
       0.423458         241.069         172.474         172.474 
       0.429607         235.409         167.572         167.572 
       0.435692         228.643          162.95          162.95 
       0.441815         226.992         158.487         158.487 
       0.447964         222.978         154.158         154.158 
       0.454126         213.732          149.95          149.95 
       0.460267         211.403         145.886         145.886 
       0.466387         208.574         141.965         141.965 
        0.47254          204.23         138.161         138.161 
       0.478662         202.331         134.522         134.522 
       0.484765         196.834         131.045         131.045 
       0.490885         193.809         127.701         127.701 
       0.497035         191.147         124.473         124.473 
       0.503198         186.104          121.36          121.36 
       0.509342         183.435         118.366         118.366 
       0.515458          180.97         115.483         115.483 
       0.521598         178.506         112.677         112.677 
       0.527764         175.653         109.945         109.945 
       0.533884         172.843         107.321         107.321 
           0.54         170.126         104.787         104.787 
       0.546137         168.769         102.329         102.329 
       0.552299         165.976         99.9451         99.9451 
       0.558452         162.854         97.6458         97.6458 
       0.564573         159.984         95.4346         95.4346 
       0.570708         157.769         93.2904         93.2904 
       0.576825         155.594           91.22           91.22 
       0.582926         153.091         89.2175         89.2175 
       0.589034         150.542          87.271          87.271 
       0.595184         148.907         85.3686         85.3686 
       0.601379         147.484         83.5098         83.5098 
       0.607522         143.946         81.7221         81.7221 
       0.613639         143.629          79.996          79.996 
       0.619772         140.375         78.3178         78.3178 
       0.625918         138.979          76.686          76.686 
       0.632068         137.475         75.1011         75.1011 
       0.638161         136.042         73.5758         73.5758 
         0.6443         134.191         72.0823         72.0823 
       0.650464         132.599         70.6252         70.6252 
       0.656582          131.04         69.2192         69.2192 
       0.662703         128.792         67.8515         67.8515 
       0.668861         127.425         66.5135         66.5135 
       0.675024         125.892         65.2112         65.2112 
       0.681124         124.734         63.9575         63.9575 
       0.687237         122.526         62.7349         62.7349 
       0.693381         121.118         61.5391         61.5391 
       0.699536          119.91         60.3728         60.3728 
       0.705665         120.277         59.2422         59.2422 
       0.711789         117.053         58.1421         58.1421 
       0.717957         116.535         57.0627         57.0627 
        0.72409         114.862         56.0172         56.0172 
       0.730186         112.968         55.0046         55.0046 
       0.736317         112.729         54.0118         54.0118 
       0.742472         111.514         53.0403         53.0403 
       0.748622         110.567         52.0939         52.0939 
        0.75476         109.369          51.173          51.173 
       0.760888         107.899          50.276          50.276 
       0.767043         106.924         49.3973         49.3973 
       0.773185         105.777         48.5418         48.5418 
       0.779291         104.808         47.7116         47.7116 
       0.785407          104.02            46.9            46.9 
       0.791564         102.707         46.1024         46.1024 
       0.797719         101.349         45.3239         45.3239 
       0.803834         100.943         44.5686         44.5686 
       0.809972         99.2407          43.828          43.828 
       0.816124         98.7664         43.1029         43.1029 
       0.822261         97.9462         42.3963         42.3963 
       0.828378         96.9995         41.7079         41.7079 
       0.834502         96.2209         41.0344         41.0344 
       0.840667         95.2596         40.3716         40.3716 
       0.846816         94.2222         39.7255         39.7255 
       0.852925         93.3623         39.0978         39.0978 
       0.859047         92.1867         38.4825         38.4825 
       0.865192         91.8523         37.8786         37.8786 
       0.871341         91.1187         37.2874         37.2874 
       0.877463         89.7878         36.7117         36.7117 
       0.883569         89.2439         36.1498         36.1498 
       0.889708          88.736         35.5969         35.5969 
       0.895864         87.9009         35.0543         35.0543 
       0.902008         87.2231         34.5242         34.5242 
       0.908149         86.5826         34.0056         34.0056 
       0.914301         85.6554          33.497          33.497 
       0.920448         85.0475         32.9993         32.9993 
       0.926574         84.3822         32.5137         32.5137 
       0.932687         83.8986         32.0389         32.0389 
       0.938823         82.6466         31.5721         31.5721 
       0.944975         82.3692         31.1136         31.1136 
       0.951105         81.5816         30.6659         30.6659 
       0.957225          80.571          30.228          30.228 
       0.963368         80.3804         29.7972         29.7972 
       0.969511         79.8604         29.3749         29.3749 
       0.975621          79.325         28.9632         28.9632 
       0.981748         78.5143         28.5583         28.5583 
       0.987916         77.9424         28.1588         28.1588 
        0.99406         77.5278         27.7685         27.7685 
        1.00019         76.5432         27.3864         27.3864 
        1.00632         76.3045          27.012          27.012 
        1.01246         75.5491          26.644          26.644 
        1.01859         74.6252         26.2836         26.2836 
        1.02471         74.9181         25.9304         25.9304 
        1.03085         74.0189         25.5825         25.5825 
        1.03698         73.3667         25.2418         25.2418 
        1.04314         72.6449          24.906          24.906 
        1.04929         72.3639         24.5771         24.5771 
        1.05541         71.6856         24.2555         24.2555 
        1.06154         71.4716          23.939          23.939 
        1.06769         70.8273         23.6276         23.6276 
        1.07382          70.536          23.323          23.323 
        1.07993         70.1788         23.0244         23.0244 
        1.08607         69.4541         22.7298         22.7298 
        1.09222         69.1359         22.4402         22.4402 
        1.09836         68.6228          22.156          22.156 
        1.10449         68.1266         21.8771         21.8771 
        1.11063         67.4831         21.6028         21.6028 
        1.11677         67.1127         21.3333         21.3333 
         1.1229         66.7732         21.0689         21.0689 
        1.12903         65.8493         20.8088         20.8088 
        1.13518         66.0138          20.553          20.553 
        1.14131         65.6513         20.3016         20.3016 
        1.14745         64.7456         20.0546         20.0546 
        1.15359         64.6218         19.8117         19.8117 
        1.15973         64.0285         19.5728         19.5728 
        1.16584         63.6039         19.3389         19.3389 
        1.17197         63.2904         19.1086         19.1086 
        1.17811         62.9204         18.8813         18.8813 
        1.18424         62.2976         18.6585         18.6585 
        1.19038         62.1312         18.4386         18.4386 
        1.19652         61.8322         18.2224         18.2224 
        1.20267         61.3303         18.0097         18.0097 
        1.20881         60.9343         17.8005         17.8005 
        1.21495         60.4485         17.5949         17.5949 
        1.22108         60.0816         17.3927         17.3927 
         1.2272          59.554         17.1941         17.1941 
        1.23334         59.3408         16.9982         16.9982 
        1.23949         59.1769          16.805          16.805 
        1.24562         58.7538         16.6153         16.6153 
        1.25174         58.4491         16.4289         16.4289 
        1.25789         58.0998         16.2447         16.2447 
        1.26402         57.6408         16.0638         16.0638 
        1.27014         57.1243         15.8861         15.8861 
        1.27628         56.9845         15.7105         15.7105 
        1.28244         56.4735         15.5373         15.5373 
        1.28858         56.2791          15.367          15.367 
        1.29471         56.1012         15.1996         15.1996 
        1.30084         55.6902         15.0349         15.0349 
        1.30697         55.2337         14.8724         14.8724 
        1.31312         54.8763         14.7121         14.7121 
        1.31925         54.7547         14.5546         14.5546 
        1.32537         54.4298         14.3997         14.3997 
        1.33151         53.9946         14.2464         14.2464 
        1.33765         53.8835         14.0955         14.0955 
        1.34378         53.5481         13.9471         13.9471 
        1.34992         52.9484         13.8008         13.8008 
        1.35606          52.715         13.6563         13.6563 
         1.3622         52.3951         13.5141         13.5141 
        1.36833         52.2143         13.3743         13.3743 
        1.37445         52.0452         13.2365         13.2365 
        1.38059         51.7386         13.1003         13.1003 
        1.38675         51.3644         12.9657         12.9657 
        1.39288         51.1038         12.8335         12.8335 
        1.39901         50.7476         12.7033         12.7033 
        1.40515         50.5252         12.5746         12.5746 
         1.4113         50.3627         12.4477         12.4477 
        1.41742         49.9158         12.3231         12.3231 
        1.42355         49.7228            12.2            12.2 
         1.4297         49.3726         12.0782         12.0782 
        1.43585         49.2612         11.9581         11.9581 
        1.44198         48.9284         11.8402         11.8402 
        1.44809         48.6701          11.724          11.724 
        1.45423         48.5138          11.609          11.609 
        1.46036          48.191         11.4958         11.4958 
        1.46649         47.8988          11.384          11.384 
        1.47263         47.6565         11.2737         11.2737 
        1.47877         47.5053         11.1648         11.1648 
        1.48491         47.2473         11.0573         11.0573 
        1.49104         46.9355         10.9514         10.9514 
        1.49718         46.5609         10.8468         10.8468 
        1.50333         46.4333         10.7435         10.7435 
        1.50947          46.174         10.6417         10.6417 
         1.5156         45.8971         10.5414         10.5414 
        1.52172         45.6418         10.4424         10.4424 
        1.52787         45.6205         10.3445         10.3445 
          1.534         45.2417         10.2479         10.2479 
        1.54013         44.9839         10.1527         10.1527 
        1.54627          44.882         10.0586         10.0586 
        1.55241         44.5877         9.96563         9.96563 
        1.55855         44.2888         9.87399         9.87399 
        1.56467         43.9626         9.78375         9.78375 
         1.5708         43.9357          9.6944          9.6944 
        1.57695         43.5958         9.60603         9.60603 
        1.58308         43.5589         9.51898         9.51898 
        1.58922         43.3602         9.43295         9.43295 
        1.59535         43.0371         9.34802         9.34802 
         1.6015          42.786         9.26403         9.26403 
        1.60764         42.6507         9.18112         9.18112 
        1.61376         42.4522         9.09946         9.09946 
        1.61989         42.0451         9.01873         9.01873 
        1.62604         41.9922         8.93881         8.93881 
        1.63218         41.7482         8.85992         8.85992 
        1.63831         41.5507         8.78217         8.78217 
        1.64444         41.4022         8.70533         8.70533 
        1.65059         41.0161         8.62923         8.62923 
        1.65673         40.8865         8.55413         8.55413 
        1.66285         40.7292         8.48014         8.48014 
        1.66898         40.4708         8.40701         8.40701 
        1.67512         40.3013         8.33461         8.33461 
        1.68127         40.0269           8.263           8.263 
         1.6874         39.9523         8.19239         8.19239 
        1.69353         39.6827         8.12266         8.12266 
        1.69967         39.5364         8.05358         8.05358 
        1.70581         39.3916         7.98534         7.98534 
        1.71193         39.1257         7.91816         7.91816 
        1.71806          38.919          7.8516          7.8516 
        1.72421         38.6942         7.78569         7.78569 
        1.73035         38.5272         7.72061         7.72061 
        1.73649         38.3605          7.6563          7.6563 
        1.74262         38.1509         7.59277         7.59277 
        1.74876         38.1361         7.52993         7.52993 
        1.75489         37.7961         7.46793         7.46793 
        1.76101         37.6333         7.40666         7.40666 
        1.76715         37.4421         7.34599         7.34599 
        1.77329         37.2643         7.28593         7.28593 
        1.77943         37.1499         7.22653         7.22653 
        1.78557         36.9433         7.16788         7.16788 
        1.79171          36.743         7.10987         7.10987 
        1.79785         36.5658          7.0525          7.0525 
        1.80399          36.413         6.99578         6.99578 
        1.81012         36.3061         6.93976         6.93976 
        1.81625         36.0458         6.88439         6.88439 
        1.82239         35.9418         6.82954         6.82954 
        1.82853         35.6405         6.77532         6.77532 
        1.83466         35.5267         6.72175         6.72175 
        1.84078         35.2765         6.66881         6.66881 
        1.84692         35.1944         6.61637         6.61637 
        1.85306         34.9999         6.56443         6.56443 
         1.8592         34.8479         6.51313         6.51313 
        1.86533         34.6166         6.46241         6.46241 
        1.87147         34.5274         6.41217         6.41217 
        1.87761         34.4551         6.36245         6.36245 
