# k  (h/Mpc)    Pcb(k)  (Mpc/h)^3    Pcb_linear(k) (Mpc/h)^3    Pcb_NL(k) (Mpc/h)^3   ShotnoiseSubtracted = false
     0.00783031         796.464         804.117         804.117 
       0.013688         1015.49         1017.29         1017.29 
       0.019231         1048.64         1048.82         1048.82 
      0.0249154         982.875          987.94          987.94 
      0.0312784         874.604         875.354         875.354 
      0.0375637         765.527         763.841         763.841 
      0.0433917         678.595         679.554         679.554 
      0.0492413          617.17         616.726         616.726 
      0.0555754         565.247         567.477         567.477 
      0.0619321         529.615         527.806         527.806 
       0.067871         490.143         491.645         491.645 
      0.0738098         450.698         452.421         452.421 
      0.0800417         405.783         408.207         408.207 
      0.0862327         363.578         364.571         364.571 
      0.0921407         326.996         327.045         327.045 
      0.0982031         294.685         295.409         295.409 
       0.104506         271.812         270.622         270.622 
       0.110769          253.65         252.862         252.862 
       0.116806         239.276         239.805         239.805 
       0.122832         228.543         228.182         228.182 
       0.129052         214.902         215.624         215.624 
       0.135211         200.981         201.744         201.744 
       0.141259         187.268          187.05          187.05 
       0.147318         173.327         172.355         172.355 
       0.153489         159.153         158.664         158.664 
       0.159709           147.8         147.067         147.067 
       0.165845         139.796         138.038         138.038 
       0.171974          131.74         131.069         131.069 
       0.178125         126.207         125.409         125.409 
       0.184229          121.39         120.309         120.309 
        0.19034         115.078         115.086         115.086 
       0.196428         110.236         109.468         109.468 
       0.202534         105.078         103.469         103.469 
       0.208729         98.5239         97.3234         97.3234 
       0.214876         92.3135         91.5592         91.5592 
       0.220989         88.1835         86.4625         86.4625 
       0.227147         82.9811          82.105          82.105 
        0.23329         79.4151         78.4809         78.4809 
       0.239377         76.5622         75.4143         75.4143 
       0.245482         73.2616         72.6232         72.6232 
       0.251667         71.1009         69.8702         69.8702 
       0.257832         68.2219         67.0672         67.0672 
       0.263955         65.3742         64.2043         64.2043 
       0.270079           62.62          61.326          61.326 
        0.27624         60.2834         58.5227         58.5227 
       0.282372         57.6679         55.9284         55.9284 
        0.28843         55.1045         53.6144         53.6144 
       0.294538         53.0047         51.5411         51.5411 
       0.300721         51.4792         49.6664         49.6664 
        0.30691         49.3995         47.9465         47.9465 
       0.313033         47.8023         46.3288         46.3288 
       0.319153         45.6831         44.7443         44.7443 
       0.325316         44.7887         43.1578         43.1578 
        0.33145         43.0626         41.5939         41.5939 
       0.337538         41.6474         40.0798         40.0798 
       0.343633         40.0922         38.6322         38.6322 
       0.349808         38.8328         37.2568         37.2568 
       0.355968         37.6049         35.9871         35.9871 
       0.362074         36.3825         34.8222         34.8222 
       0.368217         35.2892         33.7292         33.7292 
       0.374374         34.1178         32.6914         32.6914 
       0.380519         33.2472         31.6936         31.6936 
       0.386598         32.3113         30.7333         30.7333 
       0.392688         31.5034         29.7929         29.7929 
        0.39888         30.4928         28.8622         28.8622 
       0.405048         29.6723         27.9681         27.9681 
       0.411186          28.882          27.117          27.117 
       0.417313         27.8996         26.3104         26.3104 
       0.423458         27.1813         25.5454         25.5454 
       0.429607         26.3814         24.8193         24.8193 
       0.435692         25.6396         24.1347         24.1347 
       0.441815         25.0569         23.4738         23.4738 
       0.447964         24.5722         22.8325         22.8325 
       0.454126         23.6921         22.2093         22.2093 
       0.460267         23.1522         21.6073         21.6073 
       0.466387          22.447         21.0267         21.0267 
        0.47254         22.0156         20.4632         20.4632 
       0.478662         21.5432         19.9242         19.9242 
       0.484765         20.9274         19.4092         19.4092 
       0.490885         20.4192          18.914          18.914 
       0.497035         20.0998         18.4358         18.4358 
       0.503198         19.5647         17.9748         17.9748 
       0.509342         19.0965         17.5314         17.5314 
       0.515458         18.6164         17.1044         17.1044 
       0.521598         18.2447         16.6887         16.6887 
       0.527764         17.7979         16.2842         16.2842 
       0.533884         17.4758         15.8955         15.8955 
           0.54         17.0758         15.5201         15.5201 
       0.546137         16.7405         15.1561         15.1561 
       0.552299         16.4052          14.803          14.803 
       0.558452         15.9116         14.4625         14.4625 
       0.564573         15.6792          14.135          14.135 
       0.570708          15.366         13.8174         13.8174 
       0.576825         14.9629         13.5107         13.5107 
       0.582926         14.7054         13.2141         13.2141 
       0.589034         14.2766         12.9258         12.9258 
       0.595184         14.0546         12.6441         12.6441 
       0.601379         13.7544         12.3688         12.3688 
       0.607522         13.5382          12.104          12.104 
       0.613639         13.3469         11.8483         11.8483 
       0.619772         12.9887         11.5998         11.5998 
       0.625918         12.8463         11.3581         11.3581 
       0.632068         12.6322         11.1233         11.1233 
       0.638161         12.3194         10.8974         10.8974 
         0.6443         12.0673         10.6762         10.6762 
       0.650464         11.8128         10.4604         10.4604 
       0.656582            11.7         10.2522         10.2522 
       0.662703         11.4781         10.0496         10.0496 
       0.668861         11.2684         9.85142         9.85142 
       0.675024         11.0324         9.65853         9.65853 
       0.681124          10.835         9.47285         9.47285 
       0.687237         10.6646         9.29177         9.29177 
       0.693381         10.5042         9.11465         9.11465 
       0.699536         10.2197         8.94191         8.94191 
       0.705665         10.0914         8.77446         8.77446 
       0.711789         9.92255         8.61152         8.61152 
       0.717957         9.74703         8.45166         8.45166 
        0.72409         9.57705          8.2968          8.2968 
       0.730186         9.44508         8.14682         8.14682 
       0.736317         9.33396         7.99978         7.99978 
       0.742472         9.17885         7.85588         7.85588 
       0.748622         9.01666         7.71571         7.71571 
        0.75476          8.8121         7.57931         7.57931 
       0.760888         8.70805         7.44647         7.44647 
       0.767043         8.59846         7.31632         7.31632 
       0.773185         8.41595          7.1896          7.1896 
       0.779291         8.33246         7.06665         7.06665 
       0.785407         8.19502         6.94643         6.94643 
       0.791564         8.05949         6.82829         6.82829 
       0.797719         7.93018           6.713           6.713 
       0.803834         7.85019         6.60113         6.60113 
       0.809972          7.7528         6.49144         6.49144 
       0.816124         7.58383         6.38404         6.38404 
       0.822261         7.46474         6.27938         6.27938 
       0.828378         7.37707         6.17742         6.17742 
       0.834502         7.29836         6.07767         6.07767 
       0.840667          7.1558          5.9795          5.9795 
       0.846816         7.03706         5.88381         5.88381 
       0.852925         6.97063         5.79084         5.79084 
       0.859047         6.87072         5.69971         5.69971 
       0.865192         6.79627         5.61026         5.61026 
       0.871341         6.70977          5.5227          5.5227 
       0.877463          6.6088         5.43743         5.43743 
       0.883569         6.48967          5.3542          5.3542 
       0.889708         6.38313         5.27231         5.27231 
       0.895864         6.32299         5.19195         5.19195 
       0.902008         6.23775         5.11344         5.11344 
       0.908149         6.16339         5.03663         5.03663 
       0.914301         6.05918         4.96129         4.96129 
       0.920448         5.97222         4.88759         4.88759 
       0.926574         5.89141         4.81565         4.81565 
       0.932687         5.83465         4.74534         4.74534 
       0.938823         5.75697         4.67619         4.67619 
       0.944975         5.67494         4.60828         4.60828 
       0.951105         5.61462         4.54198         4.54198 
       0.957225         5.58009         4.47712         4.47712 
       0.963368         5.49066         4.41331         4.41331 
       0.969511         5.41791         4.35077         4.35077 
       0.975621         5.34026         4.28978         4.28978 
       0.981748         5.28636         4.22982         4.22982 
       0.987916         5.22194         4.17065         4.17065 
        0.99406         5.13466         4.11284         4.11284 
        1.00019         5.06796         4.05625         4.05625 
        1.00632         5.02721         4.00079         4.00079 
        1.01246         4.97008         3.94629         3.94629 
        1.01859         4.90373         3.89291         3.89291 
        1.02471         4.84637         3.84059         3.84059 
        1.03085         4.79103         3.78907         3.78907 
        1.03698         4.72392         3.73861         3.73861 
        1.04314         4.67918         3.68886         3.68886 
        1.04929         4.61706         3.64015         3.64015 
        1.05541         4.56316         3.59252         3.59252 
        1.06154         4.51696         3.54564         3.54564 
        1.06769          4.4832         3.49953         3.49953 
        1.07382         4.41229          3.4544          3.4544 
        1.07993         4.35438         3.41018         3.41018 
        1.08607         4.32729         3.36656         3.36656 
        1.09222         4.27339         3.32366         3.32366 
        1.09836         4.23323         3.28157         3.28157 
        1.10449         4.18291         3.24026         3.24026 
        1.11063         4.13316         3.19963         3.19963 
        1.11677         4.09168         3.15971         3.15971 
         1.1229         4.04565         3.12055         3.12055 
        1.12903         3.99872         3.08203         3.08203 
        1.13518         3.96207         3.04413         3.04413 
        1.14131         3.90287          3.0069          3.0069 
        1.14745         3.84915         2.97032         2.97032 
        1.15359         3.83011         2.93435         2.93435 
        1.15973         3.77635         2.89896         2.89896 
        1.16584         3.74815         2.86432         2.86432 
        1.17197          3.7071         2.83021         2.83021 
        1.17811         3.67224         2.79655         2.79655 
        1.18424         3.64332         2.76354         2.76354 
        1.19038          3.6044         2.73097         2.73097 
        1.19652         3.56658         2.69895         2.69895 
        1.20267         3.52919         2.66745         2.66745 
        1.20881         3.49073         2.63646         2.63646 
        1.21495         3.46303         2.60601         2.60601 
        1.22108         3.42541         2.57606         2.57606 
         1.2272         3.40197         2.54665         2.54665 
        1.23334         3.35322         2.51764         2.51764 
        1.23949         3.31912         2.48902         2.48902 
        1.24562         3.29967         2.46092         2.46092 
        1.25174         3.25516         2.43331         2.43331 
        1.25789          3.2304         2.40604         2.40604 
        1.26402          3.1927         2.37924         2.37924 
        1.27014           3.161         2.35291         2.35291 
        1.27628          3.1431         2.32691         2.32691 
        1.28244         3.09876         2.30126         2.30126 
        1.28858         3.08076         2.27603         2.27603 
        1.29471          3.0458         2.25124         2.25124 
        1.30084         3.01426         2.22684         2.22684 
        1.30697         3.00165         2.20278         2.20278 
        1.31312         2.94614         2.17903         2.17903 
        1.31925         2.93409         2.15571         2.15571 
        1.32537         2.90573         2.13276         2.13276 
        1.33151         2.88815         2.11007         2.11007 
        1.33765         2.84805         2.08772         2.08772 
        1.34378         2.82352         2.06574         2.06574 
        1.34992         2.81048         2.04406         2.04406 
        1.35606         2.76916         2.02265         2.02265 
         1.3622         2.75576         2.00159         2.00159 
        1.36833         2.72881         1.98089         1.98089 
        1.37445         2.70204         1.96048         1.96048 
        1.38059         2.68516         1.94031         1.94031 
        1.38675         2.66777         1.92037         1.92037 
        1.39288         2.63382          1.9008          1.9008 
        1.39901         2.60766         1.88151         1.88151 
        1.40515         2.58876         1.86245         1.86245 
         1.4113         2.56766         1.84366         1.84366 
        1.41742         2.54722          1.8252          1.8252 
        1.42355         2.52964         1.80696         1.80696 
         1.4297          2.4988         1.78892         1.78892 
        1.43585         2.48689         1.77114         1.77114 
        1.44198         2.46881         1.75367         1.75367 
        1.44809         2.43661         1.73646         1.73646 
        1.45423         2.41788         1.71943         1.71943 
        1.46036         2.39749         1.70266         1.70266 
        1.46649         2.37601         1.68611         1.68611 
        1.47263         2.35453         1.66976         1.66976 
        1.47877         2.33192         1.65365         1.65365 
        1.48491         2.31595         1.63772         1.63772 
        1.49104         2.30123         1.62203         1.62203 
        1.49718          2.2828         1.60655         1.60655 
        1.50333         2.26281         1.59124         1.59124 
        1.50947         2.24628         1.57616         1.57616 
         1.5156         2.22767         1.56131         1.56131 
        1.52172         2.21049         1.54664         1.54664 
        1.52787         2.19155         1.53214         1.53214 
          1.534         2.17586         1.51784         1.51784 
        1.54013         2.15628         1.50374         1.50374 
        1.54627         2.13463          1.4898          1.4898 
        1.55241         2.11871         1.47603         1.47603 
        1.55855         2.10728         1.46245         1.46245 
        1.56467         2.09037         1.44909         1.44909 
         1.5708          2.0672         1.43585         1.43585 
        1.57695         2.05691         1.42277         1.42277 
        1.58308         2.03923         1.40987         1.40987 
        1.58922          2.0266         1.39713         1.39713 
        1.59535         2.01021         1.38455         1.38455 
         1.6015         1.99558         1.37211         1.37211 
        1.60764         1.98251         1.35983         1.35983 
        1.61376         1.96707         1.34774         1.34774 
        1.61989         1.94967         1.33578         1.33578 
        1.62604          1.9342         1.32394         1.32394 
        1.63218         1.92621         1.31226         1.31226 
        1.63831         1.90461         1.30074         1.30074 
        1.64444         1.89011         1.28936         1.28936 
        1.65059         1.87994         1.27809         1.27809 
        1.65673         1.86561         1.26697         1.26697 
        1.66285         1.84828         1.25601         1.25601 
        1.66898         1.83939         1.24518         1.24518 
        1.67512         1.82053         1.23445         1.23445 
        1.68127         1.80965         1.22385         1.22385 
         1.6874         1.80105         1.21339         1.21339 
        1.69353         1.77923         1.20306         1.20306 
        1.69967         1.76843         1.19283         1.19283 
        1.70581         1.76235         1.18272         1.18272 
        1.71193         1.74595         1.17277         1.17277 
        1.71806         1.73693         1.16292         1.16292 
        1.72421         1.72327         1.15315         1.15315 
        1.73035         1.70909         1.14351         1.14351 
        1.73649         1.69787         1.13399         1.13399 
        1.74262          1.6859         1.12458         1.12458 
        1.74876         1.67618         1.11527         1.11527 
        1.75489         1.66041         1.10609         1.10609 
        1.76101          1.6493         1.09701         1.09701 
        1.76715         1.63917         1.08803         1.08803 
        1.77329         1.62826         1.07913         1.07913 
        1.77943          1.6143         1.07033         1.07033 
        1.78557          1.6047         1.06165         1.06165 
        1.79171         1.59727         1.05306         1.05306 
        1.79785         1.58214         1.04456         1.04456 
        1.80399         1.57371         1.03616         1.03616 
        1.81012         1.56539         1.02786         1.02786 
        1.81625         1.55116         1.01966         1.01966 
        1.82239         1.54072         1.01154         1.01154 
        1.82853         1.52604         1.00351         1.00351 
        1.83466         1.52106        0.995571        0.995571 
        1.84078         1.51019        0.987731        0.987731 
        1.84692         1.50182        0.979963        0.979963 
        1.85306         1.48891         0.97227         0.97227 
         1.8592          1.4809        0.964672        0.964672 
        1.86533         1.46981         0.95716         0.95716 
        1.87147         1.46255        0.949719        0.949719 
