# k  (h/Mpc)    P(k)  (Mpc/h)^3    P_linear(k)  (Mpc/h)^3     P_NL(k)  ShotnoiseSubtracted = false
     0.00783031         9018.36          9137.1          9137.1 
       0.013688         11622.9         11551.2         11551.2 
       0.019231         11919.3         11905.8         11905.8 
      0.0249154         11026.4         11212.9         11212.9 
      0.0312784         9848.77         9934.04         9934.04 
      0.0375637         8662.63         8667.96         8667.96 
      0.0433917         7593.66         7711.18         7711.18 
      0.0492413         6946.77         6998.04         6998.04 
      0.0555754         6272.53         6439.07         6439.07 
      0.0619321         5986.34         5988.83         5988.83 
       0.067871         5447.61         5578.45         5578.45 
      0.0738098          5010.8         5133.34         5133.34 
      0.0800417         4481.19         4631.64         4631.64 
      0.0862327         4049.44          4136.5          4136.5 
      0.0921407         3685.44          3710.7          3710.7 
      0.0982031         3313.28         3351.74         3351.74 
       0.104506         3113.19          3070.5          3070.5 
       0.110769         2900.07         2868.97         2868.97 
       0.116806         2730.24         2720.83         2720.83 
       0.122832         2609.86         2588.95         2588.95 
       0.129052          2424.8         2446.45         2446.45 
       0.135211         2282.09         2288.97         2288.97 
       0.141259         2159.33         2122.24         2122.24 
       0.147318         2018.77         1955.52         1955.52 
       0.153489         1850.08         1800.18         1800.18 
       0.159709          1747.4          1668.6          1668.6 
       0.165845         1679.32         1566.16         1566.16 
       0.171974         1586.65         1487.09         1487.09 
       0.178125         1516.37         1422.87         1422.87 
       0.184229         1459.37            1365            1365 
        0.19034         1368.01         1305.75         1305.75 
       0.196428         1338.31         1241.99         1241.99 
       0.202534         1287.67         1173.93         1173.93 
       0.208729         1220.34         1104.21         1104.21 
       0.214876         1157.02         1038.81         1038.81 
       0.220989         1120.04         980.983         980.983 
       0.227147         1064.36         931.544         931.544 
        0.23329         1024.54         890.426         890.426 
       0.239377         1005.58         855.632         855.632 
       0.245482          941.99         823.965         823.965 
       0.251667         933.792         792.731         792.731 
       0.257832         899.176         760.927         760.927 
       0.263955         868.478         728.444         728.444 
       0.270079         837.704         695.788         695.788 
        0.27624         826.758         663.983         663.983 
       0.282372          791.64         634.549         634.549 
        0.28843         775.996         608.295         608.295 
       0.294538         738.814         584.771         584.771 
       0.300721         735.776         563.501         563.501 
        0.30691         702.902         543.988         543.988 
       0.313033         689.283         525.633         525.633 
       0.319153         670.642         507.656         507.656 
       0.325316         650.494         489.656         489.656 
        0.33145          632.67         471.913         471.913 
       0.337538         624.236         454.734         454.734 
       0.343633         605.154          438.31          438.31 
       0.349808         585.427         422.704         422.704 
       0.355968         580.991         408.299         408.299 
       0.362074         570.638         395.082         395.082 
       0.368217         555.036         382.681         382.681 
       0.374374          532.63         370.907         370.907 
       0.380519          529.25         359.586         359.586 
       0.386598         516.477         348.692         348.692 
       0.392688          513.52         338.021         338.021 
        0.39888         498.842         327.461         327.461 
       0.405048         489.045         317.318         317.318 
       0.411186         480.339         307.661         307.661 
       0.417313         471.743         298.509         298.509 
       0.423458         463.339          289.83          289.83 
       0.429607         454.365         281.592         281.592 
       0.435692         443.756         273.825         273.825 
       0.441815         440.638         266.326         266.326 
       0.447964         431.601         259.051         259.051 
       0.454126         419.355          251.98          251.98 
       0.460267         413.744          245.15          245.15 
       0.466387         409.245         238.562         238.562 
        0.47254         400.542         232.169         232.169 
       0.478662         399.544         226.054         226.054 
       0.484765         387.475         220.211         220.211 
       0.490885         383.321         214.592         214.592 
       0.497035         376.816         209.167         209.167 
       0.503198         370.064         203.937         203.937 
       0.509342          367.13         198.905         198.905 
       0.515458         363.272         194.061         194.061 
       0.521598         356.085         189.345         189.345 
       0.527764         349.623         184.755         184.755 
       0.533884         347.063         180.346         180.346 
           0.54         342.373         176.086         176.086 
       0.546137         340.818         171.956         171.956 
       0.552299         333.912          167.95          167.95 
       0.558452         331.407         164.087         164.087 
       0.564573         326.213         160.371         160.371 
       0.570708         320.597         156.768         156.768 
       0.576825         315.478         153.288         153.288 
       0.582926         312.967         149.923         149.923 
       0.589034         309.592         146.653         146.653 
       0.595184         306.534         143.456         143.456 
       0.601379         303.408         140.332         140.332 
       0.607522         298.154         137.328         137.328 
       0.613639         296.627         134.427         134.427 
       0.619772         289.584         131.607         131.607 
       0.625918         288.449         128.865         128.865 
       0.632068         284.299         126.202         126.202 
       0.638161         283.113         123.639         123.639 
         0.6443         278.231         121.129         121.129 
       0.650464         275.762          118.68          118.68 
       0.656582         274.313         116.318         116.318 
       0.662703         271.912         114.019         114.019 
       0.668861          267.22         111.771         111.771 
       0.675024         264.304         109.583         109.583 
       0.681124         263.259         107.476         107.476 
       0.687237           259.8         105.421         105.421 
       0.693381         256.068         103.412         103.412 
       0.699536         254.243         101.452         101.452 
       0.705665         252.589         99.5522         99.5522 
       0.711789         249.384         97.7035         97.7035 
       0.717957         247.825         95.8897         95.8897 
        0.72409         245.118         94.1328         94.1328 
       0.730186         242.188         92.4311         92.4311 
       0.736317         240.017         90.7629         90.7629 
       0.742472         238.829         89.1303         89.1303 
       0.748622         236.769           87.54           87.54 
        0.75476         234.712         85.9924         85.9924 
       0.760888         231.593         84.4852         84.4852 
       0.767043         231.252         83.0086         83.0086 
       0.773185         228.521         81.5709         81.5709 
       0.779291         224.506         80.1759         80.1759 
       0.785407          223.93          78.812          78.812 
       0.791564         221.746         77.4716         77.4716 
       0.797719         219.311         76.1635         76.1635 
       0.803834         218.139         74.8942         74.8942 
       0.809972         216.134         73.6497         73.6497 
       0.816124         216.222         72.4312         72.4312 
       0.822261           212.9         71.2438         71.2438 
       0.828378         211.209          70.087          70.087 
       0.834502         211.063         68.9553         68.9553 
       0.840667          207.56         67.8415         67.8415 
       0.846816         206.267         66.7558         66.7558 
       0.852925         205.188          65.701          65.701 
       0.859047         203.197          64.667          64.667 
       0.865192         201.578         63.6522         63.6522 
       0.871341         199.652         62.6588         62.6588 
       0.877463         198.319         61.6913         61.6913 
       0.883569         197.113          60.747          60.747 
       0.889708         195.382         59.8179         59.8179 
       0.895864         193.093         58.9061         58.9061 
       0.902008         192.491         58.0154         58.0154 
       0.908149         191.535          57.144          57.144 
       0.914301         189.233         56.2892         56.2892 
       0.920448         187.818          55.453          55.453 
       0.926574          186.91         54.6368         54.6368 
       0.932687         186.294         53.8391         53.8391 
       0.938823         184.041         53.0545         53.0545 
       0.944975         182.535         52.2841         52.2841 
       0.951105         181.719         51.5318         51.5318 
       0.957225         179.692         50.7959         50.7959 
       0.963368          177.86          50.072          50.072 
       0.969511         177.293         49.3624         49.3624 
       0.975621         176.068         48.6704         48.6704 
       0.981748         175.731         47.9902         47.9902 
       0.987916         173.478         47.3188         47.3188 
        0.99406         172.383         46.6629         46.6629 
        1.00019         171.948         46.0208         46.0208 
        1.00632         170.335         45.3916         45.3916 
        1.01246         169.263         44.7733         44.7733 
        1.01859         168.046         44.1677         44.1677 
        1.02471         166.986         43.5741         43.5741 
        1.03085         165.173         42.9895         42.9895 
        1.03698         164.255          42.417          42.417 
        1.04314         163.077         41.8526         41.8526 
        1.04929         161.906         41.2999         41.2999 
        1.05541         161.268         40.7596         40.7596 
        1.06154         160.087         40.2276         40.2276 
        1.06769         159.893         39.7045         39.7045 
        1.07382         158.588         39.1925         39.1925 
        1.07993         157.197         38.6908         38.6908 
        1.08607         156.232         38.1958         38.1958 
        1.09222         155.468         37.7091         37.7091 
        1.09836         154.051         37.2316         37.2316 
        1.10449         152.822         36.7629         36.7629 
        1.11063         151.783         36.3019         36.3019 
        1.11677         151.438          35.849          35.849 
         1.1229         149.825         35.4047         35.4047 
        1.12903         149.055         34.9677         34.9677 
        1.13518         148.798         34.5377         34.5377 
        1.14131         147.241         34.1153         34.1153 
        1.14745         146.637         33.7003         33.7003 
        1.15359         145.565         33.2921         33.2921 
        1.15973         145.143         32.8906         32.8906 
        1.16584         143.584         32.4976         32.4976 
        1.17197             143         32.1106         32.1106 
        1.17811          142.13         31.7287         31.7287 
        1.18424          141.34         31.3542         31.3542 
        1.19038         140.758         30.9847         30.9847 
        1.19652         139.758         30.6214         30.6214 
        1.20267         138.908          30.264          30.264 
        1.20881         137.784         29.9123         29.9123 
        1.21495         137.149         29.5669         29.5669 
        1.22108         136.461         29.2271         29.2271 
         1.2272         135.292         28.8934         28.8934 
        1.23334         134.646         28.5643         28.5643 
        1.23949         133.266         28.2395         28.2395 
        1.24562          132.93         27.9208         27.9208 
        1.25174         131.508         27.6075         27.6075 
        1.25789         131.091         27.2981         27.2981 
        1.26402          130.49          26.994          26.994 
        1.27014         129.529         26.6954         26.6954 
        1.27628         128.871         26.4004         26.4004 
        1.28244         128.199         26.1093         26.1093 
        1.28858         127.684         25.8231         25.8231 
        1.29471         126.287         25.5418         25.5418 
        1.30084          125.76          25.265          25.265 
        1.30697         125.053         24.9919         24.9919 
        1.31312         124.715         24.7225         24.7225 
        1.31925         123.531          24.458          24.458 
        1.32537         123.043         24.1976         24.1976 
        1.33151         121.819         23.9401         23.9401 
        1.33765         121.449         23.6865         23.6865 
        1.34378         120.589         23.4371         23.4371 
        1.34992         120.425         23.1912         23.1912 
        1.35606         119.495         22.9483         22.9483 
         1.3622         118.581         22.7094         22.7094 
        1.36833         118.001         22.4745         22.4745 
        1.37445         117.174          22.243          22.243 
        1.38059         116.829         22.0141         22.0141 
        1.38675         115.859         21.7879         21.7879 
        1.39288         115.407         21.5658         21.5658 
        1.39901         114.932          21.347          21.347 
        1.40515         114.126         21.1307         21.1307 
         1.4113         113.035         20.9175         20.9175 
        1.41742         112.892         20.7081         20.7081 
        1.42355         112.032         20.5012         20.5012 
         1.4297          111.36         20.2965         20.2965 
        1.43585         110.437         20.0947         20.0947 
        1.44198         110.267         19.8965         19.8965 
        1.44809         109.395         19.7013         19.7013 
        1.45423         108.605         19.5081         19.5081 
        1.46036         108.422         19.3178         19.3178 
        1.46649         107.731           19.13           19.13 
        1.47263         107.167         18.9446         18.9446 
        1.47877         106.705         18.7617         18.7617 
        1.48491         105.701          18.581          18.581 
        1.49104         105.338          18.403          18.403 
        1.49718         104.524         18.2273         18.2273 
        1.50333         104.045         18.0536         18.0536 
        1.50947         103.434         17.8826         17.8826 
         1.5156         102.984          17.714          17.714 
        1.52172         102.188         17.5477         17.5477 
        1.52787          101.93         17.3831         17.3831 
          1.534         101.273         17.2209         17.2209 
        1.54013          100.53         17.0609         17.0609 
        1.54627         100.067         16.9027         16.9027 
        1.55241           99.49         16.7465         16.7465 
        1.55855         99.1214         16.5925         16.5925 
        1.56467         98.4714         16.4409         16.4409 
         1.5708         97.8701         16.2907         16.2907 
        1.57695         97.6266         16.1422         16.1422 
        1.58308         96.6032         15.9959         15.9959 
        1.58922         96.4807         15.8514         15.8514 
        1.59535         95.9351         15.7087         15.7087 
         1.6015         95.3551         15.5675         15.5675 
        1.60764         94.7747         15.4282         15.4282 
        1.61376         94.4594          15.291          15.291 
        1.61989         93.7648         15.1553         15.1553 
        1.62604         93.3259          15.021          15.021 
        1.63218         92.9271         14.8884         14.8884 
        1.63831         92.1633         14.7578         14.7578 
        1.64444         91.7867         14.6287         14.6287 
        1.65059         91.2027         14.5008         14.5008 
        1.65673         90.5098         14.3746         14.3746 
        1.66285         90.3411         14.2502         14.2502 
        1.66898         89.6568         14.1274         14.1274 
        1.67512         89.1832         14.0057         14.0057 
        1.68127         88.6867         13.8854         13.8854 
         1.6874         88.2022         13.7667         13.7667 
        1.69353         87.7254         13.6495         13.6495 
        1.69967         87.2414         13.5334         13.5334 
        1.70581         86.8851         13.4188         13.4188 
        1.71193         86.5861         13.3059         13.3059 
        1.71806         85.7604          13.194          13.194 
        1.72421         85.4686         13.0833         13.0833 
        1.73035         84.9394         12.9739         12.9739 
        1.73649         84.4854         12.8658         12.8658 
        1.74262         84.0469         12.7591         12.7591 
        1.74876         83.7091         12.6535         12.6535 
        1.75489         83.0266         12.5493         12.5493 
        1.76101         82.8021         12.4463         12.4463 
        1.76715         82.2255         12.3444         12.3444 
        1.77329         81.8773         12.2435         12.2435 
        1.77943         81.3174         12.1436         12.1436 
        1.78557           81.05         12.0451         12.0451 
        1.79171         80.5355         11.9476         11.9476 
        1.79785         80.1288         11.8512         11.8512 
        1.80399         79.7345         11.7559         11.7559 
        1.81012         79.4161         11.6618         11.6618 
        1.81625         78.7548         11.5687         11.5687 
        1.82239         78.4681         11.4765         11.4765 
        1.82853         78.1606         11.3854         11.3854 
        1.83466         77.6228         11.2954         11.2954 
        1.84078         77.3503         11.2064         11.2064 
        1.84692         76.6888         11.1183         11.1183 
        1.85306         76.3328          11.031          11.031 
         1.8592         75.8037         10.9448         10.9448 
        1.86533         75.5176         10.8596         10.8596 
        1.87147         74.9473         10.7752         10.7752 
        1.87761         74.6854         10.6916         10.6916 
