# k  (h/Mpc)    P(k)  (Mpc/h)^3    P_linear(k)  (Mpc/h)^3     P_NL(k)  ShotnoiseSubtracted = false
     0.00783031         3177.72          3212.7          3212.7 
       0.013688         4070.44          4062.9          4062.9 
       0.019231         4191.74         4188.22         4188.22 
      0.0249154         3908.18         3944.79         3944.79 
      0.0312784         3484.36         3495.07         3495.07 
      0.0375637         3056.19         3049.73         3049.73 
      0.0433917          2697.2         2713.16         2713.16 
      0.0492413         2459.22         2462.28         2462.28 
      0.0555754          2240.3         2265.63         2265.63 
      0.0619321          2116.2         2107.23         2107.23 
       0.067871          1945.2         1962.85         1962.85 
      0.0738098         1788.48         1806.24         1806.24 
      0.0800417         1605.92         1629.72         1629.72 
      0.0862327          1443.8          1455.5          1455.5 
      0.0921407         1303.97         1305.68         1305.68 
      0.0982031         1173.03         1179.37         1179.37 
       0.104506         1090.67         1080.42         1080.42 
       0.110769         1017.07         1009.51         1009.51 
       0.116806         956.923          957.38          957.38 
       0.122832         915.961         910.977         910.977 
       0.129052           856.8         860.839         860.839 
       0.135211         802.914         805.424         805.424 
       0.141259          752.79          746.76          746.76 
       0.147318         699.568         688.096         688.096 
       0.153489         641.382         633.437         633.437 
       0.159709         599.528         587.136         587.136 
       0.165845         570.934         551.091         551.091 
       0.171974         537.261         523.267         523.267 
       0.178125         514.894          500.67          500.67 
       0.184229         495.973         480.309         480.309 
        0.19034         466.103         459.459         459.459 
       0.196428         451.373         437.026         437.026 
       0.202534         433.041         413.077         413.077 
       0.208729             407         388.544         388.544 
       0.214876         381.778         365.531         365.531 
       0.220989         367.778         345.183         345.183 
       0.227147         345.981         327.787         327.787 
        0.23329          332.16         313.319         313.319 
       0.239377         322.726         301.076         301.076 
       0.245482         304.957         289.933         289.933 
       0.251667         299.158         278.943         278.943 
       0.257832         288.338         267.752         267.752 
       0.263955          276.76         256.322         256.322 
       0.270079         266.073         244.831         244.831 
        0.27624         259.176         233.639         233.639 
       0.282372         248.373         223.282         223.282 
        0.28843         238.552         214.044         214.044 
       0.294538         229.055         205.767         205.767 
       0.300721         225.137         198.282         198.282 
        0.30691         215.265         191.416         191.416 
       0.313033         209.339         184.958         184.958 
       0.319153         200.201         178.632         178.632 
       0.325316         196.254         172.298         172.298 
        0.33145         189.112         166.055         166.055 
       0.337538          185.21          160.01          160.01 
       0.343633         178.813         154.231         154.231 
       0.349808          173.37         148.739         148.739 
       0.355968         169.335         143.671         143.671 
       0.362074         164.354          139.02          139.02 
       0.368217          159.85         134.656         134.656 
       0.374374         155.204         130.513         130.513 
       0.380519         151.627          126.53          126.53 
       0.386598         147.598         122.696         122.696 
       0.392688         144.903         118.941         118.941 
        0.39888         140.924         115.226         115.226 
       0.405048         137.649         111.657         111.657 
       0.411186         134.573         108.259         108.259 
       0.417313         130.847         105.038         105.038 
       0.423458          127.86         101.984         101.984 
       0.429607         124.601         99.0857         99.0857 
       0.435692         120.702         96.3526         96.3526 
       0.441815         119.521         93.7139         93.7139 
       0.447964         117.525         91.1539         91.1539 
       0.454126         112.507         88.6657         88.6657 
       0.460267         110.981         86.2626         86.2626 
       0.466387         108.654         83.9445         83.9445 
        0.47254         106.815         81.6949         81.6949 
       0.478662         105.197         79.5431         79.5431 
       0.484765         102.407         77.4871         77.4871 
       0.490885         100.436           75.51           75.51 
       0.497035         99.0508         73.6011         73.6011 
       0.503198         96.4178         71.7605         71.7605 
       0.509342         94.2633         69.9901         69.9901 
       0.515458           92.76         68.2854         68.2854 
       0.521598          91.497         66.6261         66.6261 
       0.527764         89.8693          65.011          65.011 
       0.533884         88.3123         63.4594         63.4594 
           0.54         86.6417         61.9606         61.9606 
       0.546137         85.6097         60.5074         60.5074 
       0.552299         84.3466         59.0978         59.0978 
       0.558452         82.0709         57.7382         57.7382 
       0.564573         80.6391         56.4307         56.4307 
       0.570708         79.7249         55.1629         55.1629 
       0.576825          78.164         53.9386         53.9386 
       0.582926         76.7144         52.7546         52.7546 
       0.589034         74.9891         51.6036         51.6036 
       0.595184         74.1122         50.4787         50.4787 
       0.601379         73.1936         49.3796         49.3796 
       0.607522         71.4213         48.3225         48.3225 
       0.613639         71.2118         47.3019         47.3019 
       0.619772         69.4429         46.3095         46.3095 
       0.625918         68.9709         45.3447         45.3447 
       0.632068         68.0132         44.4075         44.4075 
       0.638161         66.9139         43.5056         43.5056 
         0.6443         65.8511         42.6225         42.6225 
       0.650464         64.8544         41.7609         41.7609 
       0.656582         64.2927         40.9295         40.9295 
       0.662703         63.0058         40.1208         40.1208 
       0.668861          62.234         39.3296         39.3296 
       0.675024         61.3247         38.5596         38.5596 
       0.681124         60.3563         37.8183         37.8183 
       0.687237         59.3446         37.0953         37.0953 
       0.693381         58.8602         36.3882         36.3882 
       0.699536         57.7321         35.6986         35.6986 
       0.705665         57.8931         35.0301         35.0301 
       0.711789         56.3752         34.3796         34.3796 
       0.717957         55.8704         33.7414         33.7414 
        0.72409         55.0902         33.1231         33.1231 
       0.730186         54.2453         32.5244         32.5244 
       0.736317         53.9382         31.9373         31.9373 
       0.742472         53.0357         31.3629         31.3629 
       0.748622         52.6057         30.8033         30.8033 
        0.75476          51.876         30.2587         30.2587 
       0.760888         51.1403         29.7284         29.7284 
       0.767043         50.5909         29.2088         29.2088 
       0.773185         49.8891         28.7029         28.7029 
       0.779291         49.6294          28.212          28.212 
       0.785407           49.13         27.7321         27.7321 
       0.791564         48.2766         27.2605         27.2605 
       0.797719         47.4599         26.8002         26.8002 
       0.803834         47.3689         26.3535         26.3535 
       0.809972         46.6907         25.9156         25.9156 
       0.816124         45.8638         25.4868         25.4868 
       0.822261         45.6473          25.069          25.069 
       0.828378         45.2481          24.662          24.662 
       0.834502          44.706         24.2638         24.2638 
       0.840667         44.2796         23.8718         23.8718 
       0.846816         43.6318         23.4898         23.4898 
       0.852925          43.275         23.1186         23.1186 
       0.859047         42.7054         22.7548         22.7548 
       0.865192         42.3995         22.3977         22.3977 
       0.871341         42.1689         22.0482         22.0482 
       0.877463         41.3361         21.7077         21.7077 
       0.883569         40.9947         21.3755         21.3755 
       0.889708          40.668         21.0485         21.0485 
       0.895864         40.3001         20.7277         20.7277 
       0.902008         39.9747         20.4143         20.4143 
       0.908149         39.5751         20.1076         20.1076 
       0.914301         39.3878         19.8069         19.8069 
       0.920448         38.6789         19.5126         19.5126 
       0.926574         38.4616         19.2254         19.2254 
       0.932687         38.0482         18.9447         18.9447 
       0.938823         37.5612         18.6687         18.6687 
       0.944975         37.3576         18.3976         18.3976 
       0.951105         37.0291         18.1329         18.1329 
       0.957225         36.5861         17.8739         17.8739 
       0.963368         36.4049         17.6192         17.6192 
       0.969511         36.1005         17.3695         17.3695 
       0.975621         35.8194          17.126          17.126 
       0.981748         35.3388         16.8866         16.8866 
       0.987916          35.138         16.6504         16.6504 
        0.99406         34.8317         16.4196         16.4196 
        1.00019         34.3898         16.1937         16.1937 
        1.00632         34.2579         15.9722         15.9722 
        1.01246          33.984         15.7547         15.7547 
        1.01859         33.5262         15.5416         15.5416 
        1.02471         33.4887         15.3327         15.3327 
        1.03085         33.1547          15.127          15.127 
        1.03698         32.6612         14.9256         14.9256 
        1.04314          32.431          14.727          14.727 
        1.04929         32.2006         14.5325         14.5325 
        1.05541          31.863         14.3423         14.3423 
        1.06154         31.7256         14.1552         14.1552 
        1.06769         31.4788         13.9711         13.9711 
        1.07382         31.2117         13.7909         13.7909 
        1.07993         31.0861         13.6144         13.6144 
        1.08607          30.659         13.4402         13.4402 
        1.09222         30.5346          13.269          13.269 
        1.09836         30.1745         13.1009         13.1009 
        1.10449          30.052          12.936          12.936 
        1.11063         29.6516         12.7738         12.7738 
        1.11677         29.5601         12.6144         12.6144 
         1.1229         29.4368         12.4581         12.4581 
        1.12903         29.0302         12.3043         12.3043 
        1.13518         28.8245          12.153          12.153 
        1.14131         28.7512         12.0044         12.0044 
        1.14745         28.4915         11.8583         11.8583 
        1.15359         28.3501         11.7147         11.7147 
        1.15973         28.0367         11.5735         11.5735 
        1.16584          27.748         11.4352         11.4352 
        1.17197         27.7912          11.299          11.299 
        1.17811         27.4038         11.1646         11.1646 
        1.18424         27.1662         11.0328         11.0328 
        1.19038         27.1136         10.9028         10.9028 
        1.19652           26.93          10.775          10.775 
        1.20267         26.7136         10.6492         10.6492 
        1.20881         26.5478         10.5255         10.5255 
        1.21495         26.3405         10.4039         10.4039 
        1.22108         26.1462         10.2843         10.2843 
         1.2272         25.8663         10.1669         10.1669 
        1.23334         25.7647         10.0511         10.0511 
        1.23949         25.5619         9.93684         9.93684 
        1.24562         25.4762         9.82468         9.82468 
        1.25174          25.331         9.71444         9.71444 
        1.25789         25.1407         9.60556         9.60556 
        1.26402         25.0314         9.49857         9.49857 
        1.27014         24.7568         9.39348         9.39348 
        1.27628         24.5546         9.28968         9.28968 
        1.28244         24.4809         9.18727         9.18727 
        1.28858         24.3787         9.08655         9.08655 
        1.29471         24.1621         8.98758         8.98758 
        1.30084         23.9876         8.89018         8.89018 
        1.30697         23.8226         8.79409         8.79409 
        1.31312         23.6194         8.69929         8.69929 
        1.31925         23.4976          8.6062          8.6062 
        1.32537         23.4304         8.51457         8.51457 
        1.33151         23.2043         8.42396         8.42396 
        1.33765         23.1243         8.33474         8.33474 
        1.34378         23.0188         8.24699         8.24699 
        1.34992         22.7142         8.16046         8.16046 
        1.35606         22.6791         8.07499         8.07499 
         1.3622         22.5476         7.99091         7.99091 
        1.36833         22.3719         7.90824         7.90824 
        1.37445         22.3218         7.82679         7.82679 
        1.38059         22.1703         7.74625         7.74625 
        1.38675         21.9422         7.66666         7.66666 
        1.39288         21.8751         7.58852         7.58852 
        1.39901         21.7027         7.51151         7.51151 
        1.40515         21.6168          7.4354          7.4354 
         1.4113          21.465         7.36039         7.36039 
        1.41742         21.2899          7.2867          7.2867 
        1.42355         21.2338          7.2139          7.2139 
         1.4297         21.1083         7.14188         7.14188 
        1.43585         21.0482         7.07088         7.07088 
        1.44198         20.8169         7.00112         7.00112 
        1.44809         20.7543         6.93244         6.93244 
        1.45423          20.632         6.86444         6.86444 
        1.46036         20.5581         6.79748         6.79748 
        1.46649         20.4246          6.7314          6.7314 
        1.47263         20.2636         6.66616         6.66616 
        1.47877         20.1776         6.60181         6.60181 
        1.48491         20.0604         6.53822         6.53822 
        1.49104         20.0162         6.47561         6.47561 
        1.49718         19.8361         6.41377         6.41377 
        1.50333         19.7475         6.35266         6.35266 
        1.50947         19.6748         6.29247         6.29247 
         1.5156         19.4998         6.23316         6.23316 
        1.52172         19.3666         6.17462         6.17462 
        1.52787         19.3266         6.11672         6.11672 
          1.534         19.1964         6.05964         6.05964 
        1.54013          19.042         6.00335         6.00335 
        1.54627         18.9842         5.94768         5.94768 
        1.55241         18.8653         5.89271         5.89271 
        1.55855         18.7819         5.83852         5.83852 
        1.56467         18.6935         5.78516         5.78516 
         1.5708         18.6311         5.73233         5.73233 
        1.57695         18.4477         5.68008         5.68008 
        1.58308         18.4342          5.6286          5.6286 
        1.58922         18.3124         5.57773         5.57773 
        1.59535         18.2103         5.52751         5.52751 
         1.6015         18.0984         5.47785         5.47785 
        1.60764         18.0389         5.42882         5.42882 
        1.61376         17.9599         5.38054         5.38054 
        1.61989         17.7874         5.33281         5.33281 
        1.62604         17.7814         5.28555         5.28555 
        1.63218         17.6474          5.2389          5.2389 
        1.63831         17.5964         5.19292         5.19292 
        1.64444         17.4498         5.14749         5.14749 
        1.65059         17.3828         5.10249         5.10249 
        1.65673         17.3283         5.05808         5.05808 
        1.66285         17.1885         5.01434         5.01434 
        1.66898         17.1474         4.97109         4.97109 
        1.67512         17.0729         4.92828         4.92828 
        1.68127         16.9446         4.88594         4.88594 
         1.6874         16.8667         4.84419         4.84419 
        1.69353         16.8228         4.80296         4.80296 
        1.69967         16.6922         4.76211         4.76211 
        1.70581         16.6017         4.72176         4.72176 
        1.71193         16.5193         4.68203         4.68203 
        1.71806         16.4797         4.64268         4.64268 
        1.72421          16.377          4.6037          4.6037 
        1.73035          16.331         4.56522         4.56522 
        1.73649         16.2246         4.52719         4.52719 
        1.74262         16.1867         4.48963         4.48963 
        1.74876         16.0839         4.45247         4.45247 
        1.75489         16.0192         4.41581         4.41581 
        1.76101         15.9127         4.37958         4.37958 
        1.76715         15.9097         4.34371         4.34371 
        1.77329         15.7936         4.30819         4.30819 
        1.77943         15.7017         4.27307         4.27307 
        1.78557         15.6424         4.23839         4.23839 
        1.79171         15.6044         4.20409         4.20409 
        1.79785         15.4846         4.17016         4.17016 
        1.80399          15.425         4.13663         4.13663 
        1.81012         15.3636          4.1035          4.1035 
        1.81625         15.2773         4.07076         4.07076 
        1.82239         15.2306         4.03833         4.03833 
        1.82853         15.1035         4.00627         4.00627 
        1.83466         15.0612         3.97459         3.97459 
        1.84078         14.9518         3.94329         3.94329 
        1.84692         14.9344         3.91228         3.91228 
        1.85306         14.8559         3.88157         3.88157 
         1.8592         14.8015         3.85123         3.85123 
        1.86533         14.7328         3.82124         3.82124 
        1.87147         14.6619         3.79154         3.79154 
        1.87761         14.6113         3.76214         3.76214 
