# k  (h/Mpc)    Pcb(k)  (Mpc/h)^3    Pcb_linear(k) (Mpc/h)^3    Pcb_NL(k) (Mpc/h)^3   ShotnoiseSubtracted = false
     0.00783031         13147.6         13336.1         13336.1 
       0.013688         16994.8         16857.5         16857.5 
       0.019231         17388.9         17373.9         17373.9 
      0.0249154         16019.7         16362.2         16362.2 
      0.0312784         14317.8         14495.7         14495.7 
      0.0375637         12611.2           12648           12648 
      0.0433917         11015.5         11251.8         11251.8 
      0.0492413         10093.4         10211.2         10211.2 
      0.0555754         9069.22         9395.48         9395.48 
      0.0619321         8696.05         8738.48         8738.48 
       0.067871         7873.18         8139.66         8139.66 
      0.0738098         7245.55         7490.17         7490.17 
      0.0800417          6466.8         6758.11         6758.11 
      0.0862327         5859.45         6035.64         6035.64 
      0.0921407         5356.51         5414.34         5414.34 
      0.0982031         4818.74         4890.57         4890.57 
       0.104506         4548.55          4480.2          4480.2 
       0.110769         4236.19         4186.15         4186.15 
       0.116806         3995.47         3969.98         3969.98 
       0.122832         3811.95         3777.55         3777.55 
       0.129052         3532.23         3569.64         3569.64 
       0.135211         3330.45         3339.84         3339.84 
       0.141259         3166.75         3096.58         3096.58 
       0.147318         2971.97         2853.31         2853.31 
       0.153489         2724.98         2626.66         2626.66 
       0.159709         2583.79         2434.66         2434.66 
       0.165845         2496.76         2285.19         2285.19 
       0.171974         2364.83         2169.81         2169.81 
       0.178125         2257.16         2076.11         2076.11 
       0.184229         2166.78         1991.68         1991.68 
        0.19034         2043.03         1905.22         1905.22 
       0.196428         2000.28          1812.2          1812.2 
       0.202534         1922.11         1712.89         1712.89 
       0.208729         1831.46         1611.15         1611.15 
       0.214876         1751.81         1515.73         1515.73 
       0.220989         1695.33         1431.35         1431.35 
       0.227147          1622.2         1359.22         1359.22 
        0.23329         1562.64         1299.22         1299.22 
       0.239377         1540.33         1248.45         1248.45 
       0.245482         1445.58         1202.25         1202.25 
       0.251667          1437.2         1156.67         1156.67 
       0.257832         1381.51         1110.27         1110.27 
       0.263955            1336         1062.87         1062.87 
       0.270079         1291.25         1015.23         1015.23 
        0.27624         1276.91         968.817         968.817 
       0.282372         1223.04          925.87          925.87 
        0.28843          1214.1         887.562         887.562 
       0.294538            1155         853.239         853.239 
       0.300721         1150.47         822.204         822.204 
        0.30691         1103.55         793.732         793.732 
       0.313033         1082.84         766.951         766.951 
       0.319153         1063.95         740.721         740.721 
       0.325316         1029.37         714.457         714.457 
        0.33145         1005.95         688.568         688.568 
       0.337538         990.175         663.502         663.502 
       0.343633         966.337         639.538         639.538 
       0.349808         934.537         616.767         616.767 
       0.355968         928.954         595.748         595.748 
       0.362074         918.649         576.465         576.465 
       0.368217         891.304          558.37          558.37 
       0.374374         856.322          541.19          541.19 
       0.380519         857.212         524.672         524.672 
       0.386598          834.83         508.774         508.774 
       0.392688         831.916         493.206         493.206 
        0.39888         808.096         477.798         477.798 
       0.405048         796.584         462.998         462.998 
       0.411186         785.438         448.907         448.907 
       0.417313         769.655         435.555         435.555 
       0.423458         756.754         422.891         422.891 
       0.429607         745.934         410.871         410.871 
       0.435692         729.933         399.538         399.538 
       0.441815         725.057         388.596         388.596 
       0.447964         709.491         377.981         377.981 
       0.454126         700.511         367.663         367.663 
       0.460267         685.667         357.698         357.698 
       0.466387         678.332         348.086         348.086 
        0.47254         669.571         338.758         338.758 
       0.478662         665.956         329.835         329.835 
       0.484765         646.403         321.309         321.309 
       0.490885          641.97         313.111         313.111 
       0.497035         629.126         305.196         305.196 
       0.503198         624.028         297.563         297.563 
       0.509342         617.981         290.222         290.222 
       0.515458         614.014         283.154         283.154 
       0.521598         599.437         276.273         276.273 
       0.527764         587.647         269.576         269.576 
       0.533884         586.753         263.142         263.142 
           0.54         579.685         256.927         256.927 
       0.546137         576.212         250.901         250.901 
       0.552299         566.752         245.056         245.056 
       0.558452         563.838         239.418         239.418 
       0.564573         555.708         233.997         233.997 
       0.570708         549.139         228.739         228.739 
       0.576825         534.705         223.663         223.663 
       0.582926         536.258         218.753         218.753 
       0.589034         531.228          213.98          213.98 
       0.595184         526.114         209.316         209.316 
       0.601379          519.06         204.758         204.758 
       0.607522           512.2         200.375         200.375 
       0.613639         511.696         196.143         196.143 
       0.619772         499.123         192.028         192.028 
       0.625918         497.807         188.027         188.027 
       0.632068         490.633         184.141         184.141 
       0.638161         488.939         180.401         180.401 
         0.6443         479.966         176.739         176.739 
       0.650464         477.582         173.166         173.166 
       0.656582         475.178         169.719         169.719 
       0.662703         472.706         166.365         166.365 
       0.668861         464.297         163.085         163.085 
       0.675024         460.577         159.892         159.892 
       0.681124         457.605         156.818         156.818 
       0.687237          453.36          153.82          153.82 
       0.693381         447.661         150.888         150.888 
       0.699536         441.697         148.028         148.028 
       0.705665         439.981         145.256         145.256 
       0.711789         437.181         142.559         142.559 
       0.717957         433.146         139.913         139.913 
        0.72409         430.473         137.349         137.349 
       0.730186         424.751         134.866         134.866 
       0.736317         421.552         132.432         132.432 
       0.742472         419.859          130.05          130.05 
       0.748622         414.931         127.729         127.729 
        0.75476         409.819         125.471         125.471 
       0.760888         405.729         123.272         123.272 
       0.767043         406.563         121.118         121.118 
       0.773185         401.357          119.02          119.02 
       0.779291         396.399         116.984         116.984 
       0.785407         394.479         114.994         114.994 
       0.791564         389.704         113.039         113.039 
       0.797719         387.477          111.13          111.13 
       0.803834         384.059         109.278         109.278 
       0.809972         382.749         107.462         107.462 
       0.816124         381.987         105.684         105.684 
       0.822261         376.254         103.952         103.952 
       0.828378         374.047         102.264         102.264 
       0.834502         371.027         100.612         100.612 
       0.840667         367.259         98.9874         98.9874 
       0.846816         365.597         97.4032         97.4032 
       0.852925         362.723         95.8641         95.8641 
       0.859047          361.27         94.3555         94.3555 
       0.865192         357.108         92.8748         92.8748 
       0.871341         354.415         91.4253         91.4253 
       0.877463         352.938         90.0137         90.0137 
       0.883569          350.49         88.6359         88.6359 
       0.889708         347.448         87.2802         87.2802 
       0.895864         344.508         85.9498         85.9498 
       0.902008         342.675         84.6502         84.6502 
       0.908149         339.957         83.3786         83.3786 
       0.914301         336.501         82.1315         82.1315 
       0.920448         334.401         80.9113         80.9113 
       0.926574         330.434         79.7205         79.7205 
       0.932687         331.015         78.5564         78.5564 
       0.938823         326.966         77.4118         77.4118 
       0.944975         326.657         76.2876         76.2876 
       0.951105         323.213           75.19           75.19 
       0.957225         321.004         74.1162         74.1162 
       0.963368         317.217         73.0599         73.0599 
       0.969511         315.989         72.0245         72.0245 
       0.975621         313.463         71.0149         71.0149 
       0.981748         312.997         70.0224         70.0224 
       0.987916         310.556         69.0427         69.0427 
        0.99406         305.722         68.0857         68.0857 
        1.00019         305.394         67.1489         67.1489 
        1.00632         303.588         66.2308         66.2308 
        1.01246         301.028         65.3286         65.3286 
        1.01859         301.421         64.4449         64.4449 
        1.02471         296.959         63.5789         63.5789 
        1.03085         294.724         62.7259         62.7259 
        1.03698         294.016         61.8905         61.8905 
        1.04314         290.957         61.0671         61.0671 
        1.04929         288.889         60.2606         60.2606 
        1.05541         289.065         59.4722         59.4722 
        1.06154         284.518         58.6961         58.6961 
        1.06769         283.759         57.9327         57.9327 
        1.07382         281.998         57.1857         57.1857 
        1.07993         279.833         56.4536         56.4536 
        1.08607         279.103         55.7314         55.7314 
        1.09222         276.757         55.0213         55.0213 
        1.09836         274.724         54.3245         54.3245 
        1.10449         271.861         53.6407         53.6407 
        1.11063         269.639          52.968          52.968 
        1.11677         269.221         52.3072         52.3072 
         1.1229         267.442          51.659          51.659 
        1.12903         265.554         51.0213         51.0213 
        1.13518         263.699         50.3939         50.3939 
        1.14131         261.827         49.7775         49.7775 
        1.14745         261.202          49.172          49.172 
        1.15359         258.976         48.5764         48.5764 
        1.15973          257.34         47.9906         47.9906 
        1.16584         255.263         47.4172         47.4172 
        1.17197         255.051         46.8525         46.8525 
        1.17811         252.146         46.2953         46.2953 
        1.18424         250.556         45.7488         45.7488 
        1.19038         249.671         45.2097         45.2097 
        1.19652         247.665         44.6796         44.6796 
        1.20267         247.136         44.1581         44.1581 
        1.20881         244.859          43.645          43.645 
        1.21495         243.278          43.141          43.141 
        1.22108         241.885         42.6452         42.6452 
         1.2272          240.14         42.1584         42.1584 
        1.23334         238.838         41.6781         41.6781 
        1.23949         237.549         41.2042         41.2042 
        1.24562         236.269         40.7392         40.7392 
        1.25174         234.064          40.282          40.282 
        1.25789         232.326         39.8306         39.8306 
        1.26402         230.928         39.3869         39.3869 
        1.27014         229.479         38.9511         38.9511 
        1.27628         228.259         38.5207         38.5207 
        1.28244         227.853         38.0961         38.0961 
        1.28858         225.375         37.6784         37.6784 
        1.29471         223.635          37.268          37.268 
        1.30084         222.733         36.8641         36.8641 
        1.30697         221.179         36.4657         36.4657 
        1.31312         219.272         36.0726         36.0726 
        1.31925         218.993         35.6866         35.6866 
        1.32537         217.664         35.3066         35.3066 
        1.33151         215.484         34.9309         34.9309 
        1.33765         214.185         34.5609         34.5609 
        1.34378         213.359         34.1971         34.1971 
        1.34992         212.199         33.8383         33.8383 
        1.35606         212.012         33.4839         33.4839 
         1.3622         209.921         33.1352         33.1352 
        1.36833         207.805         32.7924         32.7924 
        1.37445         206.917         32.4547         32.4547 
        1.38059         205.294         32.1207         32.1207 
        1.38675         204.546         31.7907         31.7907 
        1.39288          203.05         31.4666         31.4666 
        1.39901         202.803         31.1473         31.1473 
        1.40515         200.644         30.8317         30.8317 
         1.4113         199.421         30.5207         30.5207 
        1.41742         198.197         30.2151         30.2151 
        1.42355          196.96         29.9132         29.9132 
         1.4297         195.611         29.6146         29.6146 
        1.43585         194.527         29.3202         29.3202 
        1.44198         193.407         29.0309         29.0309 
        1.44809         192.686         28.7462         28.7462 
        1.45423         191.221         28.4642         28.4642 
        1.46036         190.267         28.1865         28.1865 
        1.46649         188.625         27.9125         27.9125 
        1.47263         187.423          27.642          27.642 
        1.47877          186.61         27.3751         27.3751 
        1.48491         184.884         27.1115         27.1115 
        1.49104         184.533         26.8518         26.8518 
        1.49718         182.502         26.5954         26.5954 
        1.50333         181.918          26.342          26.342 
        1.50947         181.038         26.0924         26.0924 
         1.5156         179.378         25.8465         25.8465 
        1.52172         178.518         25.6038         25.6038 
        1.52787         177.103         25.3637         25.3637 
          1.534         176.671          25.127          25.127 
        1.54013         175.253         24.8936         24.8936 
        1.54627         174.336         24.6627         24.6627 
        1.55241         173.094         24.4348         24.4348 
        1.55855         172.109         24.2101         24.2101 
        1.56467         170.888         23.9888         23.9888 
         1.5708         170.318         23.7697         23.7697 
        1.57695         169.022         23.5531         23.5531 
        1.58308         168.282         23.3396         23.3396 
        1.58922         167.037         23.1287         23.1287 
        1.59535         165.678         22.9205         22.9205 
         1.6015          165.33         22.7145         22.7145 
        1.60764         164.048         22.5112         22.5112 
        1.61376         162.902          22.311          22.311 
        1.61989         162.015         22.1131         22.1131 
        1.62604         161.037         21.9171         21.9171 
        1.63218         160.209         21.7237         21.7237 
        1.63831         159.038          21.533          21.533 
        1.64444         158.437         21.3446         21.3446 
        1.65059         157.272          21.158          21.158 
        1.65673         156.038         20.9739         20.9739 
        1.66285         155.642         20.7925         20.7925 
        1.66898         154.418         20.6132         20.6132 
        1.67512         154.085         20.4357         20.4357 
        1.68127         152.384         20.2601         20.2601 
         1.6874         151.362          20.087          20.087 
        1.69353         151.012          19.916          19.916 
        1.69967         149.726         19.7466         19.7466 
        1.70581          149.04         19.5793         19.5793 
        1.71193         147.846         19.4146         19.4146 
        1.71806         147.436         19.2514         19.2514 
        1.72421         146.355         19.0898         19.0898 
        1.73035         145.945         18.9302         18.9302 
        1.73649         144.981         18.7725         18.7725 
        1.74262          143.74         18.6167         18.6167 
        1.74876         143.167         18.4627         18.4627 
        1.75489         142.024         18.3106         18.3106 
        1.76101         141.161         18.1604         18.1604 
        1.76715         140.623         18.0117         18.0117 
        1.77329         140.135         17.8644         17.8644 
        1.77943         138.819         17.7187         17.7187 
        1.78557         138.167         17.5749         17.5749 
        1.79171         137.396         17.4327         17.4327 
        1.79785         136.347          17.292          17.292 
        1.80399         135.634          17.153          17.153 
        1.81012         134.839         17.0156         17.0156 
        1.81625         134.138         16.8799         16.8799 
        1.82239         133.429         16.7454         16.7454 
        1.82853         132.788         16.6124         16.6124 
        1.83466         131.749         16.4811         16.4811 
        1.84078         131.281         16.3513         16.3513 
        1.84692         130.009         16.2227         16.2227 
        1.85306         129.779         16.0953         16.0953 
         1.8592         128.728         15.9696         15.9696 
        1.86533          127.77         15.8452         15.8452 
        1.87147          127.05          15.722          15.722 
