# k  (h/Mpc)    Pcb(k)  (Mpc/h)^3    Pcb_linear(k) (Mpc/h)^3    Pcb_NL(k) (Mpc/h)^3   ShotnoiseSubtracted = false
     0.00783031         535.046         540.061         540.061 
       0.013688         681.617         683.296         683.296 
       0.019231         704.198         704.498         704.498 
      0.0249154         660.637         663.616         663.616 
      0.0312784         587.631         587.996         587.996 
      0.0375637          514.15         513.094         513.094 
      0.0433917         456.102         456.478         456.478 
      0.0492413         414.632         414.275         414.275 
      0.0555754         380.073         381.194         381.194 
      0.0619321         355.588         354.546         354.546 
       0.067871         329.466         330.256         330.256 
      0.0738098         302.974         303.908         303.908 
      0.0800417         272.903         274.208         274.208 
      0.0862327         244.382         244.896         244.896 
      0.0921407         219.667         219.689         219.689 
      0.0982031         198.043         198.438         198.438 
       0.104506         182.423         181.788         181.788 
       0.110769         170.257         169.857         169.857 
       0.116806         160.724         161.087         161.087 
       0.122832         153.416         153.279         153.279 
       0.129052         144.389         144.843         144.843 
       0.135211         135.017         135.519         135.519 
       0.141259          125.68         125.649         125.649 
       0.147318         116.237         115.778         115.778 
       0.153489         106.773         106.581         106.581 
       0.159709         99.0822         98.7907         98.7907 
       0.165845         93.5916         92.7259         92.7259 
       0.171974          88.275         88.0443         88.0443 
       0.178125         84.5449         84.2422         84.2422 
       0.184229         81.2859         80.8164         80.8164 
        0.19034         77.1884         77.3082         77.3082 
       0.196428         73.8146         73.5338         73.5338 
       0.202534         70.2601         69.5041         69.5041 
       0.208729         65.8848         65.3761         65.3761 
       0.214876         61.7558          61.504          61.504 
       0.220989         58.8803         58.0804         58.0804 
       0.227147         55.4631         55.1533         55.1533 
        0.23329         53.0548         52.7188         52.7188 
       0.239377          51.094         50.6588         50.6588 
       0.245482         48.9802         48.7839         48.7839 
       0.251667         47.4475         46.9346         46.9346 
       0.257832         45.4981         45.0517         45.0517 
       0.263955         43.5987         43.1286         43.1286 
       0.270079         41.7324         41.1952         41.1952 
        0.27624         40.0991         39.3121         39.3121 
       0.282372         38.3446         37.5694         37.5694 
        0.28843         36.6366          36.015          36.015 
       0.294538         35.2381         34.6223         34.6223 
       0.300721         34.1655         33.3629         33.3629 
        0.30691         32.8109         32.2076         32.2076 
       0.313033         31.7369         31.1209         31.1209 
       0.319153         30.3684         30.0566         30.0566 
       0.325316         29.7135         28.9908         28.9908 
        0.33145         28.5771         27.9403         27.9403 
       0.337538         27.5918         26.9232         26.9232 
       0.343633         26.5543         25.9509         25.9509 
       0.349808          25.703         25.0269         25.0269 
       0.355968         24.8721          24.174          24.174 
       0.362074         24.0543         23.3915         23.3915 
       0.368217         23.3225         22.6573         22.6573 
       0.374374          22.532         21.9602         21.9602 
       0.380519         21.9495         21.2899         21.2899 
       0.386598         21.3256         20.6448         20.6448 
       0.392688         20.7661         20.0131         20.0131 
        0.39888         20.0914         19.3879         19.3879 
       0.405048         19.5291         18.7873         18.7873 
       0.411186         18.9889         18.2156         18.2156 
       0.417313          18.351         17.6738         17.6738 
       0.423458          17.875         17.1599         17.1599 
       0.429607         17.3357         16.6721         16.6721 
       0.435692         16.8565         16.2123         16.2123 
       0.441815         16.4424         15.7683         15.7683 
       0.447964         16.1044         15.3375         15.3375 
       0.454126         15.5523         14.9189         14.9189 
       0.460267         15.1714         14.5145         14.5145 
       0.466387         14.7162         14.1245         14.1245 
        0.47254         14.4035          13.746          13.746 
       0.478662         14.0775         13.3839         13.3839 
       0.484765         13.6773          13.038          13.038 
       0.490885          13.342         12.7053         12.7053 
       0.497035         13.1177         12.3841         12.3841 
       0.503198         12.7626         12.0744         12.0744 
       0.509342         12.4656         11.7765         11.7765 
       0.515458         12.1397         11.4897         11.4897 
       0.521598         11.8821         11.2105         11.2105 
       0.527764         11.5789         10.9388         10.9388 
       0.533884         11.3667         10.6777         10.6777 
           0.54          11.098         10.4255         10.4255 
       0.546137         10.8705          10.181          10.181 
       0.552299         10.6368          9.9438          9.9438 
       0.558452         10.3299         9.71503         9.71503 
       0.564573         10.1634         9.49503         9.49503 
       0.570708         9.95034          9.2817          9.2817 
       0.576825         9.69546         9.07571         9.07571 
       0.582926         9.52661         8.87648         8.87648 
       0.589034         9.24735         8.68282         8.68282 
       0.595184         9.09098         8.49354         8.49354 
       0.601379         8.89337          8.3086          8.3086 
       0.607522         8.75074         8.13074         8.13074 
       0.613639          8.6156         7.95901         7.95901 
       0.619772         8.38453         7.79203         7.79203 
       0.625918         8.26789         7.62969         7.62969 
       0.632068         8.13003           7.472           7.472 
       0.638161         7.92933         7.32025         7.32025 
         0.6443         7.76778         7.17166         7.17166 
       0.650464         7.59609         7.02668         7.02668 
       0.656582         7.50719         6.88679         6.88679 
       0.662703         7.36381         6.75072         6.75072 
       0.668861          7.2363          6.6176          6.6176 
       0.675024           7.078         6.48803         6.48803 
       0.681124         6.94356          6.3633          6.3633 
       0.687237         6.83725         6.24166         6.24166 
       0.693381         6.72233         6.12268         6.12268 
       0.699536         6.54291         6.00665         6.00665 
       0.705665         6.44759         5.89417         5.89417 
       0.711789         6.34467         5.78471         5.78471 
       0.717957          6.2237         5.67732         5.67732 
        0.72409          6.1145          5.5733          5.5733 
       0.730186         6.02136         5.47255         5.47255 
       0.736317          5.9511         5.37378         5.37378 
       0.742472         5.84849         5.27712         5.27712 
       0.748622         5.73745         5.18296         5.18296 
        0.75476         5.60754         5.09133         5.09133 
       0.760888          5.5334         5.00209         5.00209 
       0.767043         5.46678         4.91467         4.91467 
       0.773185         5.34904         4.82955         4.82955 
       0.779291         5.28496         4.74696         4.74696 
       0.785407          5.1957          4.6662          4.6662 
       0.791564         5.11237         4.58684         4.58684 
       0.797719         5.03572         4.50939         4.50939 
       0.803834         4.97097         4.43425         4.43425 
       0.809972         4.89948         4.36056         4.36056 
       0.816124         4.79932         4.28842         4.28842 
       0.822261         4.71635         4.21812         4.21812 
       0.828378         4.66051         4.14963         4.14963 
       0.834502         4.60698         4.08262         4.08262 
       0.840667         4.51082         4.01668         4.01668 
       0.846816         4.44006          3.9524          3.9524 
       0.852925         4.39654         3.88994         3.88994 
       0.859047         4.32982         3.82873         3.82873 
       0.865192         4.27263         3.76864         3.76864 
       0.871341         4.21401         3.70983         3.70983 
       0.877463         4.15756         3.65255         3.65255 
       0.883569         4.07938         3.59664         3.59664 
       0.889708         4.01474         3.54163         3.54163 
       0.895864         3.96766         3.48764         3.48764 
       0.902008         3.90724         3.43491         3.43491 
       0.908149         3.85896         3.38331         3.38331 
       0.914301         3.78736          3.3327          3.3327 
       0.920448         3.73754         3.28319         3.28319 
       0.926574         3.68295         3.23487         3.23487 
       0.932687          3.6429         3.18764         3.18764 
       0.938823         3.59992         3.14119         3.14119 
       0.944975         3.54756         3.09557         3.09557 
       0.951105         3.50487         3.05104         3.05104 
       0.957225         3.47848         3.00746         3.00746 
       0.963368         3.42229          2.9646          2.9646 
       0.969511         3.37121         2.92259         2.92259 
       0.975621         3.31945         2.88162         2.88162 
       0.981748         3.28877         2.84135         2.84135 
       0.987916         3.24323         2.80159         2.80159 
        0.99406         3.18971         2.76276         2.76276 
        1.00019         3.15524         2.72475         2.72475 
        1.00632         3.11483         2.68749         2.68749 
        1.01246         3.07907         2.65089         2.65089 
        1.01859         3.04174         2.61503         2.61503 
        1.02471         3.00064         2.57988         2.57988 
        1.03085         2.96697         2.54527         2.54527 
        1.03698         2.92475         2.51138         2.51138 
        1.04314         2.89405         2.47796         2.47796 
        1.04929         2.85465         2.44524         2.44524 
        1.05541         2.82267         2.41324         2.41324 
        1.06154         2.78864         2.38175         2.38175 
        1.06769         2.76065         2.35078         2.35078 
        1.07382         2.72318         2.32046         2.32046 
        1.07993         2.68224         2.29076         2.29076 
        1.08607         2.66554         2.26145         2.26145 
        1.09222         2.62861         2.23264         2.23264 
        1.09836         2.60724         2.20436         2.20436 
        1.10449         2.57468         2.17662         2.17662 
        1.11063         2.53792         2.14932         2.14932 
        1.11677          2.5089         2.12251         2.12251 
         1.1229         2.47993          2.0962          2.0962 
        1.12903         2.44976         2.07033         2.07033 
        1.13518         2.42996         2.04487         2.04487 
        1.14131         2.39187         2.01986         2.01986 
        1.14745         2.35375         1.99529         1.99529 
        1.15359         2.34229         1.97112         1.97112 
        1.15973         2.30477         1.94735         1.94735 
        1.16584         2.29525         1.92408         1.92408 
        1.17197         2.26474         1.90117         1.90117 
        1.17811           2.241         1.87856         1.87856 
        1.18424         2.22424         1.85638         1.85638 
        1.19038         2.19416         1.83451         1.83451 
        1.19652         2.16982           1.813           1.813 
        1.20267         2.15113         1.79183         1.79183 
        1.20881         2.12083         1.77102         1.77102 
        1.21495         2.10538         1.75057         1.75057 
        1.22108         2.08305         1.73044         1.73044 
         1.2272          2.0663         1.71069         1.71069 
        1.23334         2.03729          1.6912          1.6912 
        1.23949         2.01453         1.67197         1.67197 
        1.24562         2.00045          1.6531          1.6531 
        1.25174         1.97496         1.63455         1.63455 
        1.25789         1.95758         1.61623         1.61623 
        1.26402         1.93067         1.59823         1.59823 
        1.27014         1.91175         1.58055         1.58055 
        1.27628         1.90233         1.56308         1.56308 
        1.28244          1.8734         1.54585         1.54585 
        1.28858         1.85901          1.5289          1.5289 
        1.29471         1.83996         1.51225         1.51225 
        1.30084         1.81923         1.49586         1.49586 
        1.30697          1.8056         1.47969         1.47969 
        1.31312         1.77626         1.46374         1.46374 
        1.31925         1.76778         1.44808         1.44808 
        1.32537         1.75093         1.43266         1.43266 
        1.33151         1.73702         1.41742         1.41742 
        1.33765         1.71491          1.4024          1.4024 
        1.34378          1.6962         1.38764         1.38764 
        1.34992         1.68786         1.37308         1.37308 
        1.35606         1.66384          1.3587          1.3587 
         1.3622         1.65334         1.34455         1.34455 
        1.36833         1.63641         1.33064         1.33064 
        1.37445         1.61741         1.31694         1.31694 
        1.38059         1.60461         1.30339         1.30339 
        1.38675         1.59846         1.28999         1.28999 
        1.39288         1.57494         1.27684         1.27684 
        1.39901         1.55999         1.26389         1.26389 
        1.40515         1.54746         1.25108         1.25108 
         1.4113         1.53259         1.23846         1.23846 
        1.41742         1.51908         1.22606         1.22606 
        1.42355         1.51182         1.21381         1.21381 
         1.4297         1.48995         1.20169         1.20169 
        1.43585         1.48052         1.18975         1.18975 
        1.44198         1.47135         1.17801         1.17801 
        1.44809         1.45012         1.16645         1.16645 
        1.45423         1.43907         1.15501         1.15501 
        1.46036         1.42679         1.14375         1.14375 
        1.46649          1.4132         1.13263         1.13263 
        1.47263         1.39914         1.12165         1.12165 
        1.47877         1.38568         1.11082         1.11082 
        1.48491         1.37482         1.10012         1.10012 
        1.49104         1.36386         1.08959         1.08959 
        1.49718         1.35447         1.07918         1.07918 
        1.50333         1.33981          1.0689          1.0689 
        1.50947         1.33094         1.05877         1.05877 
         1.5156         1.31849         1.04879         1.04879 
        1.52172         1.30661         1.03894         1.03894 
        1.52787         1.29429          1.0292          1.0292 
          1.534         1.28675          1.0196          1.0196 
        1.54013         1.27114         1.01012         1.01012 
        1.54627          1.2597         1.00076         1.00076 
        1.55241         1.24991        0.991509        0.991509 
        1.55855         1.24036         0.98239         0.98239 
        1.56467         1.23153        0.973413        0.973413 
         1.5708         1.21672        0.964522        0.964522 
        1.57695         1.21168        0.955731        0.955731 
        1.58308         1.20058        0.947069        0.947069 
        1.58922         1.19088         0.93851         0.93851 
        1.59535         1.18097        0.930061        0.930061 
         1.6015         1.17157        0.921704        0.921704 
        1.60764         1.16346        0.913455        0.913455 
        1.61376         1.15211         0.90533         0.90533 
        1.61989         1.14335        0.897299        0.897299 
        1.62604         1.13358        0.889348        0.889348 
        1.63218         1.12767        0.881498        0.881498 
        1.63831         1.11493        0.873762        0.873762 
        1.64444         1.10583        0.866117        0.866117 
        1.65059         1.09892        0.858546        0.858546 
        1.65673         1.08924        0.851074        0.851074 
        1.66285          1.0795        0.843713        0.843713 
        1.66898         1.07437        0.836437        0.836437 
        1.67512         1.06206        0.829233        0.829233 
        1.68127          1.0552        0.822109        0.822109 
         1.6874         1.04928        0.815084        0.815084 
        1.69353         1.03793        0.808146        0.808146 
        1.69967         1.02999        0.801274        0.801274 
        1.70581         1.02473        0.794484        0.794484 
        1.71193         1.01544        0.787799        0.787799 
        1.71806         1.00923        0.781178        0.781178 
        1.72421         1.00061         0.77462         0.77462 
        1.73035        0.991391        0.768145        0.768145 
        1.73649        0.986405        0.761746        0.761746 
        1.74262        0.978429        0.755426        0.755426 
        1.74876        0.970296        0.749174        0.749174 
        1.75489        0.961781        0.743005        0.743005 
        1.76101        0.954714        0.736909        0.736909 
        1.76715        0.948491        0.730873        0.730873 
        1.77329        0.941648        0.724898        0.724898 
        1.77943        0.933485        0.718987        0.718987 
        1.78557        0.926551        0.713152        0.713152 
        1.79171        0.921521        0.707381        0.707381 
        1.79785        0.913767        0.701673        0.701673 
        1.80399        0.907562         0.69603         0.69603 
        1.81012        0.901933        0.690457        0.690457 
        1.81625        0.893341        0.684947        0.684947 
        1.82239        0.888388         0.67949         0.67949 
        1.82853        0.878118        0.674096        0.674096 
        1.83466        0.874202        0.668766        0.668766 
        1.84078        0.867392        0.663499        0.663499 
        1.84692         0.86322        0.658281        0.658281 
        1.85306        0.855872        0.653113        0.653113 
         1.8592        0.850792        0.648009        0.648009 
        1.86533         0.84396        0.642963        0.642963 
        1.87147        0.838236        0.637965        0.637965 
