# k  (h/Mpc)    P(k)  (Mpc/h)^3    P_linear(k)  (Mpc/h)^3     P_NL(k)  ShotnoiseSubtracted = false
     0.00783031         3516.33         3555.59         3555.59 
       0.013688         4506.32         4496.39         4496.39 
       0.019231         4639.22         4635.02         4635.02 
      0.0249154         4322.93          4365.6          4365.6 
      0.0312784         3854.79         3867.88         3867.88 
      0.0375637         3381.82         3375.03         3375.03 
      0.0433917         2983.13         3002.55         3002.55 
      0.0492413         2720.63         2724.91         2724.91 
      0.0555754         2476.91         2507.28         2507.28 
      0.0619321         2341.62         2331.98         2331.98 
       0.067871         2150.81          2172.2          2172.2 
      0.0738098         1977.55         1998.89         1998.89 
      0.0800417         1775.16         1803.54         1803.54 
      0.0862327         1596.55         1610.74         1610.74 
      0.0921407         1442.66         1444.94         1444.94 
      0.0982031         1297.63         1305.16         1305.16 
       0.104506         1207.53         1195.65         1195.65 
       0.110769         1125.95         1117.18         1117.18 
       0.116806         1059.23         1059.49         1059.49 
       0.122832         1013.96         1008.14         1008.14 
       0.129052         947.942         952.653         952.653 
       0.135211         888.586         891.328         891.328 
       0.141259         833.678         826.407         826.407 
       0.147318         775.057         761.485         761.485 
       0.153489         710.518         700.996         700.996 
       0.159709          664.69         649.757         649.757 
       0.165845         633.409         609.868         609.868 
       0.171974         596.127         579.076         579.076 
       0.178125         571.254         554.069         554.069 
       0.184229         550.299         531.537         531.537 
        0.19034         516.793         508.463         508.463 
       0.196428         501.002         483.638         483.638 
       0.202534         480.883         457.134         457.134 
       0.208729         452.178         429.984         429.984 
       0.214876         424.343         404.517         404.517 
       0.220989         409.036         381.999         381.999 
       0.227147         384.961         362.747         362.747 
        0.23329         369.695         346.736         346.736 
       0.239377         359.499         333.187         333.187 
       0.245482         339.286         320.856         320.856 
       0.251667         333.172         308.693         308.693 
       0.257832         321.223         296.309         296.309 
       0.263955         308.443          283.66          283.66 
       0.270079         296.623         270.943         270.943 
        0.27624         289.289         258.558         258.558 
       0.282372         277.247         247.097         247.097 
        0.28843         266.546         236.873         236.873 
       0.294538         255.808         227.713         227.713 
       0.300721         251.765          219.43          219.43 
        0.30691         240.653         211.832         211.832 
       0.313033         234.198         204.684         204.684 
       0.319153         224.159         197.684         197.684 
       0.325316         219.551         190.675         190.675 
        0.33145         211.693         183.765         183.765 
       0.337538         207.563         177.076         177.076 
       0.343633         200.444          170.68          170.68 
       0.349808         194.327         164.603         164.603 
       0.355968         190.041         158.994         158.994 
       0.362074         184.551         153.847         153.847 
       0.368217         179.536         149.018         149.018 
       0.374374         174.269         144.433         144.433 
       0.380519         170.383         140.025         140.025 
       0.386598         165.897         135.782         135.782 
       0.392688         162.993         131.627         131.627 
        0.39888         158.579         127.515         127.515 
       0.405048         154.918         123.565         123.565 
       0.411186          151.47         119.805         119.805 
       0.417313         147.485         116.241         116.241 
       0.423458         144.184         112.862         112.862 
       0.429607         140.546         109.654         109.654 
       0.435692         136.169         106.629         106.629 
       0.441815         134.943         103.709         103.709 
       0.447964         132.684         100.876         100.876 
       0.454126         126.984         98.1223         98.1223 
       0.460267          125.35         95.4629         95.4629 
       0.466387         122.922         92.8976         92.8976 
        0.47254          120.76         90.4081         90.4081 
       0.478662          119.03         88.0267         88.0267 
       0.484765         115.886         85.7515         85.7515 
       0.490885         113.736         83.5635         83.5635 
       0.497035         112.179          81.451          81.451 
       0.503198         109.172         79.4141         79.4141 
       0.509342         106.862         77.4549         77.4549 
       0.515458         105.227         75.5684         75.5684 
       0.521598         103.825         73.7322         73.7322 
       0.527764         102.031         71.9448         71.9448 
       0.533884         100.268         70.2276         70.2276 
           0.54         98.4177          68.569          68.569 
       0.546137         97.3217         66.9609         66.9609 
       0.552299         95.8826         65.4009         65.4009 
       0.558452          93.406         63.8963         63.8963 
       0.564573         91.7402         62.4493         62.4493 
       0.570708         90.7169         61.0463         61.0463 
       0.576825         89.0476         59.6914         59.6914 
       0.582926          87.411         58.3811         58.3811 
       0.589034         85.5252         57.1074         57.1074 
       0.595184         84.5383         55.8625         55.8625 
       0.601379         83.5525         54.6461         54.6461 
       0.607522         81.4869         53.4763         53.4763 
       0.613639         81.3077         52.3468         52.3468 
       0.619772         79.3191         51.2486         51.2486 
       0.625918         78.7225         50.1809         50.1809 
       0.632068         77.6819         49.1438         49.1438 
       0.638161         76.4976         48.1457         48.1457 
         0.6443         75.3467         47.1684         47.1684 
       0.650464         74.2418         46.2149         46.2149 
       0.656582          73.533         45.2948         45.2948 
       0.662703         72.0672         44.3998         44.3998 
       0.668861         71.2624         43.5243         43.5243 
       0.675024         70.2608         42.6721         42.6721 
       0.681124         69.2051         41.8518         41.8518 
       0.687237         68.0396         41.0517         41.0517 
       0.693381         67.4571         40.2692         40.2692 
       0.699536         66.2696          39.506          39.506 
       0.705665         66.4992         38.7662         38.7662 
       0.711789         64.7164         38.0463         38.0463 
       0.717957          64.193           37.34           37.34 
        0.72409         63.2934         36.6559         36.6559 
       0.730186         62.3025         35.9932         35.9932 
       0.736317         62.0222         35.3436         35.3436 
       0.742472         61.0278         34.7079         34.7079 
       0.748622         60.5292         34.0886         34.0886 
        0.75476         59.7328          33.486          33.486 
       0.760888         58.8925          32.899          32.899 
       0.767043         58.2664         32.3241         32.3241 
       0.773185         57.5065         31.7642         31.7642 
       0.779291         57.1898          31.221          31.221 
       0.785407         56.6346         30.6899         30.6899 
       0.791564         55.6896         30.1679         30.1679 
       0.797719         54.8074         29.6585         29.6585 
       0.803834         54.6791         29.1643         29.1643 
       0.809972         53.8235         28.6797         28.6797 
       0.816124         53.0078         28.2051         28.2051 
       0.822261         52.7388         27.7428         27.7428 
       0.828378         52.2819         27.2923         27.2923 
       0.834502         51.6608         26.8516         26.8516 
       0.840667         51.1957         26.4179         26.4179 
       0.846816         50.4803         25.9951         25.9951 
       0.852925         50.0617         25.5844         25.5844 
       0.859047          49.386         25.1817         25.1817 
       0.865192         49.0808         24.7866         24.7866 
       0.871341         48.8144         24.3997         24.3997 
       0.877463         47.8524          24.023          24.023 
       0.883569         47.4997         23.6553         23.6553 
       0.889708         47.1766         23.2935         23.2935 
       0.895864         46.7227         22.9384         22.9384 
       0.902008          46.343         22.5916         22.5916 
       0.908149         45.9019         22.2522         22.2522 
       0.914301         45.6468         21.9194         21.9194 
       0.920448         44.9128         21.5937         21.5937 
       0.926574         44.6458         21.2759         21.2759 
       0.932687         44.1901         20.9653         20.9653 
       0.938823         43.6032         20.6598         20.6598 
       0.944975         43.4292         20.3597         20.3597 
       0.951105         43.0224         20.0668         20.0668 
       0.957225         42.5042         19.7802         19.7802 
       0.963368         42.3358         19.4983         19.4983 
       0.969511         41.9829          19.222          19.222 
       0.975621          41.643         18.9526         18.9526 
       0.981748          41.111         18.6877         18.6877 
       0.987916         40.8781         18.4262         18.4262 
        0.99406          40.569         18.1708         18.1708 
        1.00019         40.0388         17.9208         17.9208 
        1.00632         39.8888         17.6758         17.6758 
        1.01246         39.5665          17.435          17.435 
        1.01859         39.0521         17.1992         17.1992 
        1.02471         39.0387          16.968          16.968 
        1.03085         38.6376         16.7404         16.7404 
        1.03698          38.102         16.5174         16.5174 
        1.04314         37.8018         16.2977         16.2977 
        1.04929         37.5904         16.0825         16.0825 
        1.05541         37.1846          15.872          15.872 
        1.06154         37.0515         15.6649         15.6649 
        1.06769         36.7357         15.4612         15.4612 
        1.07382         36.4592         15.2618         15.2618 
        1.07993         36.3188         15.0664         15.0664 
        1.08607         35.8267         14.8737         14.8737 
        1.09222         35.7024         14.6842         14.6842 
        1.09836         35.3065         14.4982         14.4982 
        1.10449         35.1379         14.3157         14.3157 
        1.11063         34.6615         14.1362         14.1362 
        1.11677         34.5506         13.9598         13.9598 
         1.1229         34.4264         13.7868         13.7868 
        1.12903         33.9407         13.6166         13.6166 
        1.13518         33.7624         13.4492         13.4492 
        1.14131         33.6811         13.2847         13.2847 
        1.14745         33.3364         13.1231         13.1231 
        1.15359         33.1979         12.9642         12.9642 
        1.15973         32.8196         12.8078         12.8078 
        1.16584         32.5166         12.6548         12.6548 
        1.17197         32.5598         12.5041         12.5041 
        1.17811         32.1181         12.3554         12.3554 
        1.18424         31.8402         12.2095         12.2095 
        1.19038         31.7969         12.0656         12.0656 
        1.19652         31.5913         11.9242         11.9242 
        1.20267         31.3466          11.785          11.785 
        1.20881         31.1255         11.6481         11.6481 
        1.21495         30.8836         11.5136         11.5136 
        1.22108         30.6759         11.3812         11.3812 
         1.2272         30.3377         11.2513         11.2513 
        1.23334         30.2396         11.1231         11.1231 
        1.23949         30.0354         10.9967         10.9967 
        1.24562         29.9079         10.8725         10.8725 
        1.25174         29.7456         10.7505         10.7505 
        1.25789         29.5235           10.63           10.63 
        1.26402         29.3906         10.5116         10.5116 
        1.27014         29.0677         10.3953         10.3953 
        1.27628         28.8738         10.2805         10.2805 
        1.28244         28.7571         10.1671         10.1671 
        1.28858         28.6396         10.0557         10.0557 
        1.29471         28.4164         9.94614         9.94614 
        1.30084         28.2208         9.83836         9.83836 
        1.30697         28.0098         9.73202         9.73202 
        1.31312         27.7761         9.62711         9.62711 
        1.31925         27.6582         9.52409         9.52409 
        1.32537         27.5647         9.42269         9.42269 
        1.33151         27.3131         9.32242         9.32242 
        1.33765         27.2391         9.22368         9.22368 
        1.34378         27.1119         9.12657         9.12657 
        1.34992         26.7334         9.03081         9.03081 
        1.35606         26.6837         8.93623         8.93623 
         1.3622         26.5273         8.84318         8.84318 
        1.36833         26.3463         8.75169         8.75169 
        1.37445         26.3091         8.66156         8.66156 
        1.38059         26.1308         8.57243         8.57243 
        1.38675         25.8634         8.48435         8.48435 
        1.39288         25.7874         8.39787         8.39787 
        1.39901         25.5808         8.31264         8.31264 
        1.40515         25.4754         8.22842         8.22842 
         1.4113         25.3206         8.14541         8.14541 
        1.41742          25.087         8.06387         8.06387 
        1.42355         25.0451          7.9833          7.9833 
         1.4297         24.8877         7.90359         7.90359 
        1.43585         24.8255         7.82502         7.82502 
        1.44198          24.554         7.74782         7.74782 
        1.44809         24.4825         7.67182         7.67182 
        1.45423         24.3569         7.59657         7.59657 
        1.46036         24.2682         7.52247         7.52247 
        1.46649         24.0942         7.44934         7.44934 
        1.47263         23.9239         7.37713         7.37713 
        1.47877         23.8249         7.30592         7.30592 
        1.48491           23.68         7.23555         7.23555 
        1.49104           23.64         7.16626         7.16626 
        1.49718          23.417         7.09783         7.09783 
        1.50333         23.3272          7.0302          7.0302 
        1.50947         23.2432         6.96359         6.96359 
         1.5156          23.039         6.89796         6.89796 
        1.52172         22.8636         6.83317         6.83317 
        1.52787         22.8577          6.7691          6.7691 
          1.534         22.6822         6.70593         6.70593 
        1.54013         22.4985         6.64364         6.64364 
        1.54627         22.4543         6.58203         6.58203 
        1.55241         22.2974          6.5212          6.5212 
        1.55855         22.1951         6.46123         6.46123 
        1.56467         22.1054         6.40218         6.40218 
         1.5708         22.0155         6.34371         6.34371 
        1.57695         21.7941         6.28588         6.28588 
        1.58308          21.818         6.22892         6.22892 
        1.58922         21.6544         6.17262         6.17262 
        1.59535         21.5206         6.11705         6.11705 
         1.6015         21.4115         6.06209         6.06209 
        1.60764         21.3521         6.00784         6.00784 
        1.61376         21.2339          5.9544          5.9544 
        1.61989         21.0375         5.90158         5.90158 
        1.62604         21.0228         5.84928         5.84928 
        1.63218         20.8662         5.79765         5.79765 
        1.63831         20.8171         5.74677         5.74677 
        1.64444          20.652         5.69649         5.69649 
        1.65059         20.5656          5.6467          5.6467 
        1.65673         20.4979         5.59755         5.59755 
        1.66285         20.3535         5.54914         5.54914 
        1.66898         20.2889         5.50128         5.50128 
        1.67512         20.2083         5.45391         5.45391 
        1.68127         20.0511         5.40705         5.40705 
         1.6874         19.9618         5.36084         5.36084 
        1.69353         19.9237         5.31521         5.31521 
        1.69967         19.7512         5.27001         5.27001 
        1.70581         19.6519         5.22536         5.22536 
        1.71193         19.5516         5.18139         5.18139 
        1.71806         19.5034         5.13784         5.13784 
        1.72421         19.3979         5.09471         5.09471 
        1.73035         19.3328         5.05213         5.05213 
        1.73649         19.1975         5.01004         5.01004 
        1.74262         19.1629         4.96847         4.96847 
        1.74876         19.0366         4.92735         4.92735 
        1.75489         18.9564         4.88678         4.88678 
        1.76101         18.8567         4.84668         4.84668 
        1.76715         18.8228         4.80698         4.80698 
        1.77329         18.7119         4.76768         4.76768 
        1.77943         18.6006         4.72881         4.72881 
        1.78557         18.5241         4.69043         4.69043 
        1.79171         18.4776         4.65247         4.65247 
        1.79785         18.3365         4.61493         4.61493 
        1.80399          18.264         4.57782         4.57782 
        1.81012         18.2051         4.54116         4.54116 
        1.81625         18.1048         4.50493         4.50493 
        1.82239         18.0549         4.46904         4.46904 
        1.82853         17.9005         4.43356         4.43356 
        1.83466         17.8395          4.3985          4.3985 
        1.84078         17.7126         4.36386         4.36386 
        1.84692         17.6979         4.32954         4.32954 
        1.85306         17.5925         4.29555         4.29555 
         1.8592         17.5389         4.26199         4.26199 
        1.86533         17.4547          4.2288          4.2288 
        1.87147         17.3692         4.19592         4.19592 
        1.87761         17.3222         4.16339         4.16339 
