# k  (h/Mpc)    P(k)  (Mpc/h)^3    P_linear(k)  (Mpc/h)^3     P_NL(k)  ShotnoiseSubtracted = false
     0.00783031         105.692         106.622         106.622 
       0.013688         134.381         134.951         134.951 
       0.019231         138.998         139.156         139.156 
      0.0249154         130.696         131.089         131.089 
      0.0312784         116.134         116.156         116.156 
      0.0375637         101.517         101.362         101.362 
      0.0433917         90.2202         90.1786         90.1786 
      0.0492413          81.928         81.8421         81.8421 
      0.0555754         75.2517         75.3072         75.3072 
      0.0619321         70.1442         70.0431         70.0431 
       0.067871         65.1755         65.2446         65.2446 
      0.0738098         59.9524         60.0395         60.0395 
      0.0800417         54.0628         54.1723         54.1723 
      0.0862327         48.3506         48.3816         48.3816 
      0.0921407          43.411         43.4017         43.4017 
      0.0982031         39.1846         39.2034         39.2034 
       0.104506         35.9779          35.914          35.914 
       0.110769         33.5917          33.557          33.557 
       0.116806         31.7786         31.8243         31.8243 
       0.122832         30.2781         30.2819         30.2819 
       0.129052         28.5592         28.6153         28.6153 
       0.135211         26.7081         26.7733         26.7733 
       0.141259         24.8059         24.8233         24.8233 
       0.147318          22.899         22.8732         22.8732 
       0.153489         21.0605         21.0563         21.0563 
       0.159709         19.5224         19.5172         19.5172 
       0.165845         18.3763         18.3191         18.3191 
       0.171974         17.3865         17.3942         17.3942 
       0.178125         16.6402          16.643          16.643 
       0.184229         15.9798         15.9662         15.9662 
        0.19034         15.2371         15.2731         15.2731 
       0.196428         14.5203         14.5274         14.5274 
       0.202534         13.7693         13.7313         13.7313 
       0.208729         12.9278         12.9158         12.9158 
       0.214876         12.1388         12.1508         12.1508 
       0.220989         11.5144         11.4744         11.4744 
       0.227147          10.888         10.8962         10.8962 
        0.23329         10.4075         10.4152         10.4152 
       0.239377         10.0046         10.0082         10.0082 
       0.245482          9.6223         9.63784         9.63784 
       0.251667         9.28246          9.2725          9.2725 
       0.257832         8.89825          8.9005          8.9005 
       0.263955         8.52537         8.52055         8.52055 
       0.270079         8.14878         8.13858         8.13858 
        0.27624         7.79757         7.76656         7.76656 
       0.282372         7.45179         7.42228         7.42228 
        0.28843         7.12733         7.11519         7.11519 
       0.294538         6.85358         6.84004         6.84004 
       0.300721         6.62078         6.59124         6.59124 
        0.30691         6.37422           6.363           6.363 
       0.313033         6.16174          6.1483          6.1483 
       0.319153         5.92345         5.93803         5.93803 
       0.325316         5.75369         5.72748         5.72748 
        0.33145         5.54039         5.51994         5.51994 
       0.337538         5.33764           5.319           5.319 
       0.343633         5.13866          5.1269          5.1269 
       0.349808          4.9638         4.94435         4.94435 
       0.355968         4.79794         4.77586         4.77586 
       0.362074         4.63857         4.62126         4.62126 
       0.368217         4.49446         4.47621         4.47621 
       0.374374         4.34431         4.33849         4.33849 
       0.380519         4.22378         4.20607         4.20607 
       0.386598         4.09999         4.07864         4.07864 
       0.392688         3.98115         3.95382         3.95382 
        0.39888         3.85219         3.83031         3.83031 
       0.405048         3.73557         3.71166         3.71166 
       0.411186         3.62522          3.5987          3.5987 
       0.417313         3.51116         3.49166         3.49166 
       0.423458         3.41634         3.39014         3.39014 
       0.429607         3.31248         3.29378         3.29378 
       0.435692         3.22157         3.20293         3.20293 
       0.441815         3.13522         3.11521         3.11521 
       0.447964         3.05938         3.03011         3.03011 
       0.454126         2.96621          2.9474          2.9474 
       0.460267          2.8852         2.86752         2.86752 
       0.466387         2.80544         2.79046         2.79046 
        0.47254         2.73349         2.71568         2.71568 
       0.478662         2.66492         2.64415         2.64415 
       0.484765         2.59266         2.57581         2.57581 
       0.490885         2.52847         2.51008         2.51008 
       0.497035         2.47465         2.44663         2.44663 
       0.503198         2.40794         2.38544         2.38544 
       0.509342         2.35269         2.32659         2.32659 
       0.515458         2.29096         2.26993         2.26993 
       0.521598          2.2369         2.21477         2.21477 
       0.527764         2.17867         2.16108         2.16108 
       0.533884         2.13472          2.1095          2.1095 
           0.54         2.08264         2.05968         2.05968 
       0.546137         2.03661         2.01137         2.01137 
       0.552299         1.98837         1.96452         1.96452 
       0.558452         1.93877         1.91932         1.91932 
       0.564573         1.89854         1.87586         1.87586 
       0.570708         1.85654         1.83371         1.83371 
       0.576825         1.81346         1.79301         1.79301 
       0.582926         1.77812         1.75365         1.75365 
       0.589034         1.73107         1.71539         1.71539 
       0.595184         1.69595           1.678           1.678 
       0.601379         1.65987         1.64146         1.64146 
       0.607522         1.62832         1.60632         1.60632 
       0.613639          1.5982          1.5724          1.5724 
       0.619772         1.55872         1.53941         1.53941 
       0.625918         1.52844         1.50734         1.50734 
       0.632068         1.50012         1.47618         1.47618 
       0.638161         1.46726          1.4462          1.4462 
         0.6443         1.43774         1.41685         1.41685 
       0.650464         1.40592         1.38821         1.38821 
       0.656582         1.38123         1.36057         1.36057 
       0.662703         1.35469         1.33369         1.33369 
       0.668861         1.33175         1.30739         1.30739 
       0.675024         1.30293         1.28179         1.28179 
       0.681124         1.27512         1.25715         1.25715 
       0.687237         1.25468         1.23311         1.23311 
       0.693381         1.23183         1.20961         1.20961 
       0.699536         1.20305         1.18669         1.18669 
       0.705665         1.18206         1.16446         1.16446 
       0.711789         1.16291         1.14284         1.14284 
       0.717957         1.13933         1.12162         1.12162 
        0.72409         1.11989         1.10107         1.10107 
       0.730186         1.09875         1.08117         1.08117 
       0.736317         1.08328         1.06165         1.06165 
       0.742472         1.06295         1.04256         1.04256 
       0.748622         1.04304         1.02396         1.02396 
        0.75476         1.02269         1.00585         1.00585 
       0.760888         1.00454        0.988224        0.988224 
       0.767043        0.992603        0.970952        0.970952 
       0.773185        0.972309        0.954136        0.954136 
       0.779291        0.956163        0.937818        0.937818 
       0.785407        0.940495        0.921864        0.921864 
       0.791564        0.925168        0.906186        0.906186 
       0.797719        0.911013        0.890885        0.890885 
       0.803834        0.896251        0.876039        0.876039 
       0.809972         0.88066        0.861482        0.861482 
       0.816124        0.865504        0.847228        0.847228 
       0.822261        0.850364         0.83334         0.83334 
       0.828378        0.838606        0.819809        0.819809 
       0.834502        0.826466         0.80657         0.80657 
       0.840667        0.810564        0.793543        0.793543 
       0.846816        0.798192        0.780843        0.780843 
       0.852925         0.78828        0.768505        0.768505 
       0.859047        0.775732        0.756411        0.756411 
       0.865192        0.762374        0.744541        0.744541 
       0.871341        0.750398        0.732921        0.732921 
       0.877463        0.741638        0.721604        0.721604 
       0.883569        0.728617        0.710559        0.710559 
       0.889708        0.717625        0.699691        0.699691 
       0.895864         0.70677        0.689025        0.689025 
       0.902008        0.695647        0.678607        0.678607 
       0.908149        0.685255        0.668414        0.668414 
       0.914301        0.672961        0.658416        0.658416 
       0.920448        0.664376        0.648634        0.648634 
       0.926574        0.654506        0.639088        0.639088 
       0.932687        0.644786        0.629756        0.629756 
       0.938823        0.637928         0.62058         0.62058 
       0.944975         0.62805        0.611568        0.611568 
       0.951105        0.619617        0.602769        0.602769 
       0.957225        0.612105         0.59416         0.59416 
       0.963368        0.602795        0.585693        0.585693 
       0.969511        0.593214        0.577392        0.577392 
       0.975621        0.584554        0.569299        0.569299 
       0.981748        0.578669        0.561342        0.561342 
       0.987916        0.570045        0.553488        0.553488 
        0.99406        0.561708        0.545816        0.545816 
        1.00019        0.555363        0.538307        0.538307 
        1.00632        0.545979        0.530946        0.530946 
        1.01246        0.538694        0.523714        0.523714 
        1.01859        0.532558         0.51663         0.51663 
        1.02471        0.525013        0.509687        0.509687 
        1.03085        0.519764        0.502849        0.502849 
        1.03698        0.511642        0.496153        0.496153 
        1.04314        0.505335        0.489551        0.489551 
        1.04929        0.498114        0.483086        0.483086 
        1.05541        0.492785        0.476765        0.476765 
        1.06154        0.485526        0.470544        0.470544 
        1.06769        0.478822        0.464424        0.464424 
        1.07382        0.473337        0.458435        0.458435 
        1.07993        0.466563        0.452567        0.452567 
        1.08607         0.46259        0.446777        0.446777 
        1.09222        0.455614        0.441084        0.441084 
        1.09836        0.451406        0.435498        0.435498 
        1.10449          0.4456        0.430016        0.430016 
        1.11063        0.438886        0.424624        0.424624 
        1.11677         0.43304        0.419327        0.419327 
         1.1229         0.42868         0.41413         0.41413 
        1.12903        0.422892        0.409018        0.409018 
        1.13518        0.418522        0.403988        0.403988 
        1.14131        0.412936        0.399047        0.399047 
        1.14745        0.406445        0.394193        0.394193 
        1.15359        0.402925        0.389419        0.389419 
        1.15973        0.397134        0.384722        0.384722 
        1.16584        0.394068        0.380126        0.380126 
        1.17197        0.389033        0.375598        0.375598 
        1.17811        0.385018        0.371131        0.371131 
        1.18424        0.381286        0.366751        0.366751 
        1.19038        0.375829        0.362429        0.362429 
        1.19652        0.370556        0.358179        0.358179 
        1.20267        0.367791        0.353998        0.353998 
        1.20881        0.363054        0.349885        0.349885 
        1.21495        0.359801        0.345845        0.345845 
        1.22108        0.355207         0.34187         0.34187 
         1.2272        0.351705        0.337967        0.337967 
        1.23334        0.347302        0.334117        0.334117 
        1.23949        0.343516        0.330319        0.330319 
        1.24562        0.339725         0.32659         0.32659 
        1.25174        0.336234        0.322925        0.322925 
        1.25789        0.333037        0.319306        0.319306 
        1.26402          0.3282         0.31575         0.31575 
        1.27014        0.325037        0.312256        0.312256 
        1.27628        0.322093        0.308806        0.308806 
        1.28244        0.317482        0.305402        0.305402 
        1.28858        0.314687        0.302053        0.302053 
        1.29471        0.312157        0.298763        0.298763 
        1.30084         0.30803        0.295526        0.295526 
        1.30697        0.304841        0.292331        0.292331 
        1.31312        0.300665         0.28918         0.28918 
        1.31925        0.298022        0.286086        0.286086 
        1.32537        0.295363         0.28304         0.28304 
        1.33151        0.292633        0.280028        0.280028 
        1.33765        0.289482        0.277062        0.277062 
        1.34378        0.285863        0.274145        0.274145 
        1.34992        0.283251        0.271268        0.271268 
        1.35606        0.280367        0.268427        0.268427 
         1.3622        0.277552        0.265632        0.265632 
        1.36833         0.27453        0.262884        0.262884 
        1.37445        0.271102        0.260177        0.260177 
        1.38059        0.268658        0.257499        0.257499 
        1.38675         0.26723        0.254854        0.254854 
        1.39288        0.263981        0.252256        0.252256 
        1.39901        0.261355        0.249696        0.249696 
        1.40515        0.259126        0.247166        0.247166 
         1.4113         0.25584        0.244673        0.244673 
        1.41742        0.253431        0.242223        0.242223 
        1.42355        0.251634        0.239803        0.239803 
         1.4297        0.248571        0.237409        0.237409 
        1.43585        0.246437        0.235049        0.235049 
        1.44198        0.244494         0.23273         0.23273 
        1.44809        0.241608        0.230447        0.230447 
        1.45423        0.239577        0.228187        0.228187 
        1.46036        0.237074        0.225961        0.225961 
        1.46649        0.235393        0.223764        0.223764 
        1.47263        0.232859        0.221595        0.221595 
        1.47877        0.230067        0.219456        0.219456 
        1.48491        0.228416        0.217342        0.217342 
        1.49104         0.22563        0.215261        0.215261 
        1.49718        0.223688        0.213206        0.213206 
        1.50333        0.222213        0.211174        0.211174 
        1.50947        0.219812        0.209173        0.209173 
         1.5156        0.217673        0.207202        0.207202 
        1.52172        0.215879        0.205256        0.205256 
        1.52787        0.213824        0.203331        0.203331 
          1.534        0.211625        0.201433        0.201433 
        1.54013        0.209689        0.199562        0.199562 
        1.54627        0.208237        0.197712        0.197712 
        1.55241         0.20589        0.195884        0.195884 
        1.55855        0.203858        0.194083        0.194083 
        1.56467        0.202979        0.192309        0.192309 
         1.5708        0.200732        0.190553        0.190553 
        1.57695         0.19891        0.188816        0.188816 
        1.58308        0.197059        0.187105        0.187105 
        1.58922        0.195458        0.185414        0.185414 
        1.59535        0.193655        0.183745        0.183745 
         1.6015        0.191786        0.182094        0.182094 
        1.60764        0.190379        0.180464        0.180464 
        1.61376        0.188293        0.178859        0.178859 
        1.61989        0.186956        0.177272        0.177272 
        1.62604        0.185526        0.175701        0.175701 
        1.63218        0.183883        0.174151        0.174151 
        1.63831        0.182343        0.172622        0.172622 
        1.64444        0.180769        0.171112        0.171112 
        1.65059        0.179293        0.169616        0.169616 
        1.65673         0.17777         0.16814         0.16814 
        1.66285        0.176503        0.166686        0.166686 
        1.66898        0.174893        0.165248        0.165248 
        1.67512        0.173134        0.163825        0.163825 
        1.68127        0.171575        0.162418        0.162418 
         1.6874        0.170581         0.16103         0.16103 
        1.69353        0.168717        0.159659        0.159659 
        1.69967        0.167895        0.158301        0.158301 
        1.70581        0.165899         0.15696         0.15696 
        1.71193         0.16476        0.155639        0.155639 
        1.71806         0.16316        0.154331        0.154331 
        1.72421        0.162355        0.153036        0.153036 
        1.73035        0.160712        0.151756        0.151756 
        1.73649        0.159647        0.150492        0.150492 
        1.74262        0.158244        0.149244        0.149244 
        1.74876         0.15692        0.148008        0.148008 
        1.75489        0.155905         0.14679         0.14679 
        1.76101        0.154326        0.145585        0.145585 
        1.76715        0.153126        0.144393        0.144393 
        1.77329        0.151685        0.143212        0.143212 
        1.77943        0.150634        0.142045        0.142045 
        1.78557         0.14975        0.140892        0.140892 
        1.79171        0.148504        0.139752        0.139752 
        1.79785        0.147333        0.138624        0.138624 
        1.80399        0.146106        0.137509        0.137509 
        1.81012        0.145111        0.136408        0.136408 
        1.81625        0.143831         0.13532         0.13532 
        1.82239        0.142732        0.134242        0.134242 
        1.82853         0.14154        0.133176        0.133176 
        1.83466        0.140577        0.132123        0.132123 
        1.84078        0.139436        0.131082        0.131082 
        1.84692        0.138247        0.130051        0.130051 
        1.85306         0.13749         0.12903         0.12903 
         1.8592        0.136138        0.128022        0.128022 
        1.86533         0.13534        0.127025        0.127025 
        1.87147        0.134234        0.126038        0.126038 
        1.87761        0.133429         0.12506         0.12506 
