# k  (h/Mpc)    Pcb(k)  (Mpc/h)^3    Pcb_linear(k) (Mpc/h)^3    Pcb_NL(k) (Mpc/h)^3   ShotnoiseSubtracted = false
     0.00783031         9870.07         10002.4         10002.4 
       0.013688         12728.4         12644.8         12644.8 
       0.019231           13047         13032.7         13032.7 
      0.0249154         12059.5         12274.1         12274.1 
      0.0312784         10773.1         10874.2         10874.2 
      0.0375637         9478.34         9488.26         9488.26 
      0.0433917         8302.66         8440.92         8440.92 
      0.0492413          7597.9         7660.28         7660.28 
      0.0555754         6853.69          7048.4          7048.4 
      0.0619321         6547.45         6555.55         6555.55 
       0.067871         5951.97         6106.33         6106.33 
      0.0738098         5475.19          5619.1          5619.1 
      0.0800417         4894.43         5069.92         5069.92 
      0.0862327         4425.28         4527.93         4527.93 
      0.0921407          4031.1         4061.83         4061.83 
      0.0982031         3624.31          3668.9          3668.9 
       0.104506          3408.8         3361.05         3361.05 
       0.110769          3175.2         3140.45         3140.45 
       0.116806         2990.18         2978.29         2978.29 
       0.122832         2857.32         2833.93         2833.93 
       0.129052         2653.11         2677.95         2677.95 
       0.135211         2498.05         2505.56         2505.56 
       0.141259         2365.99         2323.06         2323.06 
       0.147318         2213.61         2140.56         2140.56 
       0.153489         2028.75         1970.53         1970.53 
       0.159709         1917.89         1826.49         1826.49 
       0.165845         1845.11         1714.36         1714.36 
       0.171974         1744.26          1627.8          1627.8 
       0.178125         1666.42          1557.5          1557.5 
       0.184229         1603.19         1494.17         1494.17 
        0.19034         1503.98          1429.3          1429.3 
       0.196428         1471.93         1359.52         1359.52 
       0.202534         1416.06         1285.02         1285.02 
       0.208729         1343.41          1208.7          1208.7 
       0.214876         1275.87         1137.11         1137.11 
       0.220989         1235.17         1073.81         1073.81 
       0.227147         1175.37         1019.69         1019.69 
        0.23329         1131.58         974.682         974.682 
       0.239377         1111.65         936.596         936.596 
       0.245482         1041.49         901.932         901.932 
       0.251667         1033.17         867.741         867.741 
       0.257832         994.419         832.929         832.929 
       0.263955         960.874         797.374         797.374 
       0.270079         927.137         761.627         761.627 
        0.27624         915.683         726.812         726.812 
       0.282372         876.704         694.592         694.592 
        0.28843         861.719         665.854         665.854 
       0.294538         819.984         640.105         640.105 
       0.300721         816.961         616.822         616.822 
        0.30691         780.873         595.462         595.462 
       0.313033         766.006         575.371         575.371 
       0.319153         746.864         555.693         555.693 
       0.325316         723.931          535.99          535.99 
        0.33145         704.809         516.568         516.568 
       0.337538          695.26         497.763         497.763 
       0.343633          674.73         479.785         479.785 
       0.349808         652.523         462.703         462.703 
       0.355968         648.175         446.934         446.934 
       0.362074         637.577         432.467         432.467 
       0.368217           619.9         418.892         418.892 
       0.374374         594.513         406.004         406.004 
       0.380519         591.824         393.612         393.612 
       0.386598         577.377         381.685         381.685 
       0.392688         574.608         370.006         370.006 
        0.39888         558.022         358.447         358.447 
       0.405048         547.582         347.344         347.344 
       0.411186         538.377         336.773         336.773 
       0.417313         528.504         326.756         326.756 
       0.423458         519.279         317.255         317.255 
       0.429607         509.727         308.238         308.238 
       0.435692         498.056         299.736         299.736 
       0.441815         494.632         291.527         291.527 
       0.447964         484.304         283.563         283.563 
       0.454126         472.167         275.823         275.823 
       0.460267         465.242         268.347         268.347 
       0.466387          460.24         261.136         261.136 
        0.47254         450.873         254.138         254.138 
       0.478662         449.884         247.444         247.444 
       0.484765         436.134         241.048         241.048 
       0.490885         431.858         234.898         234.898 
       0.497035         424.202          228.96          228.96 
       0.503198         417.543         223.234         223.234 
       0.509342          414.24         217.727         217.727 
       0.515458         410.243         212.424         212.424 
       0.521598         401.625         207.262         207.262 
       0.527764         394.096         202.238         202.238 
       0.533884         391.891         197.411         197.411 
           0.54         386.635         192.748         192.748 
       0.546137         384.963         188.228         188.228 
       0.552299         377.226         183.843         183.843 
       0.558452         374.867         179.613         179.613 
       0.564573          369.03         175.546         175.546 
       0.570708         362.991         171.602         171.602 
       0.576825         356.397         167.793         167.793 
       0.582926         354.321          164.11          164.11 
       0.589034         350.743         160.529         160.529 
       0.595184         347.333          157.03          157.03 
       0.601379         343.542         153.611         153.611 
       0.607522         337.987         150.323         150.323 
       0.613639         336.386         147.148         147.148 
       0.619772         328.218          144.06          144.06 
       0.625918         327.316         141.059         141.059 
       0.632068         322.425         138.144         138.144 
       0.638161         321.154         135.338         135.338 
         0.6443         315.501         132.591         132.591 
       0.650464         312.878         129.911         129.911 
       0.656582         311.458         127.324         127.324 
       0.662703         309.114         124.808         124.808 
       0.668861         303.606         122.347         122.347 
       0.675024         300.445         119.952         119.952 
       0.681124         299.105         117.646         117.646 
       0.687237         295.555         115.397         115.397 
       0.693381         291.344         113.197         113.197 
       0.699536         289.021         111.052         111.052 
       0.705665         286.893         108.972         108.972 
       0.711789         283.931         106.949         106.949 
       0.717957         281.923         104.963         104.963 
        0.72409         279.052          103.04          103.04 
       0.730186         275.948         101.177         101.177 
       0.736317         273.315         99.3513         99.3513 
       0.742472         272.035         97.5642         97.5642 
       0.748622         269.555         95.8234         95.8234 
        0.75476         267.134         94.1294         94.1294 
       0.760888         263.744         92.4795         92.4795 
       0.767043         263.682         90.8632         90.8632 
       0.773185         260.338         89.2895         89.2895 
       0.779291          255.87         87.7625         87.7625 
       0.785407         255.254         86.2695         86.2695 
       0.791564         252.616         84.8023         84.8023 
       0.797719         250.154         83.3704         83.3704 
       0.803834         248.641          81.981          81.981 
       0.809972         246.701         80.6188         80.6188 
       0.816124         246.791         79.2849         79.2849 
       0.822261         242.884         77.9852         77.9852 
       0.828378          241.11          76.719          76.719 
       0.834502         240.724         75.4801         75.4801 
       0.840667          236.88          74.261          74.261 
       0.846816         235.524         73.0725         73.0725 
       0.852925         234.273         71.9179         71.9179 
       0.859047         232.266         70.7861         70.7861 
       0.865192         230.187         69.6753         69.6753 
       0.871341         228.114         68.5878         68.5878 
       0.877463         226.568         67.5288         67.5288 
       0.883569         225.357         66.4952         66.4952 
       0.889708         223.235         65.4781         65.4781 
       0.895864         220.533           64.48           64.48 
       0.902008         220.012         63.5051         63.5051 
       0.908149         218.932         62.5512         62.5512 
       0.914301         216.158         61.6155         61.6155 
       0.920448         214.548         60.7002         60.7002 
       0.926574         213.411         59.8068         59.8068 
       0.932687         213.033         58.9335         58.9335 
       0.938823         210.457         58.0748         58.0748 
       0.944975         208.894         57.2314         57.2314 
       0.951105         207.894          56.408          56.408 
       0.957225         205.745         55.6024         55.6024 
       0.963368         203.397           54.81           54.81 
       0.969511         202.663         54.0332         54.0332 
       0.975621         201.045         53.2759         53.2759 
       0.981748         201.033         52.5312         52.5312 
       0.987916         198.536         51.7963         51.7963 
        0.99406         196.948         51.0783         51.0783 
        1.00019         196.728         50.3755         50.3755 
        1.00632          194.84         49.6867         49.6867 
        1.01246         193.526           49.01           49.01 
        1.01859         192.584          48.347          48.347 
        1.02471         190.948         47.6973         47.6973 
        1.03085          188.81         47.0574         47.0574 
        1.03698         187.942         46.4307         46.4307 
        1.04314         186.573         45.8129         45.8129 
        1.04929         185.205         45.2079         45.2079 
        1.05541         184.707         44.6164         44.6164 
        1.06154         183.158         44.0342         44.0342 
        1.06769         182.891         43.4615         43.4615 
        1.07382          181.37         42.9011         42.9011 
        1.07993         179.736         42.3518         42.3518 
        1.08607         178.888         41.8101         41.8101 
        1.09222         177.926         41.2773         41.2773 
        1.09836         176.263         40.7546         40.7546 
        1.10449         174.699         40.2416         40.2416 
        1.11063          173.39         39.7369         39.7369 
        1.11677         173.111         39.2412         39.2412 
         1.1229         171.448         38.7549         38.7549 
        1.12903         170.579         38.2765         38.2765 
        1.13518         169.985         37.8058         37.8058 
        1.14131         168.301         37.3434         37.3434 
        1.14745         167.808         36.8891         36.8891 
        1.15359         166.522         36.4424         36.4424 
        1.15973         165.941         36.0029         36.0029 
        1.16584         164.095         35.5727         35.5727 
        1.17197         163.551          35.149          35.149 
        1.17811         162.515          34.731          34.731 
        1.18424         161.597         34.3211         34.3211 
        1.19038         161.049         33.9166         33.9166 
        1.19652         159.805         33.5189         33.5189 
        1.20267         158.967         33.1277         33.1277 
        1.20881         157.541         32.7428         32.7428 
        1.21495         156.945         32.3647         32.3647 
        1.22108         156.118         31.9927         31.9927 
         1.2272         154.705         31.6275         31.6275 
        1.23334         154.026         31.2672         31.2672 
        1.23949         152.608         30.9117         30.9117 
        1.24562         152.056         30.5628         30.5628 
        1.25174         150.298         30.2198         30.2198 
        1.25789         149.771         29.8811         29.8811 
        1.26402         149.044         29.5483         29.5483 
        1.27014         148.019         29.2214         29.2214 
        1.27628         147.251         28.8985         28.8985 
        1.28244         146.671         28.5799         28.5799 
        1.28858         145.896         28.2666         28.2666 
        1.29471         144.231         27.9587         27.9587 
        1.30084         143.692         27.6557         27.6557 
        1.30697         142.848         27.3568         27.3568 
        1.31312         142.409         27.0619         27.0619 
        1.31925         141.175         26.7723         26.7723 
        1.32537         140.497         26.4873         26.4873 
        1.33151         139.129         26.2054         26.2054 
        1.33765         138.802         25.9278         25.9278 
        1.34378         137.791         25.6549         25.6549 
        1.34992         137.466         25.3857         25.3857 
        1.35606          136.55         25.1198         25.1198 
         1.3622         135.528         24.8583         24.8583 
        1.36833         134.697         24.6011         24.6011 
        1.37445         133.759         24.3477         24.3477 
        1.38059         133.392         24.0972         24.0972 
        1.38675         132.332         23.8496         23.8496 
        1.39288         131.878         23.6065         23.6065 
        1.39901         131.347         23.3669         23.3669 
        1.40515         130.287         23.1302         23.1302 
         1.4113         129.042         22.8968         22.8968 
        1.41742         128.773         22.6676         22.6676 
        1.42355         127.865         22.4411         22.4411 
         1.4297           127.1         22.2171         22.2171 
        1.43585          125.94         21.9962         21.9962 
        1.44198         125.866         21.7792         21.7792 
        1.44809         124.843         21.5655         21.5655 
        1.45423         123.909          21.354          21.354 
        1.46036         123.639         21.1457         21.1457 
        1.46649         122.778         20.9401         20.9401 
        1.47263          122.24         20.7372         20.7372 
        1.47877         121.634          20.537          20.537 
        1.48491         120.389         20.3392         20.3392 
        1.49104         120.096         20.1444         20.1444 
        1.49718         118.995         19.9521         19.9521 
        1.50333          118.57          19.762          19.762 
        1.50947         117.948         19.5747         19.5747 
         1.5156          117.26         19.3902         19.3902 
        1.52172         116.425         19.2081         19.2081 
        1.52787         115.981          19.028          19.028 
          1.534         115.252         18.8504         18.8504 
        1.54013         114.414         18.6753         18.6753 
        1.54627         113.962         18.5021         18.5021 
        1.55241         113.182         18.3311         18.3311 
        1.55855         112.721         18.1626         18.1626 
        1.56467         112.144         17.9966         17.9966 
         1.5708         111.344         17.8322         17.8322 
        1.57695         110.995         17.6697         17.6697 
        1.58308          110.02         17.5095         17.5095 
        1.58922         109.777         17.3513         17.3513 
        1.59535         109.004         17.1951         17.1951 
         1.6015         108.484         17.0406         17.0406 
        1.60764         107.762         16.8881         16.8881 
        1.61376         107.524         16.7379         16.7379 
        1.61989         106.607         16.5894         16.5894 
        1.62604         106.148         16.4424         16.4424 
        1.63218         105.585         16.2972         16.2972 
        1.63831         104.746         16.1542         16.1542 
        1.64444         104.368         16.0129         16.0129 
        1.65059         103.762         15.8729         15.8729 
        1.65673         102.784         15.7348         15.7348 
        1.66285         102.721         15.5987         15.5987 
        1.66898         101.913         15.4641         15.4641 
        1.67512         101.433          15.331          15.331 
        1.68127         100.786         15.1992         15.1992 
         1.6874         100.111         15.0694         15.0694 
        1.69353         99.5902         14.9411         14.9411 
        1.69967         99.1713          14.814          14.814 
        1.70581         98.6132         14.6885         14.6885 
        1.71193         98.2862         14.5649         14.5649 
        1.71806         97.4289         14.4425         14.4425 
        1.72421         96.9748         14.3213         14.3213 
        1.73035          96.393         14.2016         14.2016 
        1.73649         95.8196         14.0833         14.0833 
        1.74262         95.3021         13.9664         13.9664 
        1.74876         94.9608         13.8508         13.8508 
        1.75489         94.1236         13.7368         13.7368 
        1.76101         93.8887         13.6241         13.6241 
        1.76715         93.1285         13.5125         13.5125 
        1.77329         92.8299          13.402          13.402 
        1.77943         92.1234         13.2927         13.2927 
        1.78557         91.8244         13.1848         13.1848 
        1.79171         91.1953         13.0781         13.0781 
        1.79785         90.7176         12.9726         12.9726 
        1.80399         90.2857         12.8683         12.8683 
        1.81012         89.8777         12.7652         12.7652 
        1.81625         89.1794         12.6634         12.6634 
        1.82239            88.9         12.5625         12.5625 
        1.82853         88.5494         12.4628         12.4628 
        1.83466         87.8317         12.3642         12.3642 
        1.84078         87.6702         12.2668         12.2668 
        1.84692         86.8189         12.1704         12.1704 
        1.85306         86.3217         12.0748         12.0748 
         1.8592         85.8616         11.9805         11.9805 
        1.86533         85.4834         11.8872         11.8872 
        1.87147         84.7517         11.7948         11.7948 
