# k  (h/Mpc)    Pcb(k)  (Mpc/h)^3    Pcb_linear(k) (Mpc/h)^3    Pcb_NL(k) (Mpc/h)^3   ShotnoiseSubtracted = false
     0.00783031         12804.9         12987.3         12987.3 
       0.013688           16548         16416.6         16416.6 
       0.019231         16934.8         16919.6         16919.6 
      0.0249154         15606.4         15934.4         15934.4 
      0.0312784         13947.9         14116.7         14116.7 
      0.0375637         12283.9         12317.4         12317.4 
      0.0433917         10732.7         10957.7         10957.7 
      0.0492413         9832.99         9944.25         9944.25 
      0.0555754         8838.72         9149.89         9149.89 
      0.0619321         8472.03         8510.07         8510.07 
       0.067871          7673.4          7926.9          7926.9 
      0.0738098         7061.35         7294.39         7294.39 
      0.0800417         6303.36         6581.47         6581.47 
      0.0862327         5710.13         5877.88         5877.88 
      0.0921407         5218.17         5272.82         5272.82 
      0.0982031         4693.92         4762.74         4762.74 
       0.104506         4429.24         4363.09         4363.09 
       0.110769         4125.09         4076.73         4076.73 
       0.116806            3890         3866.21         3866.21 
       0.122832         3711.93         3678.82         3678.82 
       0.129052         3440.18         3476.33         3476.33 
       0.135211         3243.28         3252.55         3252.55 
       0.141259         3082.66         3015.64         3015.64 
       0.147318         2892.13         2778.73         2778.73 
       0.153489          2651.6            2558            2558 
       0.159709         2513.56         2371.02         2371.02 
       0.165845         2427.79         2225.46         2225.46 
       0.171974         2299.12          2113.1          2113.1 
       0.178125         2194.57         2021.84         2021.84 
       0.184229         2107.26         1939.62         1939.62 
        0.19034         1985.64         1855.42         1855.42 
       0.196428         1944.15         1764.83         1764.83 
       0.202534         1868.47         1668.12         1668.12 
       0.208729         1779.55         1569.04         1569.04 
       0.214876         1700.94         1476.11         1476.11 
       0.220989         1646.19         1393.94         1393.94 
       0.227147         1574.32         1323.69         1323.69 
        0.23329         1516.43         1265.26         1265.26 
       0.239377         1494.31         1215.82         1215.82 
       0.245482         1402.04         1170.82         1170.82 
       0.251667         1393.68         1126.44         1126.44 
       0.257832         1339.77         1081.25         1081.25 
       0.263955         1295.58         1035.09         1035.09 
       0.270079         1251.95          988.69          988.69 
        0.27624         1238.02         943.495         943.495 
       0.282372         1185.68          901.67          901.67 
        0.28843         1175.94         864.364         864.364 
       0.294538         1118.58         830.938         830.938 
       0.300721         1114.38         800.714         800.714 
        0.30691         1068.43         772.986         772.986 
       0.313033         1048.43         746.905         746.905 
       0.319153         1029.38         721.361         721.361 
       0.325316          996.06         695.783         695.783 
        0.33145         973.065         670.571         670.571 
       0.337538         958.069          646.16          646.16 
       0.343633         934.423         622.822         622.822 
       0.349808         903.577         600.647         600.647 
       0.355968         898.259         580.177         580.177 
       0.362074         887.884         561.398         561.398 
       0.368217         861.652         543.775         543.775 
       0.374374         827.468         527.045         527.045 
       0.380519          827.96         510.958         510.958 
       0.386598          806.52         495.476         495.476 
       0.392688         803.723         480.315         480.315 
        0.39888           780.6          465.31          465.31 
       0.405048         769.121         450.897         450.897 
       0.411186         758.226         437.174         437.174 
       0.417313         743.078         424.171         424.171 
       0.423458         730.615         411.838         411.838 
       0.429607         719.882         400.132         400.132 
       0.435692         704.284         389.095         389.095 
       0.441815         699.602         378.439         378.439 
       0.447964         684.584         368.101         368.101 
       0.454126         675.185         358.053         358.053 
       0.460267         661.279         348.349         348.349 
       0.466387         654.265         338.988         338.988 
        0.47254         645.153         329.904         329.904 
       0.478662         642.061         321.214         321.214 
       0.484765         623.007         312.911         312.911 
       0.490885         618.597         304.927         304.927 
       0.497035         606.344         297.219         297.219 
       0.503198         601.071         289.786         289.786 
       0.509342         595.377         282.637         282.637 
       0.515458          591.36         275.753         275.753 
       0.521598         577.394         269.052         269.052 
       0.527764         566.016          262.53          262.53 
       0.533884         565.053         256.264         256.264 
           0.54          558.11         250.212         250.212 
       0.546137         554.955         244.343         244.343 
       0.552299         545.551         238.651         238.651 
       0.558452         542.841         233.161         233.161 
       0.564573         534.911         227.881         227.881 
       0.570708         528.375         222.761         222.761 
       0.576825         514.747         217.817         217.817 
       0.582926         515.864         213.035         213.035 
       0.589034         511.069         208.388         208.388 
       0.595184         506.162         203.845         203.845 
       0.601379         499.431         199.406         199.406 
       0.607522         492.776         195.138         195.138 
       0.613639         492.084         191.016         191.016 
       0.619772         479.886         187.009         187.009 
       0.625918         478.761         183.112         183.112 
       0.632068         471.756         179.328         179.328 
       0.638161         470.104         175.686         175.686 
         0.6443         461.478          172.12          172.12 
       0.650464         459.002          168.64          168.64 
       0.656582         456.819         165.283         165.283 
       0.662703         454.392         162.017         162.017 
       0.668861         446.264         158.822         158.822 
       0.675024         442.616         155.713         155.713 
       0.681124         439.762         152.719         152.719 
       0.687237         435.616           149.8           149.8 
       0.693381         430.084         146.944         146.944 
       0.699536         424.621         144.159         144.159 
       0.705665         422.678          141.46          141.46 
       0.711789         419.945         138.833         138.833 
       0.717957         416.113         136.256         136.256 
        0.72409         413.356         133.759         133.759 
       0.730186         408.056         131.341         131.341 
       0.736317         404.838         128.971         128.971 
       0.742472         403.225         126.651         126.651 
       0.748622         398.526         124.391         124.391 
        0.75476         393.793         122.192         122.192 
       0.760888         389.769          120.05          120.05 
       0.767043         390.579         117.952         117.952 
       0.773185         385.459         115.909         115.909 
       0.779291         380.496         113.927         113.927 
       0.785407         378.826         111.989         111.989 
       0.791564         374.233         110.084         110.084 
       0.797719         371.973         108.225         108.225 
       0.803834         368.779         106.422         106.422 
       0.809972         367.431         104.653         104.653 
       0.816124         366.797         102.922         102.922 
       0.822261          361.23         101.235         101.235 
       0.828378         359.081         99.5909         99.5909 
       0.834502         356.391         97.9827         97.9827 
       0.840667         352.577         96.4001         96.4001 
       0.846816         350.949         94.8574         94.8574 
       0.852925         348.264         93.3585         93.3585 
       0.859047         346.732         91.8893         91.8893 
       0.865192         342.799         90.4473         90.4473 
       0.871341         340.231         89.0357         89.0357 
       0.877463         338.623          87.661          87.661 
       0.883569         336.457         86.3192         86.3192 
       0.889708         333.419         84.9989         84.9989 
       0.895864         330.366         83.7033         83.7033 
       0.902008         328.803         82.4377         82.4377 
       0.908149         326.395         81.1994         81.1994 
       0.914301         322.835         79.9848         79.9848 
       0.920448         320.779         78.7965         78.7965 
       0.926574         317.227         77.6368         77.6368 
       0.932687         317.781         76.5032         76.5032 
       0.938823         313.843         75.3884         75.3884 
       0.944975         313.346         74.2936         74.2936 
       0.951105         310.269         73.2247         73.2247 
       0.957225         308.076          72.179          72.179 
       0.963368         304.375         71.1503         71.1503 
       0.969511         303.143          70.142          70.142 
       0.975621         300.662         69.1588         69.1588 
       0.981748           300.4         68.1922         68.1922 
       0.987916         297.897         67.2381         67.2381 
        0.99406          293.41         66.3061         66.3061 
        1.00019         293.202         65.3938         65.3938 
        1.00632         291.352         64.4997         64.4997 
        1.01246         288.878         63.6211         63.6211 
        1.01859         289.209         62.7605         62.7605 
        1.02471         284.983         61.9171         61.9171 
        1.03085         282.714         61.0864         61.0864 
        1.03698         282.021         60.2729         60.2729 
        1.04314         279.089         59.4709         59.4709 
        1.04929         277.212         58.6856         58.6856 
        1.05541           277.3         57.9177         57.9177 
        1.06154         273.075         57.1619         57.1619 
        1.06769         272.367         56.4185         56.4185 
        1.07382         270.658          55.691          55.691 
        1.07993         268.505          54.978          54.978 
        1.08607         267.809         54.2748         54.2748 
        1.09222         265.646         53.5832         53.5832 
        1.09836         263.606         52.9046         52.9046 
        1.10449         260.855         52.2386         52.2386 
        1.11063         258.749         51.5836         51.5836 
        1.11677         258.332           50.94           50.94 
         1.1229         256.586         50.3087         50.3087 
        1.12903         254.822         49.6877         49.6877 
        1.13518         253.112         49.0767         49.0767 
        1.14131         251.233         48.4765         48.4765 
        1.14745          250.74         47.8867         47.8867 
        1.15359         248.547         47.3068         47.3068 
        1.15973         247.023         46.7363         46.7363 
        1.16584         244.935         46.1779         46.1779 
        1.17197         244.721         45.6279         45.6279 
        1.17811          242.02         45.0852         45.0852 
        1.18424         240.549         44.5531         44.5531 
        1.19038         239.692         44.0281         44.0281 
        1.19652           237.8         43.5118         43.5118 
        1.20267         237.255         43.0039         43.0039 
        1.20881         234.996         42.5043         42.5043 
        1.21495         233.577         42.0135         42.0135 
        1.22108         232.234         41.5306         41.5306 
         1.2272          230.49         41.0565         41.0565 
        1.23334         229.294         40.5887         40.5887 
        1.23949         228.042         40.1273         40.1273 
        1.24562         226.809         39.6743         39.6743 
        1.25174         224.633         39.2292         39.2292 
        1.25789          223.02         38.7895         38.7895 
        1.26402         221.714         38.3574         38.3574 
        1.27014         220.298         37.9331         37.9331 
        1.27628         219.142         37.5139         37.5139 
        1.28244         218.772         37.1003         37.1003 
        1.28858         216.384         36.6936         36.6936 
        1.29471         214.685         36.2939         36.2939 
        1.30084         213.853         35.9006         35.9006 
        1.30697         212.314         35.5126         35.5126 
        1.31312         210.591         35.1297         35.1297 
        1.31925         210.262         34.7538         34.7538 
        1.32537         208.945         34.3838         34.3838 
        1.33151         206.867         34.0179         34.0179 
        1.33765         205.699         33.6576         33.6576 
        1.34378         204.846         33.3033         33.3033 
        1.34992         203.778         32.9538         32.9538 
        1.35606         203.554         32.6087         32.6087 
         1.3622         201.554         32.2692         32.2692 
        1.36833         199.518         31.9353         31.9353 
        1.37445         198.608         31.6064         31.6064 
        1.38059         197.144         31.2812         31.2812 
        1.38675         196.396         30.9598         30.9598 
        1.39288         194.989         30.6442         30.6442 
        1.39901         194.805         30.3332         30.3332 
        1.40515         192.684         30.0259         30.0259 
         1.4113         191.442          29.723          29.723 
        1.41742         190.342         29.4254         29.4254 
        1.42355         189.115         29.1314         29.1314 
         1.4297         187.903         28.8406         28.8406 
        1.43585         186.783         28.5538         28.5538 
        1.44198         185.742         28.2721         28.2721 
        1.44809          185.05         27.9948         27.9948 
        1.45423         183.617         27.7202         27.7202 
        1.46036         182.704         27.4498         27.4498 
        1.46649          181.16          27.183          27.183 
        1.47263         180.026         26.9195         26.9195 
        1.47877         179.275         26.6596         26.6596 
        1.48491         177.548         26.4028         26.4028 
        1.49104           177.3           26.15           26.15 
        1.49718          175.28         25.9003         25.9003 
        1.50333          174.72         25.6535         25.6535 
        1.50947         173.932         25.4105         25.4105 
         1.5156         172.365         25.1709         25.1709 
        1.52172         171.488         24.9345         24.9345 
        1.52787         170.141         24.7007         24.7007 
          1.534         169.706         24.4702         24.4702 
        1.54013         168.357         24.2429         24.2429 
        1.54627         167.504         24.0181         24.0181 
        1.55241         166.299         23.7961         23.7961 
        1.55855         165.364         23.5773         23.5773 
        1.56467         164.242         23.3618         23.3618 
         1.5708         163.588         23.1485         23.1485 
        1.57695         162.392         22.9375         22.9375 
        1.58308         161.714         22.7296         22.7296 
        1.58922         160.577         22.5242         22.5242 
        1.59535         159.247         22.3214         22.3214 
         1.6015         158.895         22.1208         22.1208 
        1.60764         157.681         21.9228         21.9228 
        1.61376           156.6         21.7279         21.7279 
        1.61989         155.682         21.5351         21.5351 
        1.62604         154.782         21.3443         21.3443 
        1.63218         154.006         21.1559         21.1559 
        1.63831         152.849         20.9702         20.9702 
        1.64444         152.329         20.7867         20.7867 
        1.65059         151.272          20.605          20.605 
        1.65673         149.996         20.4257         20.4257 
        1.66285         149.688          20.249          20.249 
        1.66898         148.514         20.0744         20.0744 
        1.67512         148.143         19.9015         19.9015 
        1.68127          146.55         19.7305         19.7305 
         1.6874         145.484         19.5619         19.5619 
        1.69353          145.24         19.3954         19.3954 
        1.69967         144.041         19.2305         19.2305 
        1.70581          143.34         19.0675         19.0675 
        1.71193         142.227         18.9071         18.9071 
        1.71806         141.802         18.7482         18.7482 
        1.72421         140.774         18.5908         18.5908 
        1.73035         140.415         18.4354         18.4354 
        1.73649         139.462         18.2818         18.2818 
        1.74262         138.274         18.1302         18.1302 
        1.74876         137.774         17.9801         17.9801 
        1.75489           136.6         17.8321         17.8321 
        1.76101         135.848         17.6857         17.6857 
        1.76715         135.241         17.5409         17.5409 
        1.77329         134.867         17.3975         17.3975 
        1.77943         133.535         17.2556         17.2556 
        1.78557         132.906         17.1156         17.1156 
        1.79171         132.172         16.9771         16.9771 
        1.79785         131.186         16.8401         16.8401 
        1.80399         130.514         16.7046         16.7046 
        1.81012         129.761         16.5709         16.5709 
        1.81625         129.035         16.4387         16.4387 
        1.82239         128.443         16.3077         16.3077 
        1.82853         127.777         16.1782         16.1782 
        1.83466         126.798         16.0503         16.0503 
        1.84078         126.346         15.9239         15.9239 
        1.84692         125.158         15.7987         15.7987 
        1.85306          124.89         15.6747         15.6747 
         1.8592          123.87         15.5522         15.5522 
        1.86533         122.945         15.4311         15.4311 
        1.87147         122.297         15.3111         15.3111 
