# k  (h/Mpc)    Pcb(k)  (Mpc/h)^3    Pcb_linear(k) (Mpc/h)^3    Pcb_NL(k) (Mpc/h)^3   ShotnoiseSubtracted = false
     0.00783031         14138.6           14345           14345 
       0.013688         18287.4         18132.2         18132.2 
       0.019231           18702         18687.5         18687.5 
      0.0249154         17213.3         17599.1         17599.1 
      0.0312784         15386.5         15591.5         15591.5 
      0.0375637         13556.7         13604.1         13604.1 
      0.0433917         11831.9         12102.3         12102.3 
      0.0492413         10845.3           10983           10983 
      0.0555754         9734.11         10105.6         10105.6 
      0.0619321         9342.85         9398.98         9398.98 
       0.067871          8449.3         8754.88         8754.88 
      0.0738098         7776.87          8056.3          8056.3 
      0.0800417         6938.08         7268.91         7268.91 
      0.0862327         6290.34         6491.82         6491.82 
      0.0921407         5756.13         5823.56         5823.56 
      0.0982031         5179.55          5260.2          5260.2 
       0.104506         4893.66         4818.82         4818.82 
       0.110769          4557.6         4502.54         4502.54 
       0.116806         4300.86         4270.03         4270.03 
       0.122832         4101.39         4063.06         4063.06 
       0.129052          3798.6         3839.43         3839.43 
       0.135211         3582.63         3592.27         3592.27 
       0.141259         3410.33         3330.62         3330.62 
       0.147318         3203.51         3068.96         3068.96 
       0.153489         2937.87         2825.18         2825.18 
       0.159709          2787.6         2618.67         2618.67 
       0.165845         2697.22         2457.91         2457.91 
       0.171974         2555.84         2333.81         2333.81 
       0.178125         2439.16         2233.02         2233.02 
       0.184229         2339.64         2142.21         2142.21 
        0.19034         2210.33         2049.22         2049.22 
       0.196428         2163.69         1949.16         1949.16 
       0.202534         2078.11         1842.35         1842.35 
       0.208729         1982.67         1732.92         1732.92 
       0.214876         1900.27         1630.29         1630.29 
       0.220989         1838.74         1539.53         1539.53 
       0.227147         1762.07         1461.95         1461.95 
        0.23329         1697.69         1397.41         1397.41 
       0.239377         1674.92         1342.81         1342.81 
       0.245482          1573.1         1293.11         1293.11 
       0.251667         1564.63         1244.09         1244.09 
       0.257832         1503.79         1194.18         1194.18 
       0.263955          1454.4         1143.21         1143.21 
       0.270079         1406.44         1091.95         1091.95 
        0.27624         1390.73         1042.04         1042.04 
       0.282372         1332.54         995.846         995.846 
        0.28843         1326.06         954.643         954.643 
       0.294538         1262.03         917.727         917.727 
       0.300721         1256.38         884.346         884.346 
        0.30691         1206.87         853.721         853.721 
       0.313033         1183.95         824.916         824.916 
       0.319153         1165.75         796.704         796.704 
       0.325316         1127.41         768.455         768.455 
        0.33145         1102.78         740.609         740.609 
       0.337538         1084.62         713.649         713.649 
       0.343633         1060.41         687.874         687.874 
       0.349808         1025.95         663.382         663.382 
       0.355968         1019.44         640.774         640.774 
       0.362074         1009.36         620.034         620.034 
       0.368217         978.689         600.571         600.571 
       0.374374         941.662         582.093         582.093 
       0.380519         943.694         564.326         564.326 
       0.386598         918.458         547.227         547.227 
       0.392688         915.044         530.482         530.482 
        0.39888         889.324          513.91          513.91 
       0.405048          877.82         497.991         497.991 
       0.411186         865.823         482.835         482.835 
       0.417313         848.237         468.474         468.474 
       0.423458             834         454.853         454.853 
       0.429607         822.934         441.924         441.924 
       0.435692         805.906         429.735         429.735 
       0.441815           800.4         417.966         417.966 
       0.447964         783.266         406.548         406.548 
       0.454126         775.494         395.451         395.451 
       0.460267         757.962         384.733         384.733 
       0.466387         749.506         374.394         374.394 
        0.47254         742.149         364.361         364.361 
       0.478662         736.677         354.764         354.764 
       0.484765         715.852         345.594         345.594 
       0.490885         711.337         336.776         336.776 
       0.497035           696.7         328.262         328.262 
       0.503198         692.064         320.053         320.053 
       0.509342         684.929         312.157         312.157 
       0.515458         681.183         304.554         304.554 
       0.521598         664.891         297.154         297.154 
       0.527764         651.962          289.95          289.95 
       0.533884          651.16          283.03          283.03 
           0.54         643.887         276.345         276.345 
       0.546137          639.22         269.864         269.864 
       0.552299         629.787         263.577         263.577 
       0.558452         626.054         257.513         257.513 
       0.564573         617.406         251.682         251.682 
       0.570708         610.692         246.027         246.027 
       0.576825         594.156         240.567         240.567 
       0.582926         596.857         235.286         235.286 
       0.589034         591.053         230.153         230.153 
       0.595184         585.346         225.136         225.136 
       0.601379         577.418         220.234         220.234 
       0.607522         569.843         215.519         215.519 
       0.613639         569.875         210.967         210.967 
       0.619772         556.407         206.541         206.541 
       0.625918         554.292         202.238         202.238 
       0.632068          546.76         198.058         198.058 
       0.638161         544.921         194.036         194.036 
         0.6443         534.988         190.097         190.097 
       0.650464         532.953         186.254         186.254 
       0.656582         529.743         182.546         182.546 
       0.662703         527.164         178.939         178.939 
       0.668861         517.967         175.411         175.411 
       0.675024           513.9         171.976         171.976 
       0.681124         510.672          168.67          168.67 
       0.687237         506.165         165.446         165.446 
       0.693381         499.946         162.292         162.292 
       0.699536         492.452         159.216         159.216 
       0.705665         491.487         156.235         156.235 
       0.711789         488.409         153.333         153.333 
       0.717957          483.84         150.487         150.487 
        0.72409         481.392          147.73          147.73 
       0.730186         474.388         145.059         145.059 
       0.736317          471.31         142.441         142.441 
       0.742472         469.282         139.879         139.879 
       0.748622         463.805         137.383         137.383 
        0.75476         457.524         134.954         134.954 
       0.760888         453.292         132.589         132.589 
       0.767043         453.984         130.272         130.272 
       0.773185         448.709         128.015         128.015 
       0.779291         443.753         125.826         125.826 
       0.785407         440.943         123.686         123.686 
       0.791564         435.794         121.582         121.582 
       0.797719         433.658         119.529         119.529 
       0.803834          429.55         117.537         117.537 
       0.809972          428.25         115.584         115.584 
       0.816124         427.163         113.672         113.672 
       0.822261         420.895         111.808         111.808 
       0.828378         418.502         109.993         109.993 
       0.834502         414.572         108.217         108.217 
       0.840667         410.926         106.469         106.469 
       0.846816         409.082         104.765         104.765 
       0.852925         405.756         103.109         103.109 
       0.859047         404.504         101.487         101.487 
       0.865192         399.642         99.8942         99.8942 
       0.871341         396.499         98.3351         98.3351 
       0.877463         395.515         96.8168         96.8168 
       0.883569         392.108         95.3348         95.3348 
       0.889708         389.181         93.8767         93.8767 
       0.895864         386.658         92.4457         92.4457 
       0.902008         384.006          91.048          91.048 
       0.908149          380.21         89.6803         89.6803 
       0.914301         377.257         88.3389         88.3389 
       0.920448         375.068         87.0265         87.0265 
       0.926574         369.822         85.7456         85.7456 
       0.932687         370.314         84.4936         84.4936 
       0.938823         366.029         83.2625         83.2625 
       0.944975         366.215         82.0533         82.0533 
       0.951105         361.687         80.8728         80.8728 
       0.957225         359.431         79.7178         79.7178 
       0.963368         355.418         78.5817         78.5817 
       0.969511         354.256          77.468          77.468 
       0.975621         351.642         76.3822         76.3822 
       0.981748         350.406         75.3146         75.3146 
       0.987916         348.136         74.2609         74.2609 
        0.99406         342.431         73.2315         73.2315 
        1.00019         341.649         72.2239         72.2239 
        1.00632         339.929         71.2364         71.2364 
        1.01246          337.17         70.2661         70.2661 
        1.01859         337.539         69.3156         69.3156 
        1.02471         332.568         68.3841         68.3841 
        1.03085         330.464         67.4666         67.4666 
        1.03698         329.614         66.5682         66.5682 
        1.04314         326.335         65.6824         65.6824 
        1.04929         323.513         64.8151         64.8151 
        1.05541          323.96          63.967          63.967 
        1.06154         318.641         63.1322         63.1322 
        1.06769         317.628         62.3112         62.3112 
        1.07382         315.652         61.5077         61.5077 
        1.07993         313.486         60.7203         60.7203 
        1.08607         312.664         59.9435         59.9435 
        1.09222         309.773         59.1797         59.1797 
        1.09836         307.735         58.4303         58.4303 
        1.10449          304.65         57.6948         57.6948 
        1.11063         301.903         56.9712         56.9712 
        1.11677         301.702         56.2605         56.2605 
         1.1229         299.754         55.5633         55.5633 
        1.12903         297.515         54.8774         54.8774 
        1.13518         295.085         54.2026         54.2026 
        1.14131         293.394         53.5397         53.5397 
        1.14745         292.146         52.8883         52.8883 
        1.15359         289.993         52.2478         52.2478 
        1.15973          288.02         51.6177         51.6177 
        1.16584         285.935          51.001          51.001 
        1.17197         285.647         50.3935         50.3935 
        1.17811         282.273         49.7942         49.7942 
        1.18424         280.274         49.2065         49.2065 
        1.19038         279.299         48.6266         48.6266 
        1.19652         277.025         48.0564         48.0564 
        1.20267         276.412         47.4955         47.4955 
        1.20881         274.197         46.9437         46.9437 
        1.21495         272.105         46.4016         46.4016 
        1.22108         270.589         45.8682         45.8682 
         1.2272          268.81         45.3446         45.3446 
        1.23334         267.219         44.8281         44.8281 
        1.23949         265.676         44.3184         44.3184 
        1.24562         264.351         43.8182         43.8182 
        1.25174         262.039         43.3265         43.3265 
        1.25789         259.947         42.8409         42.8409 
        1.26402         258.296         42.3637         42.3637 
        1.27014         256.686          41.895          41.895 
        1.27628         255.294         41.4321         41.4321 
        1.28244         254.771         40.9753         40.9753 
        1.28858         252.135         40.5261         40.5261 
        1.29471         250.274         40.0847         40.0847 
        1.30084         249.046         39.6503         39.6503 
        1.30697         247.496         39.2217         39.2217 
        1.31312         245.096         38.7989         38.7989 
        1.31925         244.727         38.3837         38.3837 
        1.32537         243.457         37.9751         37.9751 
        1.33151         241.019         37.5709         37.5709 
        1.33765         239.386          37.173          37.173 
        1.34378         238.595         36.7817         36.7817 
        1.34992         237.129         36.3957         36.3957 
        1.35606         236.755         36.0145         36.0145 
         1.3622         234.516         35.6395         35.6395 
        1.36833         232.355         35.2708         35.2708 
        1.37445         231.406         34.9076         34.9076 
        1.38059         229.379         34.5483         34.5483 
        1.38675         228.589         34.1934         34.1934 
        1.39288         226.965         33.8448         33.8448 
        1.39901         226.427         33.5014         33.5014 
        1.40515         224.296         33.1619         33.1619 
         1.4113         223.052         32.8274         32.8274 
        1.41742         221.459         32.4988         32.4988 
        1.42355         220.239          32.174          32.174 
         1.4297         218.486         31.8528         31.8528 
        1.43585         217.401         31.5362         31.5362 
        1.44198         216.189         31.2251         31.2251 
        1.44809          215.18         30.9188         30.9188 
        1.45423          213.68         30.6155         30.6155 
        1.46036         212.561         30.3168         30.3168 
        1.46649         210.741         30.0221         30.0221 
        1.47263         209.477         29.7311         29.7311 
        1.47877         208.355         29.4441         29.4441 
        1.48491         206.555         29.1605         29.1605 
        1.49104         205.963         28.8813         28.8813 
        1.49718         203.971         28.6055         28.6055 
        1.50333          203.31         28.3329         28.3329 
        1.50947         202.053         28.0645         28.0645 
         1.5156         200.179         27.7999         27.7999 
        1.52172         199.349         27.5389         27.5389 
        1.52787         197.833         27.2806         27.2806 
          1.534         197.257          27.026          27.026 
        1.54013         195.635          26.775          26.775 
        1.54627         194.605         26.5267         26.5267 
        1.55241          193.28         26.2815         26.2815 
        1.55855         192.085         26.0398         26.0398 
        1.56467         190.731         25.8019         25.8019 
         1.5708         190.264         25.5662         25.5662 
        1.57695         188.742         25.3332         25.3332 
        1.58308         187.743         25.1036         25.1036 
        1.58922         186.173         24.8767         24.8767 
        1.59535         184.739         24.6528         24.6528 
         1.6015         184.355         24.4313         24.4313 
        1.60764         182.966         24.2126         24.2126 
        1.61376         181.769         23.9972         23.9972 
        1.61989         180.823         23.7844         23.7844 
        1.62604         179.659         23.5736         23.5736 
        1.63218         178.661         23.3655         23.3655 
        1.63831         177.385         23.1605         23.1605 
        1.64444         176.601         22.9578         22.9578 
        1.65059          175.28         22.7571         22.7571 
        1.65673         174.074         22.5591         22.5591 
        1.66285          173.26          22.364          22.364 
        1.66898         172.032         22.1711         22.1711 
        1.67512         171.723         21.9802         21.9802 
        1.68127         169.781         21.7913         21.7913 
         1.6874         168.889         21.6051         21.6051 
        1.69353         168.113         21.4212         21.4212 
        1.69967         166.643          21.239          21.239 
        1.70581         166.013         21.0591         21.0591 
        1.71193         164.616         20.8819         20.8819 
        1.71806         164.186         20.7064         20.7064 
        1.72421         162.916         20.5325         20.5325 
        1.73035         162.274         20.3609         20.3609 
        1.73649         161.305         20.1913         20.1913 
        1.74262         160.061         20.0238         20.0238 
        1.74876         159.222          19.858          19.858 
        1.75489         158.146         19.6945         19.6945 
        1.76101          156.97         19.5329         19.5329 
        1.76715         156.563          19.373          19.373 
        1.77329         155.688         19.2146         19.2146 
        1.77943         154.591         19.0579         19.0579 
        1.78557         153.745         18.9032         18.9032 
        1.79171         152.893         18.7503         18.7503 
        1.79785         151.695          18.599          18.599 
        1.80399         150.833         18.4494         18.4494 
        1.81012          149.91         18.3017         18.3017 
        1.81625         149.304         18.1556         18.1556 
        1.82239         148.231          18.011          18.011 
        1.82853         147.698          17.868          17.868 
        1.83466         146.452         17.7267         17.7267 
        1.84078         145.917         17.5871         17.5871 
        1.84692         144.414         17.4488         17.4488 
        1.85306         144.225         17.3118         17.3118 
         1.8592         143.112         17.1765         17.1765 
        1.86533         142.184         17.0428         17.0428 
        1.87147          141.19         16.9103         16.9103 
