# k  (h/Mpc)    Pcb(k)  (Mpc/h)^3    Pcb_linear(k) (Mpc/h)^3    Pcb_NL(k) (Mpc/h)^3   ShotnoiseSubtracted = false
     0.00783031         7226.91         7317.71         7317.71 
       0.013688         9299.11         9251.86         9251.86 
       0.019231         9547.33         9536.18         9536.18 
      0.0249154          8851.2         8981.37         8981.37 
      0.0312784         7902.67         7957.13         7957.13 
      0.0375637         6945.74         6943.07         6943.07 
      0.0433917         6100.03         6176.71         6176.71 
      0.0492413          5575.5         5605.51         5605.51 
      0.0555754         5047.05         5157.78         5157.78 
      0.0619321         4804.08         4797.14         4797.14 
       0.067871          4383.7         4468.43         4468.43 
      0.0738098         4031.48          4111.9          4111.9 
      0.0800417         3609.33         3710.03         3710.03 
      0.0862327         3256.99         3313.42         3313.42 
      0.0921407         2957.59         2972.35         2972.35 
      0.0982031         2658.74         2684.81         2684.81 
       0.104506         2491.52         2459.53         2459.53 
       0.110769         2321.52         2298.11         2298.11 
       0.116806         2184.25         2179.44         2179.44 
       0.122832         2089.54          2073.8          2073.8 
       0.129052         1944.64         1959.66         1959.66 
       0.135211         1828.02         1833.51         1833.51 
       0.141259         1725.36         1699.97         1699.97 
       0.147318         1610.17         1566.42         1566.42 
       0.153489         1475.49         1441.99         1441.99 
       0.159709         1390.04         1336.59         1336.59 
       0.165845         1332.42         1254.53         1254.53 
       0.171974         1257.11         1191.19         1191.19 
       0.178125         1202.58         1139.75         1139.75 
       0.184229         1158.12          1093.4          1093.4 
        0.19034         1084.56         1045.93         1045.93 
       0.196428         1059.21         994.868         994.868 
       0.202534         1019.11         940.349         940.349 
       0.208729         963.322         884.498         884.498 
       0.214876         909.758         832.111         832.111 
       0.220989         880.188         785.791         785.791 
       0.227147         833.617         746.189         746.189 
        0.23329         802.043         713.252         713.252 
       0.239377         785.289         685.382         685.382 
       0.245482         735.976         660.016         660.016 
       0.251667          727.97         634.995         634.995 
       0.257832         701.785         609.521         609.521 
       0.263955         676.803         583.502         583.502 
       0.270079         652.292         557.344         557.344 
        0.27624         642.135         531.867         531.867 
       0.282372         615.098         508.289         508.289 
        0.28843         598.822         487.259         487.259 
       0.294538         571.336         468.416         468.416 
       0.300721         567.789         451.378         451.378 
        0.30691         542.031         435.747         435.747 
       0.313033         530.758         421.045         421.045 
       0.319153         513.575         406.645         406.645 
       0.325316         499.215         392.227         392.227 
        0.33145         484.311         378.014         378.014 
       0.337538         477.716         364.253         364.253 
       0.343633         462.231         351.097         351.097 
       0.349808         447.583         338.597         338.597 
       0.355968         442.608         327.057         327.057 
       0.362074         433.056         316.471         316.471 
       0.368217          421.51         306.537         306.537 
       0.374374         405.777         297.106         297.106 
       0.380519         401.097         288.037         288.037 
       0.386598         391.457          279.31          279.31 
       0.392688         387.907         270.763         270.763 
        0.39888         377.272         262.305         262.305 
       0.405048          369.18          254.18          254.18 
       0.411186         361.725         246.444         246.444 
       0.417313         355.317         239.114         239.114 
       0.423458         348.567         232.161         232.161 
       0.429607         341.039         225.562         225.562 
       0.435692         332.336         219.341         219.341 
       0.441815         329.956         213.334         213.334 
       0.447964         323.636         207.506         207.506 
       0.454126         311.976         201.842         201.842 
       0.460267         308.447         196.371         196.371 
       0.466387         304.932         191.094         191.094 
        0.47254         298.206         185.973         185.973 
       0.478662         296.725         181.075         181.075 
       0.484765         288.197         176.394         176.394 
       0.490885         284.451         171.894         171.894 
       0.497035         280.156         167.548         167.548 
       0.503198         273.711         163.358         163.358 
       0.509342         271.059         159.328         159.328 
       0.515458          267.72         155.447         155.447 
       0.521598         263.344          151.67          151.67 
       0.527764         258.974         147.994         147.994 
       0.533884         255.823         144.461         144.461 
           0.54         252.215         141.049         141.049 
       0.546137         250.762         137.741         137.741 
       0.552299         245.966         134.533         134.533 
       0.558452         242.923         131.437         131.437 
       0.564573         238.973         128.461         128.461 
       0.570708          234.88         125.575         125.575 
       0.576825         231.862         122.788         122.788 
       0.582926         228.963         120.092         120.092 
       0.589034         225.941         117.472         117.472 
       0.595184         223.641         114.912         114.912 
       0.601379         221.566         112.409         112.409 
       0.607522         216.971         110.003         110.003 
       0.613639         216.003          107.68          107.68 
       0.619772         211.157         105.421         105.421 
       0.625918         209.474         103.224         103.224 
       0.632068         206.969         101.091         101.091 
       0.638161         205.693         99.0377         99.0377 
         0.6443         202.468         97.0274         97.0274 
       0.650464         200.454          95.066          95.066 
       0.656582         198.737         93.1734         93.1734 
       0.662703         196.184         91.3324         91.3324 
       0.668861         193.379         89.5314         89.5314 
       0.675024         191.134         87.7784         87.7784 
       0.681124          190.22         86.0909         86.0909 
       0.687237         187.065         84.4452         84.4452 
       0.693381         184.561         82.8355         82.8355 
       0.699536         183.333         81.2656         81.2656 
       0.705665         183.026         79.7438         79.7438 
       0.711789         179.219          78.263          78.263 
       0.717957         178.474         76.8101         76.8101 
        0.72409         176.156         75.4027         75.4027 
       0.730186         173.507         74.0396         74.0396 
       0.736317         172.599         72.7033         72.7033 
       0.742472         171.447         71.3956         71.3956 
       0.748622         170.009         70.1217         70.1217 
        0.75476          168.46         68.8821         68.8821 
       0.760888          166.15         67.6747         67.6747 
       0.767043         165.222          66.492          66.492 
       0.773185         163.531         65.3403         65.3403 
       0.779291         161.132         64.2229         64.2229 
       0.785407         160.369         63.1304         63.1304 
       0.791564         158.789         62.0567         62.0567 
       0.797719         156.732         61.0088         61.0088 
       0.803834         156.044         59.9922         59.9922 
       0.809972          154.03         58.9953         58.9953 
       0.816124          153.89         58.0192         58.0192 
       0.822261         151.949         57.0681         57.0681 
       0.828378         150.525         56.1415         56.1415 
       0.834502         150.185         55.2349         55.2349 
       0.840667         147.974         54.3427         54.3427 
       0.846816         146.771         53.4731         53.4731 
       0.852925         145.692         52.6281         52.6281 
       0.859047         144.049         51.7999         51.7999 
       0.865192         143.287          50.987          50.987 
       0.871341         141.866         50.1913         50.1913 
       0.877463          140.68         49.4163         49.4163 
       0.883569         139.648         48.6599         48.6599 
       0.889708         138.683         47.9156         47.9156 
       0.895864         137.331         47.1853         47.1853 
       0.902008         136.484         46.4718         46.4718 
       0.908149         135.681         45.7738         45.7738 
       0.914301         134.151         45.0891         45.0891 
       0.920448         133.303         44.4192         44.4192 
       0.926574         132.513         43.7655         43.7655 
       0.932687         131.833         43.1264         43.1264 
       0.938823          130.04          42.498          42.498 
       0.944975         129.098         41.8809         41.8809 
       0.951105         128.337         41.2783         41.2783 
       0.957225         126.779         40.6888         40.6888 
       0.963368         126.063         40.1089         40.1089 
       0.969511         125.583         39.5405         39.5405 
       0.975621         124.974         38.9862         38.9862 
       0.981748         124.048         38.4413         38.4413 
       0.987916         122.641         37.9035         37.9035 
        0.99406         122.066         37.3781         37.3781 
        1.00019         121.123         36.8638         36.8638 
        1.00632         120.382         36.3598         36.3598 
        1.01246         119.432         35.8645         35.8645 
        1.01859         118.001         35.3794         35.3794 
        1.02471          118.15         34.9039         34.9039 
        1.03085         116.915         34.4357         34.4357 
        1.03698          115.98         33.9771         33.9771 
        1.04314         115.008          33.525          33.525 
        1.04929         114.397         33.0823         33.0823 
        1.05541           113.6         32.6494         32.6494 
        1.06154         112.926         32.2233         32.2233 
        1.06769         112.501         31.8043         31.8043 
        1.07382          111.93         31.3942         31.3942 
        1.07993         111.062         30.9923         30.9923 
        1.08607         110.137         30.5958         30.5958 
        1.09222         109.588          30.206          30.206 
        1.09836         108.705         29.8234         29.8234 
        1.10449         108.036          29.448          29.448 
        1.11063          107.37         29.0787         29.0787 
        1.11677         106.829          28.716          28.716 
         1.1229         105.751         28.3601         28.3601 
        1.12903          104.83           28.01           28.01 
        1.13518         105.057         27.6656         27.6656 
        1.14131         104.107         27.3272         27.3272 
        1.14745         103.132         26.9947         26.9947 
        1.15359         102.644         26.6678         26.6678 
        1.15973          102.26         26.3462         26.3462 
        1.16584         101.413         26.0314         26.0314 
        1.17197          100.81         25.7214         25.7214 
        1.17811         100.179         25.4155         25.4155 
        1.18424         99.4501         25.1155         25.1155 
        1.19038         98.9108         24.8195         24.8195 
        1.19652         98.4483         24.5285         24.5285 
        1.20267         97.6568         24.2422         24.2422 
        1.20881         97.0911         23.9605         23.9605 
        1.21495         96.4037         23.6839         23.6839 
        1.22108         95.8543         23.4116         23.4116 
         1.2272         95.1816         23.1444         23.1444 
        1.23334         94.7529         22.8807         22.8807 
        1.23949         94.0156         22.6206         22.6206 
        1.24562         93.7303         22.3653         22.3653 
        1.25174         93.0703         22.1143         22.1143 
        1.25789         92.5728         21.8664         21.8664 
        1.26402         92.1599         21.6229         21.6229 
        1.27014         91.2177         21.3837         21.3837 
        1.27628         91.0458         21.1474         21.1474 
        1.28244          90.207         20.9142         20.9142 
        1.28858         89.8722         20.6849         20.6849 
        1.29471         89.3717         20.4596         20.4596 
        1.30084         88.7295         20.2379         20.2379 
        1.30697         88.2124         20.0192         20.0192 
        1.31312         87.8021         19.8034         19.8034 
        1.31925         87.4013         19.5915         19.5915 
        1.32537         86.9517         19.3829         19.3829 
        1.33151         86.1238         19.1766         19.1766 
        1.33765         85.6872         18.9735         18.9735 
        1.34378         85.1499         18.7737         18.7737 
        1.34992         84.8936         18.5768         18.5768 
        1.35606         84.3848         18.3822         18.3822 
         1.3622         83.5971         18.1908         18.1908 
        1.36833         83.4533         18.0026         18.0026 
        1.37445          82.839         17.8172         17.8172 
        1.38059          82.313         17.6338         17.6338 
        1.38675         81.8631         17.4527         17.4527 
        1.39288         81.3117         17.2748         17.2748 
        1.39901         81.1977         17.0995         17.0995 
        1.40515         80.7398         16.9262         16.9262 
         1.4113         80.0564         16.7554         16.7554 
        1.41742         79.8808         16.5877         16.5877 
        1.42355         79.1843          16.422          16.422 
         1.4297         78.8227          16.258          16.258 
        1.43585         78.2384         16.0964         16.0964 
        1.44198         77.9861         15.9376         15.9376 
        1.44809         77.5165         15.7813         15.7813 
        1.45423         77.1381         15.6265         15.6265 
        1.46036         76.7928          15.474          15.474 
        1.46649          76.298         15.3236         15.3236 
        1.47263         75.8775         15.1751         15.1751 
        1.47877         75.6339         15.0286         15.0286 
        1.48491          75.143         14.8838         14.8838 
        1.49104          74.664         14.7413         14.7413 
        1.49718          74.232         14.6005         14.6005 
        1.50333         73.8489         14.4614         14.4614 
        1.50947         73.3727         14.3244         14.3244 
         1.5156         73.1518         14.1894         14.1894 
        1.52172         72.6782         14.0561         14.0561 
        1.52787         72.4547         13.9243         13.9243 
          1.534         72.0592         13.7944         13.7944 
        1.54013         71.5528         13.6662         13.6662 
        1.54627         71.2366         13.5395         13.5395 
        1.55241         70.7655         13.4144         13.4144 
        1.55855          70.372          13.291          13.291 
        1.56467           69.87         13.1695         13.1695 
         1.5708         69.7658         13.0493         13.0493 
        1.57695         69.4532         12.9303         12.9303 
        1.58308         68.9112         12.8131         12.8131 
        1.58922         68.7675         12.6973         12.6973 
        1.59535         68.4755          12.583          12.583 
         1.6015         67.8483           12.47           12.47 
        1.60764         67.6881         12.3584         12.3584 
        1.61376         67.2177         12.2484         12.2484 
        1.61989         66.7997         12.1398         12.1398 
        1.62604          66.592         12.0322         12.0322 
        1.63218         66.3707          11.926          11.926 
        1.63831         65.9152         11.8214         11.8214 
        1.64444         65.6025         11.7179         11.7179 
        1.65059          65.061         11.6155         11.6155 
        1.65673          64.887         11.5144         11.5144 
        1.66285         64.5386         11.4148         11.4148 
        1.66898         64.2199         11.3164         11.3164 
        1.67512         63.7805         11.2189         11.2189 
        1.68127         63.4245         11.1225         11.1225 
         1.6874         63.2023         11.0275         11.0275 
        1.69353          62.854         10.9336         10.9336 
        1.69967         62.5465         10.8406         10.8406 
        1.70581         62.3665         10.7488         10.7488 
        1.71193          62.074         10.6583         10.6583 
        1.71806         61.4955         10.5688         10.5688 
        1.72421         61.3977           10.48           10.48 
        1.73035         60.9779         10.3924         10.3924 
        1.73649         60.5695         10.3059         10.3059 
        1.74262         60.4322         10.2203         10.2203 
        1.74876         60.1547         10.1358         10.1358 
        1.75489         59.7356         10.0523         10.0523 
        1.76101         59.5455         9.96983         9.96983 
        1.76715         59.1112         9.88816         9.88816 
        1.77329         58.8649         9.80732         9.80732 
        1.77943         58.5892         9.72736         9.72736 
        1.78557         58.3785         9.64841         9.64841 
        1.79171         58.0146         9.57033         9.57033 
        1.79785         57.7727         9.49311         9.49311 
        1.80399         57.4035         9.41676         9.41676 
        1.81012         57.2778         9.34136         9.34136 
        1.81625         56.7031         9.26682         9.26682 
        1.82239         56.5576         9.19299         9.19299 
        1.82853         56.1264         9.12001         9.12001 
        1.83466         56.0127          9.0479          9.0479 
        1.84078         55.5582         8.97664         8.97664 
        1.84692         55.3278         8.90605         8.90605 
        1.85306         55.0947         8.83613         8.83613 
         1.8592         54.7325         8.76708         8.76708 
        1.86533         54.5222         8.69881         8.69881 
        1.87147         54.2445         8.63119         8.63119 
