# k  (h/Mpc)    Pcb(k)  (Mpc/h)^3    Pcb_linear(k) (Mpc/h)^3    Pcb_NL(k) (Mpc/h)^3   ShotnoiseSubtracted = false
     0.00783031         10631.4         10776.3         10776.3 
       0.013688         13718.2         13622.8         13622.8 
       0.019231         14055.4         14040.6         14040.6 
      0.0249154         12981.1         13223.3         13223.3 
      0.0312784         11597.9           11715           11715 
      0.0375637         10206.8         10221.9         10221.9 
      0.0433917         8934.58         9093.54         9093.54 
      0.0492413         8178.74         8252.54         8252.54 
      0.0555754         7370.68         7593.34         7593.34 
      0.0619321         7047.84         7062.38         7062.38 
       0.067871         6400.48         6578.43         6578.43 
      0.0738098         5888.29         6053.52         6053.52 
      0.0800417         5261.64         5461.88         5461.88 
      0.0862327         4759.76         4877.99         4877.99 
      0.0921407         4339.52         4375.86         4375.86 
      0.0982031         3901.98         3952.55         3952.55 
       0.104506         3673.33         3620.89         3620.89 
       0.110769         3421.39         3383.24         3383.24 
       0.116806         3223.07         3208.54         3208.54 
       0.122832         3078.75         3053.02         3053.02 
       0.129052         2857.16         2884.98         2884.98 
       0.135211         2691.22         2699.26         2699.26 
       0.141259         2551.34         2502.66         2502.66 
       0.147318         2388.75         2306.05         2306.05 
       0.153489         2189.42         2122.87         2122.87 
       0.159709         2071.45         1967.69         1967.69 
       0.165845         1994.91          1846.9          1846.9 
       0.171974         1886.84         1753.65         1753.65 
       0.178125          1802.1         1677.91         1677.91 
       0.184229         1732.99         1609.68         1609.68 
        0.19034         1627.27          1539.8          1539.8 
       0.196428         1593.02         1464.62         1464.62 
       0.202534         1532.26         1384.36         1384.36 
       0.208729         1455.12         1302.14         1302.14 
       0.214876          1384.3         1225.02         1225.02 
       0.220989         1340.12         1156.82         1156.82 
       0.227147         1276.93         1098.52         1098.52 
        0.23329         1229.54         1050.03         1050.03 
       0.239377         1208.92            1009            1009 
       0.245482          1132.9          971.66          971.66 
       0.251667         1124.56         934.825         934.825 
       0.257832         1081.94         897.322         897.322 
       0.263955         1045.76         859.018         859.018 
       0.270079         1009.39         820.508         820.508 
        0.27624         997.461         783.001         783.001 
       0.282372         954.985         748.291         748.291 
        0.28843         941.046          717.33          717.33 
       0.294538         895.167         689.591         689.591 
       0.300721         892.069         664.508         664.508 
        0.30691         853.202         641.496         641.496 
       0.313033         837.144         619.852         619.852 
       0.319153          817.82         598.653         598.653 
       0.325316         792.258         577.426         577.426 
        0.33145          772.08         556.503         556.503 
       0.337538         761.338         536.245         536.245 
       0.343633         739.736         516.877         516.877 
       0.349808         715.238         498.474         498.474 
       0.355968         710.872         481.486         481.486 
       0.362074         700.232         465.901         465.901 
       0.368217         680.518         451.276         451.276 
       0.374374         652.541         437.392         437.392 
       0.380519         650.617         424.042         424.042 
       0.386598         634.524         411.193         411.193 
       0.392688         631.895         398.611         398.611 
        0.39888         613.559         386.158         386.158 
       0.405048         602.695         374.197         374.197 
       0.411186         593.093         362.809         362.809 
       0.417313         581.928         352.017         352.017 
       0.423458         571.933         341.782         341.782 
       0.429607         561.965         332.067         332.067 
       0.435692         549.271         322.908         322.908 
       0.441815         545.572         314.065         314.065 
       0.447964         534.037         305.485         305.485 
       0.454126         522.365         297.147         297.147 
       0.460267         513.929         289.093         289.093 
       0.466387         508.465         281.324         281.324 
        0.47254         498.739         273.785         273.785 
       0.478662         497.574         266.574         266.574 
       0.484765         482.308         259.683         259.683 
       0.490885         477.988         253.058         253.058 
       0.497035         469.198          246.66          246.66 
       0.503198         462.824         240.492         240.492 
       0.509342         459.037         234.559         234.559 
       0.515458         454.982         228.846         228.846 
       0.521598          444.98         223.285         223.285 
       0.527764         436.432         217.872         217.872 
       0.533884         434.612         212.672         212.672 
           0.54         428.844         207.649         207.649 
       0.546137         426.975         202.779         202.779 
       0.552299         418.605         198.055         198.055 
       0.558452         416.328         193.499         193.499 
       0.564573          409.91         189.117         189.117 
       0.570708         403.637         184.868         184.868 
       0.576825         395.374         180.765         180.765 
       0.582926         393.934         176.797         176.797 
       0.589034         390.142          172.94          172.94 
       0.595184         386.401          169.17          169.17 
       0.601379         381.884         165.486         165.486 
       0.607522         376.087         161.944         161.944 
       0.613639         374.558         158.523         158.523 
       0.619772         365.301         155.198         155.198 
       0.625918         364.537         151.964         151.964 
       0.632068         359.005         148.823         148.823 
       0.638161         357.632         145.801         145.801 
         0.6443         351.224         142.841         142.841 
       0.650464         348.547         139.954         139.954 
       0.656582         347.088         137.167         137.167 
       0.662703         344.795         134.457         134.457 
       0.668861         338.566         131.806         131.806 
       0.675024         335.241         129.225         129.225 
       0.681124         333.498         126.741         126.741 
       0.687237         329.852         124.318         124.318 
       0.693381         325.278         121.948         121.948 
       0.699536         322.348         119.637         119.637 
       0.705665          319.94         117.397         117.397 
       0.711789         317.175         115.217         115.217 
       0.717957         314.715         113.078         113.078 
        0.72409         311.747         111.006         111.006 
       0.730186         308.351         108.999         108.999 
       0.736317         305.409         107.032         107.032 
       0.742472         304.046         105.107         105.107 
       0.748622         301.062         103.231         103.231 
        0.75476           298.2         101.406         101.406 
       0.760888         294.624          99.629          99.629 
       0.767043          294.83         97.8878         97.8878 
       0.773185         290.904         96.1924         96.1924 
       0.779291         286.186         94.5473         94.5473 
       0.785407          285.44         92.9389         92.9389 
       0.791564         282.299         91.3583         91.3583 
       0.797719         279.877         89.8156         89.8156 
       0.803834         277.979         88.3189         88.3189 
       0.809972         276.174         86.8513         86.8513 
       0.816124         276.195         85.4143         85.4143 
       0.822261         271.781         84.0142         84.0142 
       0.828378         269.929           82.65           82.65 
       0.834502         269.125         81.3154         81.3154 
       0.840667         265.145          80.002          80.002 
       0.846816         263.716         78.7216         78.7216 
       0.852925         262.197         77.4778         77.4778 
       0.859047         260.251         76.2585         76.2585 
       0.865192         257.708         75.0618         75.0618 
       0.871341         255.554         73.8903         73.8903 
       0.877463         253.814         72.7494         72.7494 
       0.883569         252.558         71.6358         71.6358 
       0.889708         250.098         70.5402         70.5402 
       0.895864         247.096         69.4649         69.4649 
       0.902008         246.535         68.4146         68.4146 
       0.908149         245.285         67.3869         67.3869 
       0.914301         242.089          66.379          66.379 
       0.920448         240.339         65.3928         65.3928 
       0.926574         238.821         64.4304         64.4304 
       0.932687         238.731         63.4896         63.4896 
       0.938823         235.786         62.5645         62.5645 
       0.944975         234.338         61.6559         61.6559 
       0.951105         233.018         60.7688         60.7688 
       0.957225         230.835          59.901          59.901 
       0.963368         228.026         59.0473         59.0473 
       0.969511         227.129         58.2105         58.2105 
       0.975621         225.149         57.3945         57.3945 
       0.981748         225.352         56.5923         56.5923 
       0.987916         222.734         55.8006         55.8006 
        0.99406         220.511         55.0271         55.0271 
        1.00019         220.452           54.27           54.27 
        1.00632          218.43          53.528          53.528 
        1.01246         216.806         52.7988         52.7988 
        1.01859         216.217         52.0846         52.0846 
        1.02471         213.957         51.3847         51.3847 
        1.03085         211.624         50.6953         50.6953 
        1.03698         210.808         50.0202         50.0202 
        1.04314         209.127         49.3546         49.3546 
        1.04929          207.68         48.7029         48.7029 
        1.05541         207.316         48.0656         48.0656 
        1.06154         205.228         47.4384         47.4384 
        1.06769         204.846         46.8215         46.8215 
        1.07382         203.223         46.2177         46.2177 
        1.07993         201.379          45.626          45.626 
        1.08607         200.683         45.0424         45.0424 
        1.09222         199.466         44.4684         44.4684 
        1.09836         197.612         43.9053         43.9053 
        1.10449         195.736         43.3526         43.3526 
        1.11063         194.173         42.8089         42.8089 
        1.11677         193.915         42.2749         42.2749 
         1.1229          192.26          41.751          41.751 
        1.12903         191.195         41.2356         41.2356 
        1.13518         190.272         40.7285         40.7285 
        1.14131         188.523         40.2304         40.2304 
        1.14745         188.135          39.741          39.741 
        1.15359          186.61         39.2597         39.2597 
        1.15973         185.828         38.7862         38.7862 
        1.16584          183.78         38.3228         38.3228 
        1.17197         183.328         37.8663         37.8663 
        1.17811         182.005          37.416          37.416 
        1.18424          180.96         36.9744         36.9744 
        1.19038         180.391         36.5387         36.5387 
        1.19652         178.967         36.1102         36.1102 
        1.20267         178.188         35.6887         35.6887 
        1.20881         176.478         35.2741         35.2741 
        1.21495           175.8         34.8668         34.8668 
        1.22108         174.847          34.466          34.466 
         1.2272         173.256         34.0725         34.0725 
        1.23334         172.553         33.6844         33.6844 
        1.23949         171.166         33.3014         33.3014 
        1.24562         170.395         32.9255         32.9255 
        1.25174          168.41         32.5561         32.5561 
        1.25789         167.651         32.1912         32.1912 
        1.26402         166.819         31.8326         31.8326 
        1.27014         165.671         31.4805         31.4805 
        1.27628         164.858         31.1326         31.1326 
        1.28244         164.381         30.7894         30.7894 
        1.28858          163.17         30.4518         30.4518 
        1.29471         161.438         30.1201         30.1201 
        1.30084         160.842         29.7937         29.7937 
        1.30697         159.824         29.4717         29.4717 
        1.31312         159.138          29.154          29.154 
        1.31925          158.07          28.842          28.842 
        1.32537         157.165          28.535          28.535 
        1.33151          155.69         28.2313         28.2313 
        1.33765          155.27         27.9323         27.9323 
        1.34378         154.197         27.6382         27.6382 
        1.34992         153.635         27.3482         27.3482 
        1.35606         152.896         27.0618         27.0618 
         1.3622         151.656           26.78           26.78 
        1.36833         150.572          26.503          26.503 
        1.37445         149.566           26.23           26.23 
        1.38059         149.029         25.9601         25.9601 
        1.38675         148.029         25.6933         25.6933 
        1.39288         147.408         25.4315         25.4315 
        1.39901         147.001         25.1734         25.1734 
        1.40515         145.622         24.9183         24.9183 
         1.4113         144.292         24.6669         24.6669 
        1.41742         143.851           24.42           24.42 
        1.42355         142.857          24.176          24.176 
         1.4297         142.072         23.9346         23.9346 
        1.43585         140.747         23.6967         23.6967 
        1.44198         140.595         23.4629         23.4629 
        1.44809         139.597         23.2328         23.2328 
        1.45423         138.542         23.0049         23.0049 
        1.46036         138.031         22.7805         22.7805 
        1.46649         137.028          22.559          22.559 
        1.47263         136.491         22.3403         22.3403 
        1.47877         135.781         22.1247         22.1247 
        1.48491         134.325         21.9116         21.9116 
        1.49104         134.132         21.7018         21.7018 
        1.49718          132.73         21.4945         21.4945 
        1.50333         132.311         21.2897         21.2897 
        1.50947         131.705          21.088          21.088 
         1.5156         130.786         20.8892         20.8892 
        1.52172         129.906         20.6931         20.6931 
        1.52787         129.269          20.499          20.499 
          1.534         128.521         20.3077         20.3077 
        1.54013         127.558         20.1191         20.1191 
        1.54627           127.1         19.9325         19.9325 
        1.55241         126.099         19.7483         19.7483 
        1.55855         125.556         19.5667         19.5667 
        1.56467         125.008         19.3879         19.3879 
         1.5708          124.06         19.2108         19.2108 
        1.57695         123.532         19.0357         19.0357 
        1.58308          122.73         18.8632         18.8632 
        1.58922          122.28         18.6927         18.6927 
        1.59535          121.29         18.5244         18.5244 
         1.6015         120.798          18.358          18.358 
        1.60764         120.024         18.1937         18.1937 
        1.61376         119.667         18.0318         18.0318 
        1.61989         118.629         17.8719         17.8719 
        1.62604         118.143         17.7135         17.7135 
        1.63218         117.439         17.5572         17.5572 
        1.63831         116.547         17.4031         17.4031 
        1.64444         116.184         17.2508         17.2508 
        1.65059         115.552            17.1            17.1 
        1.65673          114.36         16.9512         16.9512 
        1.66285         114.325         16.8046         16.8046 
        1.66898         113.491         16.6597         16.6597 
        1.67512         112.939         16.5162         16.5162 
        1.68127         112.123         16.3743         16.3743 
         1.6874         111.221         16.2344         16.2344 
        1.69353         110.781         16.0962         16.0962 
        1.69967         110.347         15.9593         15.9593 
        1.70581         109.613         15.8241         15.8241 
        1.71193         109.206         15.6909         15.6909 
        1.71806         108.405          15.559          15.559 
        1.72421         107.782         15.4284         15.4284 
        1.73035         107.256         15.2995         15.2995 
        1.73649         106.519          15.172          15.172 
        1.74262         105.912         15.0461         15.0461 
        1.74876         105.564         14.9216         14.9216 
        1.75489         104.579         14.7987         14.7987 
        1.76101         104.265         14.6773         14.6773 
        1.76715         103.387         14.5571         14.5571 
        1.77329          103.15         14.4381         14.4381 
        1.77943         102.273         14.3204         14.3204 
        1.78557         101.871         14.2041         14.2041 
        1.79171         101.211         14.0892         14.0892 
        1.79785         100.671         13.9755         13.9755 
        1.80399          100.13         13.8631         13.8631 
        1.81012         99.6664         13.7521         13.7521 
        1.81625         98.9502         13.6424         13.6424 
        1.82239         98.6739         13.5337         13.5337 
        1.82853         98.2091         13.4262         13.4262 
        1.83466         97.3752         13.3201         13.3201 
        1.84078         97.1997         13.2152         13.2152 
        1.84692          96.307         13.1113         13.1113 
        1.85306         95.7178         13.0083         13.0083 
         1.8592         95.2252         12.9067         12.9067 
        1.86533         94.7591         12.8062         12.8062 
        1.87147          93.946         12.7066         12.7066 
