# k  (h/Mpc)    Pcb(k)  (Mpc/h)^3    Pcb_linear(k) (Mpc/h)^3    Pcb_NL(k) (Mpc/h)^3   ShotnoiseSubtracted = false
     0.00783031         945.977         955.179         955.179 
       0.013688         1206.62         1208.35         1208.35 
       0.019231         1245.71         1245.78         1245.78 
      0.0249154         1167.06         1173.46         1173.46 
      0.0312784         1038.69         1039.72         1039.72 
      0.0375637         909.325         907.269         907.269 
      0.0433917         805.761         807.154         807.154 
      0.0492413         732.989         732.528         732.528 
      0.0555754          671.03         674.031         674.031 
      0.0619321         629.193         626.911         626.911 
       0.067871          581.96         583.959         583.959 
      0.0738098         535.111          537.37          537.37 
      0.0800417         481.674         484.854         484.854 
      0.0862327           431.7         433.025         433.025 
      0.0921407         388.384         388.452         388.452 
      0.0982031         349.938         350.876         350.876 
       0.104506             323         321.436         321.436 
       0.110769         301.399          300.34          300.34 
       0.116806         284.225         284.832         284.832 
       0.122832         271.556         271.027         271.027 
       0.129052         255.232          256.11          256.11 
       0.135211         238.721         239.624         239.624 
       0.141259         222.548         222.171         222.171 
       0.147318         206.056         204.717         204.717 
       0.153489         189.172         188.456         188.456 
       0.159709         175.755         174.681         174.681 
       0.165845         166.346         163.957         163.957 
       0.171974         156.704         155.679         155.679 
       0.178125         150.139         148.956         148.956 
       0.184229         144.436         142.899         142.899 
        0.19034          136.81         136.695         136.695 
       0.196428         131.173         130.022         130.022 
       0.202534         125.122         122.896         122.896 
       0.208729         117.319         115.597         115.597 
       0.214876          109.91         108.751         108.751 
       0.220989         105.089         102.697         102.697 
       0.227147         98.8503         97.5213         97.5213 
        0.23329         94.6269         93.2168         93.2168 
       0.239377         91.2817         89.5743         89.5743 
       0.245482         87.2597         86.2591         86.2591 
       0.251667         84.7668         82.9892         82.9892 
       0.257832         81.3652         79.6599         79.6599 
       0.263955           77.97         76.2595         76.2595 
       0.270079         74.7123         72.8407         72.8407 
        0.27624         71.9954         69.5111         69.5111 
       0.282372         68.8857         66.4297         66.4297 
        0.28843         65.8334         63.6812         63.6812 
       0.294538         63.3255         61.2186         61.2186 
       0.300721         61.5591         58.9919         58.9919 
        0.30691         59.0507          56.949          56.949 
       0.313033          57.156         55.0276         55.0276 
       0.319153         54.5958         53.1456         53.1456 
       0.325316         53.5685         51.2612         51.2612 
        0.33145         51.4994         49.4037         49.4037 
       0.337538         49.8553         47.6053         47.6053 
       0.343633         48.0032         45.8859         45.8859 
       0.349808         46.5081         44.2522         44.2522 
       0.355968         45.0578         42.7441         42.7441 
       0.362074         43.6025         41.3606         41.3606 
       0.368217         42.3014         40.0622         40.0622 
       0.374374         40.9176         38.8297         38.8297 
       0.380519         39.8778         37.6445         37.6445 
       0.386598         38.7602         36.5038         36.5038 
       0.392688         37.8151         35.3869         35.3869 
        0.39888          36.613         34.2814         34.2814 
       0.405048         35.6469         33.2195         33.2195 
       0.411186         34.7167         32.2085         32.2085 
       0.417313         33.5336         31.2505         31.2505 
       0.423458         32.6737         30.3419         30.3419 
       0.429607         31.7264         29.4795         29.4795 
       0.435692          30.824         28.6663         28.6663 
       0.441815         30.1572         27.8813         27.8813 
       0.447964         29.5898         27.1196         27.1196 
       0.454126         28.5075         26.3793         26.3793 
       0.460267         27.8833         25.6644         25.6644 
       0.466387         27.0343         24.9747         24.9747 
        0.47254         26.5397         24.3054         24.3054 
       0.478662          25.986         23.6653         23.6653 
       0.484765         25.2436         23.0535         23.0535 
       0.490885         24.6353         22.4653         22.4653 
       0.497035         24.2606         21.8974         21.8974 
       0.503198         23.6206         21.3498         21.3498 
       0.509342         23.0468         20.8231         20.8231 
       0.515458          22.483         20.3159         20.3159 
       0.521598         22.0488         19.8223         19.8223 
       0.527764         21.5224         19.3418         19.3418 
       0.533884         21.1347         18.8801         18.8801 
           0.54         20.6596         18.4342         18.4342 
       0.546137         20.2642         18.0019         18.0019 
       0.552299         19.8738         17.5825         17.5825 
       0.558452         19.2673          17.178          17.178 
       0.564573         18.9955          16.789          16.789 
       0.570708         18.6282         16.4118         16.4118 
       0.576825         18.1373         16.0475         16.0475 
       0.582926         17.8248         15.6953         15.6953 
       0.589034           17.31         15.3528         15.3528 
       0.595184         17.0518         15.0182         15.0182 
       0.601379         16.6945         14.6911         14.6911 
       0.607522         16.4296         14.3767         14.3767 
       0.613639         16.2095          14.073          14.073 
       0.619772          15.776         13.7778         13.7778 
       0.625918         15.6249         13.4907         13.4907 
       0.632068         15.3636         13.2119         13.2119 
       0.638161         14.9874         12.9436         12.9436 
         0.6443         14.6807         12.6808         12.6808 
       0.650464         14.3803         12.4245         12.4245 
       0.656582         14.2559         12.1771         12.1771 
       0.662703         13.9864         11.9365         11.9365 
       0.668861         13.7252         11.7011         11.7011 
       0.675024         13.4459          11.472          11.472 
       0.681124         13.2104         11.2515         11.2515 
       0.687237         12.9994         11.0364         11.0364 
       0.693381         12.8179          10.826          10.826 
       0.699536         12.4711         10.6209         10.6209 
       0.705665         12.3301          10.422          10.422 
       0.711789         12.1164         10.2284         10.2284 
       0.717957         11.9114         10.0386         10.0386 
        0.72409         11.7066         9.85463         9.85463 
       0.730186         11.5506         9.67648         9.67648 
       0.736317         11.4136         9.50184         9.50184 
       0.742472         11.2256         9.33092         9.33092 
       0.748622         11.0386         9.16444         9.16444 
        0.75476         10.7915         9.00243         9.00243 
       0.760888         10.6678         8.84463         8.84463 
       0.767043         10.5321         8.69005         8.69005 
       0.773185         10.3116         8.53954         8.53954 
       0.779291         10.2189          8.3935          8.3935 
       0.785407         10.0549         8.25071         8.25071 
       0.791564         9.88499         8.11039         8.11039 
       0.797719         9.71946         7.97345         7.97345 
       0.803834         9.63616         7.84057         7.84057 
       0.809972         9.52565         7.71029         7.71029 
       0.816124         9.31158         7.58272         7.58272 
       0.822261         9.17661         7.45842         7.45842 
       0.828378         9.06862         7.33731         7.33731 
       0.834502         8.97414         7.21883         7.21883 
       0.840667         8.80771         7.10223         7.10223 
       0.846816         8.65752         6.98857         6.98857 
       0.852925         8.57636         6.87814         6.87814 
       0.859047          8.4582          6.7699          6.7699 
       0.865192         8.37345         6.66366         6.66366 
       0.871341         8.27161         6.55966         6.55966 
       0.877463         8.14127         6.45838         6.45838 
       0.883569         7.99952         6.35952         6.35952 
       0.889708         7.86692         6.26225         6.26225 
       0.895864         7.80128          6.1668          6.1668 
       0.902008         7.70451         6.07356         6.07356 
       0.908149         7.61305         5.98232         5.98232 
       0.914301         7.49366         5.89284         5.89284 
       0.920448         7.38029         5.80529         5.80529 
       0.926574         7.28619         5.71985         5.71985 
       0.932687         7.21752         5.63634         5.63634 
       0.938823         7.11782         5.55421         5.55421 
       0.944975         7.01752         5.47355         5.47355 
       0.951105         6.94795          5.3948          5.3948 
       0.957225         6.90638         5.31775         5.31775 
       0.963368         6.79835         5.24197         5.24197 
       0.969511         6.71521         5.16768         5.16768 
       0.975621         6.62344         5.09524         5.09524 
       0.981748         6.55379         5.02403         5.02403 
       0.987916         6.47991         4.95374         4.95374 
        0.99406         6.37314         4.88507         4.88507 
        1.00019         6.28301         4.81786         4.81786 
        1.00632          6.2469         4.75198         4.75198 
        1.01246         6.17519         4.68726         4.68726 
        1.01859         6.08882         4.62385         4.62385 
        1.02471         6.02479         4.56171         4.56171 
        1.03085         5.95759         4.50051         4.50051 
        1.03698         5.87277         4.44058         4.44058 
        1.04314         5.82126         4.38149         4.38149 
        1.04929         5.74401         4.32363         4.32363 
        1.05541         5.67645         4.26706         4.26706 
        1.06154          5.6231         4.21138         4.21138 
        1.06769         5.58705         4.15661         4.15661 
        1.07382         5.49519         4.10301         4.10301 
        1.07993         5.42965         4.05048         4.05048 
        1.08607         5.39425         3.99867         3.99867 
        1.09222          5.3308         3.94772         3.94772 
        1.09836         5.27686         3.89772         3.89772 
        1.10449         5.21704         3.84866         3.84866 
        1.11063         5.16038          3.8004          3.8004 
        1.11677         5.11248         3.75299         3.75299 
         1.1229         5.05755         3.70647         3.70647 
        1.12903         5.00013         3.66072         3.66072 
        1.13518         4.95017         3.61571         3.61571 
        1.14131         4.88092         3.57148         3.57148 
        1.14745         4.81936         3.52803         3.52803 
        1.15359         4.79422         3.48531         3.48531 
        1.15973         4.73333         3.44328         3.44328 
        1.16584         4.68774         3.40213         3.40213 
        1.17197         4.64199         3.36161         3.36161 
        1.17811          4.6031         3.32164         3.32164 
        1.18424         4.56524         3.28243         3.28243 
        1.19038         4.52335         3.24375         3.24375 
        1.19652         4.47545         3.20571         3.20571 
        1.20267         4.42483         3.16829         3.16829 
        1.20881          4.3861         3.13148         3.13148 
        1.21495         4.34937         3.09532         3.09532 
        1.22108         4.30054         3.05975         3.05975 
         1.2272         4.27327         3.02482         3.02482 
        1.23334         4.21216         2.99036         2.99036 
        1.23949         4.17247         2.95636         2.95636 
        1.24562         4.14895         2.92299         2.92299 
        1.25174         4.09458         2.89019         2.89019 
        1.25789         4.06484          2.8578          2.8578 
        1.26402         4.02339         2.82597         2.82597 
        1.27014         3.98329          2.7947          2.7947 
        1.27628         3.95643         2.76382         2.76382 
        1.28244         3.90297         2.73335         2.73335 
        1.28858         3.88506         2.70339         2.70339 
        1.29471         3.84027         2.67394         2.67394 
        1.30084         3.80139         2.64496         2.64496 
        1.30697         3.79145         2.61637         2.61637 
        1.31312         3.71792         2.58817         2.58817 
        1.31925         3.70291         2.56047         2.56047 
        1.32537          3.6674         2.53321         2.53321 
        1.33151         3.64957         2.50626         2.50626 
        1.33765         3.59788         2.47971         2.47971 
        1.34378          3.5695          2.4536          2.4536 
        1.34992         3.55253         2.42786         2.42786 
        1.35606         3.50247         2.40243         2.40243 
         1.3622         3.48614         2.37742         2.37742 
        1.36833         3.45337         2.35282         2.35282 
        1.37445         3.42252         2.32859         2.32859 
        1.38059         3.40407         2.30463         2.30463 
        1.38675         3.37783         2.28095         2.28095 
        1.39288         3.33967          2.2577          2.2577 
        1.39901         3.30542         2.23479         2.23479 
        1.40515         3.28297         2.21214         2.21214 
         1.4113         3.25749         2.18983         2.18983 
        1.41742         3.23262          2.1679          2.1679 
        1.42355         3.20654         2.14624         2.14624 
         1.4297         3.17245         2.12482         2.12482 
        1.43585          3.1589         2.10369         2.10369 
        1.44198         3.13655         2.08294         2.08294 
        1.44809         3.09775         2.06251         2.06251 
        1.45423         3.07336         2.04228         2.04228 
        1.46036         3.04773         2.02235         2.02235 
        1.46649         3.02158         2.00269         2.00269 
        1.47263          2.9957         1.98328         1.98328 
        1.47877         2.96808         1.96414         1.96414 
        1.48491         2.94887         1.94522         1.94522 
        1.49104         2.93071         1.92659         1.92659 
        1.49718         2.90638          1.9082          1.9082 
        1.50333         2.88485         1.89001         1.89001 
        1.50947         2.86183         1.87211         1.87211 
         1.5156         2.83994         1.85446         1.85446 
        1.52172         2.82012         1.83704         1.83704 
        1.52787         2.79806         1.81982         1.81982 
          1.534         2.77525         1.80283         1.80283 
        1.54013         2.75523         1.78609         1.78609 
        1.54627         2.72669         1.76953         1.76953 
        1.55241         2.70656         1.75317         1.75317 
        1.55855         2.69393         1.73705         1.73705 
        1.56467         2.67269         1.72117         1.72117 
         1.5708         2.64588         1.70545         1.70545 
        1.57695         2.62931         1.68991         1.68991 
        1.58308         2.60748         1.67459         1.67459 
        1.58922         2.59455         1.65946         1.65946 
        1.59535         2.57417         1.64452         1.64452 
         1.6015         2.55568         1.62974         1.62974 
        1.60764         2.53868         1.61516         1.61516 
        1.61376         2.52057         1.60079         1.60079 
        1.61989          2.4992         1.58659         1.58659 
        1.62604         2.48004         1.57253         1.57253 
        1.63218         2.47061         1.55865         1.55865 
        1.63831         2.44504         1.54497         1.54497 
        1.64444         2.42667         1.53146         1.53146 
        1.65059         2.41176         1.51807         1.51807 
        1.65673         2.39679         1.50486         1.50486 
        1.66285         2.37387         1.49184         1.49184 
        1.66898         2.36252         1.47898         1.47898 
        1.67512         2.34009         1.46624         1.46624 
        1.68127         2.32658         1.45364         1.45364 
         1.6874         2.31661         1.44122         1.44122 
        1.69353         2.28843         1.42895         1.42895 
        1.69967         2.27657          1.4168          1.4168 
        1.70581         2.26804          1.4048          1.4048 
        1.71193         2.24862         1.39298         1.39298 
        1.71806         2.23663         1.38127         1.38127 
        1.72421         2.22036         1.36967         1.36967 
        1.73035          2.2042         1.35822         1.35822 
        1.73649         2.18793         1.34691         1.34691 
        1.74262         2.17299         1.33573         1.33573 
        1.74876         2.16342         1.32468         1.32468 
        1.75489         2.14422         1.31377         1.31377 
        1.76101         2.12852         1.30299         1.30299 
        1.76715          2.1168         1.29232         1.29232 
        1.77329         2.10399         1.28175         1.28175 
        1.77943         2.08484          1.2713          1.2713 
        1.78557         2.07506         1.26098         1.26098 
        1.79171         2.06464         1.25078         1.25078 
        1.79785         2.04569         1.24069         1.24069 
        1.80399          2.0352         1.23071         1.23071 
        1.81012         2.02506         1.22086         1.22086 
        1.81625         2.00818         1.21111         1.21111 
        1.82239         1.99416         1.20146         1.20146 
        1.82853         1.97754         1.19193         1.19193 
        1.83466         1.97192          1.1825          1.1825 
        1.84078         1.95837         1.17319         1.17319 
        1.84692         1.94703         1.16396         1.16396 
        1.85306         1.93029         1.15483         1.15483 
         1.8592         1.91949          1.1458          1.1458 
        1.86533         1.90678         1.13688         1.13688 
        1.87147         1.89862         1.12804         1.12804 
