# k  (h/Mpc)    Pcb(k)  (Mpc/h)^3    Pcb_linear(k) (Mpc/h)^3    Pcb_NL(k) (Mpc/h)^3   ShotnoiseSubtracted = false
     0.00783031         1664.74         1681.73         1681.73 
       0.013688         2126.92         2127.17         2127.17 
       0.019231         2193.74         2192.95         2192.95 
      0.0249154         2051.45         2065.57         2065.57 
      0.0312784         1827.14         1830.14         1830.14 
      0.0375637         1600.76         1596.97         1596.97 
      0.0433917         1416.29         1420.74         1420.74 
      0.0492413         1289.53         1289.37         1289.37 
      0.0555754         1178.39         1186.41         1186.41 
      0.0619321         1108.14         1103.46         1103.46 
       0.067871         1022.54         1027.86         1027.86 
      0.0738098         940.156         945.853         945.853 
      0.0800417         845.491         853.417         853.417 
      0.0862327         758.664         762.188         762.188 
      0.0921407         683.468         683.733         683.733 
      0.0982031         615.379         617.593         617.593 
       0.104506           569.6         565.773         565.773 
       0.110769         531.378         528.642         528.642 
       0.116806         500.535         501.345         501.345 
       0.122832         478.695         477.046         477.046 
       0.129052         449.099          450.79          450.79 
       0.135211         420.287         421.772         421.772 
       0.141259         392.649         391.052         391.052 
       0.147318         364.078         360.331         360.331 
       0.153489         334.041         331.709         331.709 
       0.159709         310.989         307.462         307.462 
       0.165845         295.073         288.587         288.587 
       0.171974         277.708         274.017         274.017 
       0.178125         266.162         262.183         262.183 
       0.184229         256.215         251.521         251.521 
        0.19034         241.894         240.603         240.603 
       0.196428         232.814         228.856         228.856 
       0.202534          222.64         216.314         216.314 
       0.208729         208.859         203.467         203.467 
       0.214876         195.656         191.416         191.416 
       0.220989         187.699         180.761         180.761 
       0.227147          176.41         171.651         171.651 
        0.23329         169.063         164.074         164.074 
       0.239377         163.516         157.663         157.663 
       0.245482         155.631         151.828         151.828 
       0.251667         151.769         146.072         146.072 
       0.257832          145.93         140.212         140.212 
       0.263955         139.878         134.227         134.227 
       0.270079         134.222          128.21          128.21 
        0.27624         129.872         122.349         122.349 
       0.282372          124.36         116.925         116.925 
        0.28843          118.99         112.088         112.088 
       0.294538         114.433         107.753         107.753 
       0.300721         111.687         103.834         103.834 
        0.30691         106.993         100.238         100.238 
       0.313033         103.703          96.856          96.856 
       0.319153         98.9708         93.5436         93.5436 
       0.325316         97.2496         90.2268         90.2268 
        0.33145         93.5089         86.9573         86.9573 
       0.337538         90.9261         83.7918         83.7918 
       0.343633         87.6396         80.7655         80.7655 
       0.349808         84.9698         77.8899         77.8899 
       0.355968         82.5189         75.2354         75.2354 
       0.362074         79.9281         72.8002         72.8002 
       0.368217         77.6181          70.515          70.515 
       0.374374         75.2492         68.3455         68.3455 
       0.380519         73.3628         66.2594         66.2594 
       0.386598         71.3414         64.2517         64.2517 
       0.392688         69.7734         62.2857         62.2857 
        0.39888         67.6659         60.3399         60.3399 
       0.405048         65.9964         58.4708         58.4708 
       0.411186         64.4097         56.6914         56.6914 
       0.417313         62.2753         55.0051         55.0051 
       0.423458         60.7207         53.4058         53.4058 
       0.429607         59.0654         51.8878         51.8878 
       0.435692         57.2918         50.4566         50.4566 
       0.441815         56.3413         49.0748         49.0748 
       0.447964         55.3654         47.7342         47.7342 
       0.454126         53.1795         46.4312         46.4312 
       0.460267         52.2046         45.1728         45.1728 
       0.466387         50.7143         43.9589         43.9589 
        0.47254          49.909         42.7809         42.7809 
       0.478662         48.9791         41.6541         41.6541 
       0.484765         47.6084         40.5774         40.5774 
       0.490885         46.5261          39.542          39.542 
       0.497035         45.8602         38.5424         38.5424 
       0.503198          44.679         37.5785         37.5785 
       0.509342          43.553         36.6515         36.6515 
       0.515458         42.6358         35.7588         35.7588 
       0.521598         41.9232         34.8899         34.8899 
       0.527764         41.0316         34.0441         34.0441 
       0.533884         40.3065         33.2315         33.2315 
           0.54         39.4614         32.4467         32.4467 
       0.546137         38.8047         31.6857         31.6857 
       0.552299         38.1627         30.9476         30.9476 
       0.558452         36.9879         30.2356         30.2356 
       0.564573         36.4647         29.5509         29.5509 
       0.570708         35.8827          28.887          28.887 
       0.576825         34.9783         28.2459         28.2459 
       0.582926         34.3529         27.6258         27.6258 
       0.589034         33.4282         27.0231         27.0231 
       0.595184         32.9948          26.434          26.434 
       0.601379         32.4024         25.8584         25.8584 
       0.607522         31.8036         25.3049         25.3049 
       0.613639         31.4959         24.7704         24.7704 
       0.619772         30.6726         24.2507         24.2507 
       0.625918         30.4941         23.7455         23.7455 
       0.632068         29.9876         23.2547         23.2547 
       0.638161         29.3371         22.7824         22.7824 
         0.6443         28.7555           22.32           22.32 
       0.650464         28.2416         21.8688         21.8688 
       0.656582         28.0546         21.4334         21.4334 
       0.662703           27.52         21.0099         21.0099 
       0.668861         27.0122         20.5956         20.5956 
       0.675024         26.5302         20.1924         20.1924 
       0.681124         26.0777         19.8042         19.8042 
       0.687237         25.6417         19.4256         19.4256 
       0.693381         25.3925         19.0553         19.0553 
       0.699536         24.7459         18.6942         18.6942 
       0.705665         24.6158         18.3441         18.3441 
       0.711789         24.1033         18.0034         18.0034 
       0.717957         23.7731         17.6692         17.6692 
        0.72409         23.4066         17.3455         17.3455 
       0.730186         23.0932         17.0319         17.0319 
       0.736317         22.8337         16.7245         16.7245 
       0.742472         22.4453         16.4237         16.4237 
       0.748622         22.1854         16.1306         16.1306 
        0.75476         21.7511         15.8455         15.8455 
       0.760888         21.4858         15.5678         15.5678 
       0.767043         21.2215         15.2957         15.2957 
       0.773185         20.8218         15.0308         15.0308 
       0.779291         20.6908         14.7737         14.7737 
       0.785407          20.417         14.5224         14.5224 
       0.791564         20.0447         14.2754         14.2754 
       0.797719         19.6573         14.0343         14.0343 
       0.803834         19.5914         13.8005         13.8005 
       0.809972          19.408         13.5712         13.5712 
       0.816124         18.9344         13.3466         13.3466 
       0.822261         18.7748         13.1278         13.1278 
       0.828378         18.5627         12.9147         12.9147 
       0.834502         18.3684         12.7061         12.7061 
       0.840667         18.1065         12.5009         12.5009 
       0.846816         17.7868         12.3008         12.3008 
       0.852925         17.6243         12.1065         12.1065 
       0.859047          17.418         11.9159         11.9159 
       0.865192         17.2522         11.7289         11.7289 
       0.871341         17.0937         11.5459         11.5459 
       0.877463         16.7931         11.3676         11.3676 
       0.883569         16.5559         11.1936         11.1936 
       0.889708         16.3026         11.0224         11.0224 
       0.895864         16.2012         10.8544         10.8544 
       0.902008           16.06         10.6903         10.6903 
       0.908149         15.8727         10.5297         10.5297 
       0.914301         15.7248         10.3722         10.3722 
       0.920448         15.4262         10.2181         10.2181 
       0.926574           15.29         10.0677         10.0677 
       0.932687         15.1326         9.92072         9.92072 
       0.938823         14.9298         9.77616         9.77616 
       0.944975         14.7418         9.63418         9.63418 
       0.951105         14.6254         9.49558         9.49558 
       0.957225         14.4993         9.35997         9.35997 
       0.963368          14.325         9.22657         9.22657 
       0.969511         14.1999         9.09581         9.09581 
       0.975621         14.0529         8.96832         8.96832 
       0.981748         13.8812         8.84297         8.84297 
       0.987916         13.7664         8.71925         8.71925 
        0.99406         13.5736         8.59839         8.59839 
        1.00019         13.3665         8.48008         8.48008 
        1.00632         13.3478         8.36414         8.36414 
        1.01246         13.1969         8.25021         8.25021 
        1.01859          12.994         8.13861         8.13861 
        1.02471         12.9209         8.02923         8.02923 
        1.03085         12.7944         7.92151         7.92151 
        1.03698         12.5925         7.81602         7.81602 
        1.04314         12.5193         7.71202         7.71202 
        1.04929          12.352         7.61018         7.61018 
        1.05541         12.2171         7.51061         7.51061 
        1.06154         12.1223         7.41259         7.41259 
        1.06769         12.0632          7.3162          7.3162 
        1.07382          11.887         7.22185         7.22185 
        1.07993         11.7964          7.1294          7.1294 
        1.08607         11.6829          7.0382          7.0382 
        1.09222         11.5787         6.94852         6.94852 
        1.09836         11.4405         6.86052         6.86052 
        1.10449         11.3525         6.77416         6.77416 
        1.11063         11.2399         6.68921         6.68921 
        1.11677         11.1715         6.60576         6.60576 
         1.1229         11.0835          6.5239          6.5239 
        1.12903          10.957         6.44336         6.44336 
        1.13518         10.8254         6.36413         6.36413 
        1.14131         10.7385          6.2863          6.2863 
        1.14745         10.6394         6.20982         6.20982 
        1.15359         10.5696         6.13461         6.13461 
        1.15973         10.4756         6.06063         6.06063 
        1.16584         10.3204         5.98822         5.98822 
        1.17197         10.2603          5.9169          5.9169 
        1.17811         10.2024         5.84653         5.84653 
        1.18424         10.1072         5.77752         5.77752 
        1.19038          10.054         5.70944         5.70944 
        1.19652         9.94322         5.64249         5.64249 
        1.20267         9.82784         5.57662         5.57662 
        1.20881         9.80385         5.51184         5.51184 
        1.21495         9.71727         5.44819         5.44819 
        1.22108         9.59667         5.38557         5.38557 
         1.2272         9.53627         5.32409         5.32409 
        1.23334         9.42542         5.26344         5.26344 
        1.23949         9.35317         5.20359         5.20359 
        1.24562         9.30739         5.14486         5.14486 
        1.25174         9.22775         5.08713         5.08713 
        1.25789         9.15737         5.03011         5.03011 
        1.26402         9.10854         4.97409         4.97409 
        1.27014         9.02289         4.91906         4.91906 
        1.27628         8.91422          4.8647          4.8647 
        1.28244         8.83237         4.81107         4.81107 
        1.28858         8.82211         4.75832         4.75832 
        1.29471         8.72372          4.7065          4.7065 
        1.30084         8.63698         4.65549         4.65549 
        1.30697         8.62885         4.60517         4.60517 
        1.31312          8.4819         4.55553         4.55553 
        1.31925         8.43637         4.50678         4.50678 
        1.32537         8.37666          4.4588          4.4588 
        1.33151         8.34255         4.41135         4.41135 
        1.33765         8.24995         4.36462         4.36462 
        1.34378         8.18396         4.31868         4.31868 
        1.34992         8.13176         4.27336         4.27336 
        1.35606         8.07104          4.2286          4.2286 
         1.3622         8.02288         4.18458         4.18458 
        1.36833         7.95189         4.14128         4.14128 
        1.37445         7.90168         4.09863         4.09863 
        1.38059         7.87103         4.05645         4.05645 
        1.38675         7.79294         4.01478         4.01478 
        1.39288         7.74405         3.97385         3.97385 
        1.39901           7.659         3.93353         3.93353 
        1.40515         7.62854         3.89367         3.89367 
         1.4113         7.57488         3.85439         3.85439 
        1.41742         7.51852         3.81581         3.81581 
        1.42355          7.4504         3.77768         3.77768 
         1.4297         7.39906         3.73996         3.73996 
        1.43585         7.37155         3.70278         3.70278 
        1.44198         7.33753         3.66625         3.66625 
        1.44809         7.26104         3.63029         3.63029 
        1.45423         7.20245         3.59468         3.59468 
        1.46036         7.15764         3.55962         3.55962 
        1.46649         7.10801         3.52501         3.52501 
        1.47263         7.04684         3.49084         3.49084 
        1.47877         7.00388         3.45715         3.45715 
        1.48491         6.96221         3.42385         3.42385 
        1.49104         6.91623         3.39106         3.39106 
        1.49718         6.87504         3.35868         3.35868 
        1.50333         6.83116         3.32668         3.32668 
        1.50947         6.77694         3.29516         3.29516 
         1.5156         6.73925          3.2641          3.2641 
        1.52172         6.70112         3.23344         3.23344 
        1.52787          6.6564         3.20312         3.20312 
          1.534         6.60456         3.17323         3.17323 
        1.54013          6.5753         3.14376         3.14376 
        1.54627         6.51195          3.1146          3.1146 
        1.55241         6.47581         3.08582         3.08582 
        1.55855         6.44873         3.05744         3.05744 
        1.56467         6.39646          3.0295          3.0295 
         1.5708         6.36949         3.00183         3.00183 
        1.57695         6.30801         2.97447         2.97447 
        1.58308          6.2666         2.94751         2.94751 
        1.58922         6.24744         2.92087         2.92087 
        1.59535         6.21576         2.89458         2.89458 
         1.6015         6.16248         2.86857         2.86857 
        1.60764         6.11818          2.8429          2.8429 
        1.61376          6.0908         2.81761         2.81761 
        1.61989         6.05599         2.79261         2.79261 
        1.62604         6.00924         2.76787         2.76787 
        1.63218         5.99345         2.74344         2.74344 
        1.63831           5.956         2.71936         2.71936 
        1.64444         5.91959         2.69557         2.69557 
        1.65059         5.85197         2.67201         2.67201 
        1.65673         5.84684         2.64875         2.64875 
        1.66285         5.78589         2.62584         2.62584 
        1.66898         5.76342          2.6032          2.6032 
        1.67512          5.7342         2.58078         2.58078 
        1.68127         5.69712          2.5586          2.5586 
         1.6874         5.67334         2.53674         2.53674 
        1.69353         5.62953         2.51515         2.51515 
        1.69967         5.59942         2.49376         2.49376 
        1.70581         5.56727         2.47263         2.47263 
        1.71193         5.53638         2.45182         2.45182 
        1.71806         5.51255         2.43122         2.43122 
        1.72421         5.47073         2.41081         2.41081 
        1.73035         5.45395         2.39066         2.39066 
        1.73649         5.41883         2.37074         2.37074 
        1.74262         5.37496         2.35107         2.35107 
        1.74876         5.35863         2.33161         2.33161 
        1.75489         5.33638         2.31241         2.31241 
        1.76101         5.28733         2.29344         2.29344 
        1.76715         5.27036         2.27466         2.27466 
        1.77329         5.24288         2.25606         2.25606 
        1.77943         5.19453         2.23766         2.23766 
        1.78557         5.18572          2.2195          2.2195 
        1.79171         5.14867         2.20154         2.20154 
        1.79785         5.12223         2.18378         2.18378 
        1.80399         5.08659         2.16621         2.16621 
        1.81012         5.06755         2.14887         2.14887 
        1.81625         5.03496         2.13172         2.13172 
        1.82239         5.01444         2.11474         2.11474 
        1.82853         4.98443         2.09795         2.09795 
        1.83466         4.96506         2.08136         2.08136 
        1.84078         4.93979         2.06497         2.06497 
        1.84692         4.92131         2.04873         2.04873 
        1.85306         4.87837         2.03265         2.03265 
         1.8592         4.84902         2.01676         2.01676 
        1.86533         4.82801         2.00106         2.00106 
        1.87147         4.80936          1.9855          1.9855 
