# k  (h/Mpc)    Pcb(k)  (Mpc/h)^3    Pcb_linear(k) (Mpc/h)^3    Pcb_NL(k) (Mpc/h)^3   ShotnoiseSubtracted = false
     0.00783031         2322.86         2347.43         2347.43 
       0.013688         2971.36         2968.93         2968.93 
       0.019231         3062.49         3060.61         3060.61 
      0.0249154         2859.91         2882.79         2882.79 
      0.0312784         2548.44         2554.17         2554.17 
      0.0375637         2233.91         2228.74         2228.74 
      0.0433917         1974.19         1982.78         1982.78 
      0.0492413         1798.67         1799.45         1799.45 
      0.0555754         1641.34         1655.74         1655.74 
      0.0619321         1546.75         1539.98         1539.98 
       0.067871         1424.72         1434.47         1434.47 
      0.0738098         1309.92         1320.02         1320.02 
      0.0800417         1177.19         1191.02         1191.02 
      0.0862327         1057.25          1063.7          1063.7 
      0.0921407         953.526         954.207         954.207 
      0.0982031         858.151         861.902         861.902 
       0.104506         795.982         789.583         789.583 
       0.110769         742.432         737.762         737.762 
       0.116806         698.892         699.667         699.667 
       0.122832         668.741         665.755         665.755 
       0.129052         626.535         629.113         629.113 
       0.135211         586.676         588.616         588.616 
       0.141259         548.998         545.744         545.744 
       0.147318         509.583         502.871         502.871 
       0.153489         467.365         462.926         462.926 
       0.159709         435.894         429.088         429.088 
       0.165845         414.307         402.746         402.746 
       0.171974         389.828         382.412         382.412 
       0.178125         373.647         365.897         365.897 
       0.184229         359.812         351.017         351.017 
        0.19034         338.926          335.78          335.78 
       0.196428         327.155         319.386         319.386 
       0.202534         313.372         301.884         301.884 
       0.208729         294.189         283.954         283.954 
       0.214876         275.703         267.136         267.136 
       0.220989         265.053         252.266         252.266 
       0.227147         249.141         239.552         239.552 
        0.23329         238.968         228.978         228.978 
       0.239377         231.614         220.031         220.031 
       0.245482         219.693         211.888         211.888 
       0.251667         214.851         203.855         203.855 
       0.257832         206.841         195.677         195.677 
       0.263955          198.36         187.324         187.324 
       0.270079          190.52         178.926         178.926 
        0.27624         184.921         170.747         170.747 
       0.282372         177.155         163.178         163.178 
        0.28843         169.756         156.427         156.427 
       0.294538          163.17         150.378         150.378 
       0.300721          159.77         144.908         144.908 
        0.30691         152.914          139.89          139.89 
       0.313033          148.42          135.17          135.17 
       0.319153         141.711         130.547         130.547 
       0.325316         139.174         125.918         125.918 
        0.33145         133.918         121.356         121.356 
       0.337538         130.673         116.938         116.938 
       0.343633         126.054         112.714         112.714 
       0.349808         122.231         108.701         108.701 
       0.355968         118.994         104.997         104.997 
       0.362074         115.352         101.598         101.598 
       0.368217         112.103         98.4091         98.4091 
       0.374374         108.817         95.3814         95.3814 
       0.380519         106.151         92.4701         92.4701 
       0.386598          103.27         89.6682         89.6682 
       0.392688         101.176         86.9245         86.9245 
        0.39888         98.2585         84.2089         84.2089 
       0.405048         95.9157         81.6005         81.6005 
       0.411186         93.7154         79.1171         79.1171 
       0.417313         90.7978         76.7638         76.7638 
       0.423458         88.6106         74.5319         74.5319 
       0.429607         86.2819         72.4134         72.4134 
       0.435692         83.6077         70.4161         70.4161 
       0.441815         82.5252         68.4877         68.4877 
       0.447964         81.1376         66.6167         66.6167 
       0.454126         77.7866         64.7983         64.7983 
       0.460267         76.5489         63.0421         63.0421 
       0.466387         74.6024          61.348          61.348 
        0.47254         73.4311          59.704          59.704 
       0.478662         72.1759         58.1314         58.1314 
       0.484765         70.2107         56.6288         56.6288 
       0.490885         68.7208         55.1839         55.1839 
       0.497035         67.7544         53.7889         53.7889 
       0.503198         65.9982         52.4437         52.4437 
       0.509342         64.3706         51.1499         51.1499 
       0.515458          63.185         49.9041         49.9041 
       0.521598         62.2372         48.6915         48.6915 
       0.527764         61.0226         47.5111         47.5111 
       0.533884         59.9586         46.3772         46.3772 
           0.54         58.7575         45.2818         45.2818 
       0.546137         57.9107         44.2198         44.2198 
       0.552299          57.027         43.1897         43.1897 
       0.558452         55.3407          42.196          42.196 
       0.564573         54.4738         41.2405         41.2405 
       0.570708         53.7505         40.3139         40.3139 
       0.576825         52.5204         39.4192         39.4192 
       0.582926         51.5512         38.5539         38.5539 
       0.589034         50.2642         37.7128         37.7128 
       0.595184         49.6513         36.8907         36.8907 
       0.601379         48.9011         36.0874         36.0874 
       0.607522         47.8489         35.3149         35.3149 
       0.613639         47.5504          34.569          34.569 
       0.619772         46.3296         33.8437         33.8437 
       0.625918         46.0803         33.1386         33.1386 
       0.632068          45.359         32.4537         32.4537 
       0.638161         44.4981         31.7946         31.7946 
         0.6443          43.682         31.1492         31.1492 
       0.650464         42.9654         30.5195         30.5195 
       0.656582         42.6723         29.9119         29.9119 
       0.662703         41.8362         29.3209         29.3209 
       0.668861         41.1668         28.7427         28.7427 
       0.675024         40.4983           28.18           28.18 
       0.681124         39.8117         27.6382         27.6382 
       0.687237          39.143         27.1099         27.1099 
       0.693381         38.8281         26.5931         26.5931 
       0.699536         37.9342         26.0891         26.0891 
       0.705665         37.9067         25.6006         25.6006 
       0.711789         37.0078         25.1252         25.1252 
       0.717957         36.5853         24.6587         24.6587 
        0.72409          36.061         24.2069         24.2069 
       0.730186         35.5438         23.7693         23.7693 
       0.736317         35.2204         23.3403         23.3403 
       0.742472         34.6027         22.9205         22.9205 
       0.748622         34.2951         22.5115         22.5115 
        0.75476         33.7223         22.1136         22.1136 
       0.760888         33.2647          21.726          21.726 
       0.767043         32.8851         21.3463         21.3463 
       0.773185         32.3403         20.9766         20.9766 
       0.779291         32.1694         20.6178         20.6178 
       0.785407          31.804         20.2671         20.2671 
       0.791564         31.2183         19.9224         19.9224 
       0.797719         30.6154          19.586          19.586 
       0.803834         30.5658         19.2596         19.2596 
       0.809972         30.2424         18.9396         18.9396 
       0.816124          29.541         18.6262         18.6262 
       0.822261         29.3861         18.3209         18.3209 
       0.828378          29.093         18.0234         18.0234 
       0.834502         28.7639         17.7324         17.7324 
       0.840667         28.4252         17.4459         17.4459 
       0.846816         27.9556         17.1667         17.1667 
       0.852925         27.7175         16.8955         16.8955 
       0.859047         27.3911         16.6296         16.6296 
       0.865192         27.1344         16.3686         16.3686 
       0.871341         26.9487         16.1132         16.1132 
       0.877463         26.4442         15.8644         15.8644 
       0.883569         26.1463         15.6215         15.6215 
       0.889708         25.8266         15.3826         15.3826 
       0.895864         25.6436         15.1481         15.1481 
       0.902008         25.4409         14.9191         14.9191 
       0.908149         25.1601          14.695          14.695 
       0.914301         25.0245         14.4752         14.4752 
       0.920448         24.5109         14.2601         14.2601 
       0.926574         24.3548         14.0503         14.0503 
       0.932687         24.0863         13.8451         13.8451 
       0.938823         23.7868         13.6434         13.6434 
       0.944975         23.5513         13.4452         13.4452 
       0.951105          23.372         13.2518         13.2518 
       0.957225         23.1137         13.0625         13.0625 
       0.963368         22.9182         12.8764         12.8764 
       0.969511         22.7322         12.6939         12.6939 
       0.975621         22.5482          12.516          12.516 
       0.981748          22.241          12.341          12.341 
       0.987916         22.0922         12.1684         12.1684 
        0.99406          21.831         11.9997         11.9997 
        1.00019         21.5442         11.8346         11.8346 
        1.00632          21.487         11.6728         11.6728 
        1.01246         21.2809         11.5138         11.5138 
        1.01859         20.9677          11.358          11.358 
        1.02471         20.9008         11.2054         11.2054 
        1.03085         20.6988         11.0551         11.0551 
        1.03698         20.3651         10.9078         10.9078 
        1.04314         20.2553         10.7627         10.7627 
        1.04929         20.0217         10.6206         10.6206 
        1.05541         19.8203         10.4816         10.4816 
        1.06154         19.6928         10.3448         10.3448 
        1.06769         19.5802         10.2103         10.2103 
        1.07382         19.3495         10.0786         10.0786 
        1.07993         19.2475         9.94962         9.94962 
        1.08607         19.0097         9.82234         9.82234 
        1.09222         18.8834         9.69718         9.69718 
        1.09836         18.6492         9.57437         9.57437 
        1.10449         18.5616         9.45386         9.45386 
        1.11063         18.3489          9.3353          9.3353 
        1.11677          18.276         9.21884         9.21884 
         1.1229         18.1641         9.10459         9.10459 
        1.12903          17.933          8.9922          8.9922 
        1.13518         17.7404         8.88163         8.88163 
        1.14131         17.6623           8.773           8.773 
        1.14745          17.523         8.66627         8.66627 
        1.15359         17.4065         8.56132         8.56132 
        1.15973         17.2439         8.45807         8.45807 
        1.16584         17.0138         8.35701         8.35701 
        1.17197         16.9803         8.25748         8.25748 
        1.17811         16.8192         8.15927         8.15927 
        1.18424         16.6651         8.06297         8.06297 
        1.19038         16.6004         7.96795         7.96795 
        1.19652         16.4489         7.87452         7.87452 
        1.20267         16.2879          7.7826          7.7826 
        1.20881         16.2391         7.69218         7.69218 
        1.21495         16.1097         7.60336         7.60336 
        1.22108         15.9373         7.51597         7.51597 
         1.2272         15.8033         7.43017         7.43017 
        1.23334         15.6821         7.34552         7.34552 
        1.23949         15.5499         7.26201         7.26201 
        1.24562         15.4999         7.18004         7.18004 
        1.25174         15.3963         7.09947         7.09947 
        1.25789         15.2797         7.01991         7.01991 
        1.26402         15.2111         6.94171         6.94171 
        1.27014         15.0629         6.86491         6.86491 
        1.27628         14.8803         6.78906         6.78906 
        1.28244         14.8151         6.71421         6.71421 
        1.28858         14.7805          6.6406          6.6406 
        1.29471         14.6218         6.56827         6.56827 
        1.30084         14.4909         6.49709         6.49709 
        1.30697         14.4329         6.42687         6.42687 
        1.31312         14.2662         6.35759         6.35759 
        1.31925         14.1733         6.28955         6.28955 
        1.32537         14.1224         6.22259         6.22259 
        1.33151         14.0113         6.15637         6.15637 
        1.33765         13.9157         6.09116         6.09116 
        1.34378         13.8253         6.02704         6.02704 
        1.34992         13.6926          5.9638          5.9638 
        1.35606         13.6539         5.90134         5.90134 
         1.3622          13.569         5.83989         5.83989 
        1.36833          13.442         5.77947         5.77947 
        1.37445         13.3825         5.71995         5.71995 
        1.38059         13.3104         5.66109         5.66109 
        1.38675          13.175         5.60292         5.60292 
        1.39288         13.1149         5.54581         5.54581 
        1.39901         12.9952         5.48953         5.48953 
        1.40515         12.9486         5.43391         5.43391 
         1.4113         12.8607         5.37909         5.37909 
        1.41742         12.7711         5.32524         5.32524 
        1.42355         12.6881         5.27204         5.27204 
         1.4297           12.61          5.2194          5.2194 
        1.43585         12.5656         5.16751         5.16751 
        1.44198         12.4713         5.11654         5.11654 
        1.44809         12.3899         5.06635         5.06635 
        1.45423         12.2957         5.01665         5.01665 
        1.46036         12.2399         4.96771         4.96771 
        1.46649         12.1775         4.91942         4.91942 
        1.47263         12.0646         4.87174         4.87174 
        1.47877         12.0064         4.82471         4.82471 
        1.48491         11.9362         4.77824         4.77824 
        1.49104         11.8728         4.73248         4.73248 
        1.49718         11.8015         4.68729         4.68729 
        1.50333         11.7314         4.64263         4.64263 
        1.50947         11.6568         4.59864         4.59864 
         1.5156         11.5836          4.5553          4.5553 
        1.52172         11.5225         4.51252         4.51252 
        1.52787         11.4418          4.4702          4.4702 
          1.534         11.3776         4.42849         4.42849 
        1.54013         11.3095         4.38735         4.38735 
        1.54627         11.2291         4.34666         4.34666 
        1.55241         11.1829         4.30649         4.30649 
        1.55855         11.1296         4.26689         4.26689 
        1.56467         11.0473         4.22789         4.22789 
         1.5708         11.0263         4.18928         4.18928 
        1.57695         10.9182         4.15109         4.15109 
        1.58308          10.864         4.11348         4.11348 
        1.58922           10.82          4.0763          4.0763 
        1.59535         10.7715          4.0396          4.0396 
         1.6015         10.6848         4.00331         4.00331 
        1.60764         10.6187         3.96748         3.96748 
        1.61376         10.5968         3.93219         3.93219 
        1.61989          10.508          3.8973          3.8973 
        1.62604         10.4689         3.86277         3.86277 
        1.63218         10.4159         3.82868         3.82868 
        1.63831         10.3689         3.79508         3.79508 
        1.64444         10.2936         3.76187         3.76187 
        1.65059         10.2201         3.72899         3.72899 
        1.65673         10.1987         3.69653         3.69653 
        1.66285         10.0953         3.66456         3.66456 
        1.66898         10.0683         3.63296         3.63296 
        1.67512         10.0286         3.60167         3.60167 
        1.68127         9.95993         3.57072         3.57072 
         1.6874         9.91921         3.54021         3.54021 
        1.69353         9.85985         3.51008         3.51008 
        1.69967         9.79997         3.48023         3.48023 
        1.70581          9.7527         3.45074         3.45074 
        1.71193         9.69491         3.42171         3.42171 
        1.71806         9.67571         3.39295         3.39295 
        1.72421         9.59722         3.36446         3.36446 
        1.73035         9.57551         3.33634         3.33634 
        1.73649         9.52566         3.30855         3.30855 
        1.74262         9.46103          3.2811          3.2811 
        1.74876         9.42492         3.25394         3.25394 
        1.75489         9.38583         3.22715         3.22715 
        1.76101         9.30731         3.20067         3.20067 
        1.76715         9.29447         3.17445         3.17445 
        1.77329         9.22994          3.1485          3.1485 
        1.77943         9.17533         3.12283         3.12283 
        1.78557         9.15435         3.09748         3.09748 
        1.79171           9.109         3.07242         3.07242 
        1.79785         9.04628         3.04763         3.04763 
        1.80399         8.99631         3.02312         3.02312 
        1.81012         8.96361         2.99891         2.99891 
        1.81625         8.90786         2.97498         2.97498 
        1.82239         8.87757         2.95128         2.95128 
        1.82853         8.81612         2.92785         2.92785 
        1.83466         8.78284          2.9047          2.9047 
        1.84078         8.73011         2.88182         2.88182 
        1.84692         8.71849         2.85916         2.85916 
        1.85306         8.65738         2.83671         2.83671 
         1.8592         8.61181         2.81455         2.81455 
        1.86533         8.57398         2.79263         2.79263 
        1.87147         8.54055         2.77092         2.77092 
