# k  (h/Mpc)    Pcb(k)  (Mpc/h)^3    Pcb_linear(k) (Mpc/h)^3    Pcb_NL(k) (Mpc/h)^3   ShotnoiseSubtracted = false
     0.00783031         12101.6         12271.7         12271.7 
       0.013688         15631.7         15512.4         15512.4 
       0.019231           16003         15987.8         15987.8 
      0.0249154         14757.9         15056.9         15056.9 
      0.0312784         13188.3         13339.4         13339.4 
      0.0375637         11612.2         11639.2         11639.2 
      0.0433917         10151.8         10354.4         10354.4 
      0.0492413         9298.36         9396.73         9396.73 
      0.0555754         8364.96         8646.12         8646.12 
      0.0619321         8011.91         8041.53         8041.53 
       0.067871         7262.72         7490.47         7490.47 
      0.0738098         6682.78         6892.79         6892.79 
      0.0800417         5967.33         6219.12         6219.12 
      0.0862327         5403.32         5554.27         5554.27 
      0.0921407         4934.16         4982.52         4982.52 
      0.0982031         4437.78         4500.52         4500.52 
       0.104506         4184.54         4122.88         4122.88 
       0.110769         3897.25         3852.29         3852.29 
       0.116806         3673.86         3653.36         3653.36 
       0.122832         3506.87         3476.28         3476.28 
       0.129052         3251.42         3284.95         3284.95 
       0.135211         3064.54         3073.48         3073.48 
       0.141259         2910.39         2849.62         2849.62 
       0.147318          2728.7         2625.75         2625.75 
       0.153489         2501.48         2417.17         2417.17 
       0.159709         2369.91         2240.49         2240.49 
       0.165845         2286.88         2102.94         2102.94 
       0.171974         2164.89         1996.76         1996.76 
       0.178125         2066.75         1910.53         1910.53 
       0.184229         1985.56         1832.84         1832.84 
        0.19034         1868.64         1753.27         1753.27 
       0.196428         1829.64         1667.67         1667.67 
       0.202534         1758.95         1576.28         1576.28 
       0.208729         1673.68         1482.66         1482.66 
       0.214876         1597.35         1394.85         1394.85 
       0.220989         1546.12          1317.2          1317.2 
       0.227147          1476.9         1250.82         1250.82 
        0.23329         1422.44          1195.6          1195.6 
       0.239377         1400.73         1148.89         1148.89 
       0.245482         1313.64         1106.37         1106.37 
       0.251667         1305.29         1064.42         1064.42 
       0.257832         1255.05         1021.72         1021.72 
       0.263955         1213.52         978.108         978.108 
       0.270079          1172.2         934.259         934.259 
        0.27624         1159.03         891.552         891.552 
       0.282372         1109.86          852.03          852.03 
        0.28843         1098.59         816.777         816.777 
       0.294538         1044.87         785.192         785.192 
       0.300721         1041.19         756.632         756.632 
        0.30691         997.372          730.43          730.43 
       0.313033         978.746         705.785         705.785 
       0.319153         959.465         681.647         681.647 
       0.325316         928.706         657.477         657.477 
        0.33145         906.601         633.653         633.653 
       0.337538         893.112         610.586         610.586 
       0.343633         869.969         588.534         588.534 
       0.349808         841.125         567.579         567.579 
       0.355968         836.257         548.236         548.236 
       0.362074         825.754         530.491         530.491 
       0.368217         801.741         513.839         513.839 
       0.374374         769.352         498.029         498.029 
       0.380519         769.034         482.828         482.828 
       0.386598         749.441         468.198         468.198 
       0.392688         746.803         453.872         453.872 
        0.39888         725.168         439.693         439.693 
       0.405048         713.809         426.073         426.073 
       0.411186         703.377         413.106         413.106 
       0.417313         689.539         400.819         400.819 
       0.423458         677.929         389.165         389.165 
       0.429607         667.389         378.103         378.103 
       0.435692         652.689         367.674         367.674 
       0.441815         648.363         357.605         357.605 
       0.447964         634.475         347.836         347.836 
       0.454126         624.242         338.341         338.341 
       0.460267         612.233         329.171         329.171 
       0.466387          605.79         320.325         320.325 
        0.47254         596.182         311.741         311.741 
       0.478662          593.97          303.53          303.53 
       0.484765         576.031         295.684         295.684 
       0.490885          571.66          288.14          288.14 
       0.497035         560.572         280.856         280.856 
       0.503198         554.929         273.832         273.832 
       0.509342         549.918         267.077         267.077 
       0.515458         545.847         260.572         260.572 
       0.521598          533.15          254.24          254.24 
       0.527764         522.653         248.077         248.077 
       0.533884         521.483         242.156         242.156 
           0.54         514.858         236.437         236.437 
       0.546137         512.244         230.891         230.891 
       0.552299         503.047         225.513         225.513 
       0.558452         500.627         220.324         220.324 
       0.564573         493.146         215.335         215.335 
       0.570708         486.666         210.497         210.497 
       0.576825         474.774         205.825         205.825 
       0.582926         474.987         201.307         201.307 
       0.589034         470.607         196.915         196.915 
       0.595184         466.115         192.623         192.623 
       0.601379         460.076         188.428         188.428 
       0.607522         453.768         184.395         184.395 
       0.613639         452.725           180.5           180.5 
       0.619772         441.392         176.713         176.713 
       0.625918         440.529         173.031         173.031 
       0.632068         433.934         169.455         169.455 
       0.638161         432.367         166.014         166.014 
         0.6443         424.457         162.644         162.644 
       0.650464         421.853         159.356         159.356 
       0.656582         420.022         156.184         156.184 
       0.662703          417.68         153.097         153.097 
       0.668861         410.148         150.079         150.079 
       0.675024         406.604          147.14          147.14 
       0.681124         404.047         144.311         144.311 
       0.687237         400.093         141.553         141.553 
       0.693381         394.886         138.854         138.854 
       0.699536         390.373         136.223         136.223 
       0.705665         388.075         133.672         133.672 
       0.711789          385.42          131.19          131.19 
       0.717957         382.029         128.754         128.754 
        0.72409         379.125         126.395         126.395 
       0.730186         374.609          124.11          124.11 
       0.736317         371.394          121.87          121.87 
       0.742472         369.894         119.678         119.678 
       0.748622         365.728         117.543         117.543 
        0.75476         361.709         115.465         115.465 
       0.760888         357.823         113.441         113.441 
       0.767043         358.502         111.458         111.458 
       0.773185         353.655         109.528         109.528 
       0.779291         348.709         107.655         107.655 
       0.785407         347.453         105.823         105.823 
       0.791564         343.289         104.024         104.024 
       0.797719         340.968         102.267         102.267 
       0.803834         338.218         100.563         100.563 
       0.809972         336.744         98.8919         98.8919 
       0.816124         336.378         97.2556         97.2556 
       0.822261         331.146         95.6614         95.6614 
       0.828378         329.104         94.1081         94.1081 
       0.834502         327.089         92.5884         92.5884 
       0.840667          323.18         91.0929         91.0929 
       0.846816         321.607         89.6351         89.6351 
       0.852925         319.337         88.2188         88.2188 
       0.859047          317.64         86.8305         86.8305 
       0.865192         314.167         85.4679         85.4679 
       0.871341         311.798          84.134          84.134 
       0.877463         310.008         82.8349         82.8349 
       0.883569         308.309          81.567          81.567 
       0.889708         305.362         80.3194         80.3194 
       0.895864          302.17         79.0951         79.0951 
       0.902008         301.075         77.8992         77.8992 
       0.908149         299.194          76.729          76.729 
       0.914301         295.565         75.5813         75.5813 
       0.920448         293.606         74.4585         74.4585 
       0.926574         290.839         73.3626         73.3626 
       0.932687         291.252         72.2914         72.2914 
       0.938823          287.59          71.238          71.238 
       0.944975         286.717         70.2035         70.2035 
       0.951105          284.33         69.1935         69.1935 
       0.957225         282.158         68.2053         68.2053 
       0.963368         278.669         67.2333         67.2333 
       0.969511         277.489         66.2804         66.2804 
       0.975621         275.111         65.3514         65.3514 
       0.981748         275.164         64.4379         64.4379 
       0.987916         272.558         63.5364         63.5364 
        0.99406          268.82         62.6557         62.6557 
        1.00019         268.778         61.7937         61.7937 
        1.00632         266.829         60.9487         60.9487 
        1.01246         264.578         60.1185         60.1185 
        1.01859         264.689         59.3053         59.3053 
        1.02471         261.042         58.5083         58.5083 
        1.03085         258.707         57.7234         57.7234 
        1.03698         258.002         56.9547         56.9547 
        1.04314          255.43         56.1968         56.1968 
        1.04929         253.816         55.4547         55.4547 
        1.05541         253.737         54.7292         54.7292 
        1.06154         250.224         54.0149         54.0149 
        1.06769         249.613         53.3125         53.3125 
        1.07382         247.957          52.625          52.625 
        1.07993          245.85         51.9513         51.9513 
        1.08607          245.22         51.2867         51.2867 
        1.09222         243.407         50.6332         50.6332 
        1.09836         241.367          49.992          49.992 
        1.10449         238.888         49.3627         49.3627 
        1.11063          236.96         48.7437         48.7437 
        1.11677         236.598         48.1356         48.1356 
         1.1229         234.905         47.5391         47.5391 
        1.12903         233.378         46.9522         46.9522 
        1.13518         231.922         46.3749         46.3749 
        1.14131         230.077         45.8077         45.8077 
        1.14745         229.723         45.2504         45.2504 
        1.15359         227.693         44.7024         44.7024 
        1.15973         226.404         44.1633         44.1633 
        1.16584         224.281         43.6356         43.6356 
        1.17197         224.028         43.1159         43.1159 
        1.17811          221.79         42.6031         42.6031 
        1.18424         220.517         42.1003         42.1003 
        1.19038         219.729         41.6042         41.6042 
        1.19652         218.044         41.1163         41.1163 
        1.20267         217.435         40.6364         40.6364 
        1.20881         215.276         40.1643         40.1643 
        1.21495         214.151         39.7005         39.7005 
        1.22108         212.933         39.2442         39.2442 
         1.2272         211.201         38.7962         38.7962 
        1.23334         210.226         38.3542         38.3542 
        1.23949         208.964         37.9181         37.9181 
        1.24562         207.861         37.4901         37.4901 
        1.25174         205.721         37.0694         37.0694 
        1.25789         204.382          36.654          36.654 
        1.26402         203.255         36.2457         36.2457 
        1.27014         201.886         35.8447         35.8447 
        1.27628         200.874         35.4486         35.4486 
        1.28244         200.541         35.0578         35.0578 
        1.28858         198.423         34.6735         34.6735 
        1.29471         196.755         34.2958         34.2958 
        1.30084         196.023         33.9242         33.9242 
        1.30697         194.592         33.5575         33.5575 
        1.31312         193.237         33.1957         33.1957 
        1.31925          192.71         32.8405         32.8405 
        1.32537         191.463         32.4909         32.4909 
        1.33151          189.62         32.1451         32.1451 
        1.33765          188.72         31.8046         31.8046 
        1.34378         187.786         31.4698         31.4698 
        1.34992         186.873         31.1396         31.1396 
        1.35606         186.501         30.8135         30.8135 
         1.3622          184.73         30.4926         30.4926 
        1.36833         182.966         30.1772         30.1772 
        1.37445         181.994         29.8664         29.8664 
        1.38059         180.867          29.559          29.559 
        1.38675          180.09         29.2553         29.2553 
        1.39288         178.903         28.9571         28.9571 
        1.39901         178.754         28.6633         28.6633 
        1.40515         176.801         28.3728         28.3728 
         1.4113         175.509         28.0866         28.0866 
        1.41742         174.644         27.8054         27.8054 
        1.42355         173.478         27.5276         27.5276 
         1.4297         172.493         27.2528         27.2528 
        1.43585         171.252         26.9818         26.9818 
        1.44198         170.474         26.7157         26.7157 
        1.44809         169.739         26.4536         26.4536 
        1.45423         168.427         26.1941         26.1941 
        1.46036         167.563         25.9386         25.9386 
        1.46649         166.259         25.6864         25.6864 
        1.47263         165.322         25.4375         25.4375 
        1.47877          164.62         25.1919         25.1919 
        1.48491         162.904         24.9493         24.9493 
        1.49104           162.8         24.7103         24.7103 
        1.49718         160.888         24.4744         24.4744 
        1.50333         160.383         24.2412         24.2412 
        1.50947         159.707         24.0115         24.0115 
         1.5156         158.351         23.7852         23.7852 
        1.52172         157.435         23.5618         23.5618 
        1.52787         156.301         23.3409         23.3409 
          1.534         155.777          23.123          23.123 
        1.54013         154.568         22.9083         22.9083 
        1.54627         153.869         22.6958         22.6958 
        1.55241         152.707         22.4861         22.4861 
        1.55855         151.897         22.2793         22.2793 
        1.56467         151.016         22.0757         22.0757 
         1.5708         150.166         21.8741         21.8741 
        1.57695         149.215         21.6747         21.6747 
        1.58308         148.586         21.4782         21.4782 
        1.58922         147.672         21.2841         21.2841 
        1.59535          146.41         21.0925         21.0925 
         1.6015         146.007          20.903          20.903 
        1.60764          144.98         20.7159         20.7159 
        1.61376         144.098         20.5317         20.5317 
        1.61989         143.102         20.3495         20.3495 
        1.62604         142.364         20.1692         20.1692 
        1.63218         141.639         19.9912         19.9912 
        1.63831         140.548         19.8157         19.8157 
        1.64444         140.138         19.6424         19.6424 
        1.65059         139.321         19.4707         19.4707 
        1.65673         137.964         19.3012         19.3012 
        1.66285         137.777         19.1343         19.1343 
        1.66898         136.763         18.9693         18.9693 
        1.67512         136.278         18.8059         18.8059 
        1.68127         134.945         18.6443         18.6443 
         1.6874         133.833          18.485          18.485 
        1.69353         133.661         18.3277         18.3277 
        1.69967         132.718         18.1718         18.1718 
        1.70581         131.974         18.0178         18.0178 
        1.71193         131.074         17.8662         17.8662 
        1.71806         130.565          17.716          17.716 
        1.72421         129.655         17.5673         17.5673 
        1.73035          129.32         17.4205         17.4205 
        1.73649          128.41         17.2754         17.2754 
        1.74262         127.407          17.132          17.132 
        1.74876         127.006         16.9902         16.9902 
        1.75489          125.83         16.8503         16.8503 
        1.76101         125.252         16.7121         16.7121 
        1.76715         124.493         16.5752         16.5752 
        1.77329         124.265         16.4397         16.4397 
        1.77943         123.028         16.3056         16.3056 
        1.78557         122.405         16.1733         16.1733 
        1.79171         121.733         16.0424         16.0424 
        1.79785         120.918          15.913          15.913 
        1.80399         120.266          15.785          15.785 
        1.81012         119.617         15.6586         15.6586 
        1.81625         118.871         15.5337         15.5337 
        1.82239         118.476         15.4099         15.4099 
        1.82853         117.803         15.2876         15.2876 
        1.83466         116.892         15.1667         15.1667 
        1.84078         116.486         15.0472         15.0472 
        1.84692         115.462         14.9289         14.9289 
        1.85306         115.076         14.8117         14.8117 
         1.8592         114.182          14.696          14.696 
        1.86533         113.395         14.5815         14.5815 
        1.87147         112.771         14.4682         14.4682 
