# k  (h/Mpc)    Pcb(k)  (Mpc/h)^3    Pcb_linear(k) (Mpc/h)^3    Pcb_NL(k) (Mpc/h)^3   ShotnoiseSubtracted = false
     0.00783031         3546.71          3586.3          3586.3 
       0.013688         4545.24         4535.23         4535.23 
       0.019231         4679.29         4675.05         4675.05 
      0.0249154         4360.27          4403.3          4403.3 
      0.0312784         3888.08         3901.29         3901.29 
      0.0375637         3411.03         3404.18         3404.18 
      0.0433917          3008.9         3028.48         3028.48 
      0.0492413         2744.13         2748.45         2748.45 
      0.0555754         2498.31         2528.94         2528.94 
      0.0619321         2361.85         2352.13         2352.13 
       0.067871         2169.39         2190.96         2190.96 
      0.0738098         1994.64         2016.16         2016.16 
      0.0800417          1790.5         1819.12         1819.12 
      0.0862327         1610.35         1624.65         1624.65 
      0.0921407         1455.12         1457.42         1457.42 
      0.0982031         1308.84         1316.44         1316.44 
       0.104506         1217.96         1205.98         1205.98 
       0.110769         1135.67         1126.83         1126.83 
       0.116806         1068.38         1068.64         1068.64 
       0.122832         1022.71         1016.85         1016.85 
       0.129052          956.13         960.881         960.881 
       0.135211         896.261         899.026         899.026 
       0.141259         840.879         833.545         833.545 
       0.147318         781.752         768.063         768.063 
       0.153489         716.656         707.052         707.052 
       0.159709         670.431         655.369         655.369 
       0.165845          638.88         615.136         615.136 
       0.171974         601.276         584.078         584.078 
       0.178125         576.189         558.855         558.855 
       0.184229         555.052         536.128         536.128 
        0.19034         521.257         512.855         512.855 
       0.196428          505.33         487.816         487.816 
       0.202534         485.037         461.083         461.083 
       0.208729         456.084         433.698         433.698 
       0.214876         428.008         408.011         408.011 
       0.220989          412.57         385.299         385.299 
       0.227147         388.287         365.881         365.881 
        0.23329         372.888         349.731         349.731 
       0.239377         362.604         336.065         336.065 
       0.245482         342.217         323.627         323.627 
       0.251667          336.05         311.359         311.359 
       0.257832         323.997         298.868         298.868 
       0.263955         311.107          286.11          286.11 
       0.270079         299.185         273.284         273.284 
        0.27624         291.787         260.792         260.792 
       0.282372         279.642         249.231         249.231 
        0.28843         268.848         238.919         238.919 
       0.294538         258.018          229.68          229.68 
       0.300721          253.94         221.326         221.326 
        0.30691         242.732         213.661         213.661 
       0.313033         236.221         206.452         206.452 
       0.319153         226.095         199.392         199.392 
       0.325316         221.447         192.322         192.322 
        0.33145         213.521         185.353         185.353 
       0.337538         209.356         178.605         178.605 
       0.343633         202.175         172.155         172.155 
       0.349808         196.006         166.025         166.025 
       0.355968         191.682         160.367         160.367 
       0.362074         186.145         155.176         155.176 
       0.368217         181.087         150.305         150.305 
       0.374374         175.775         145.681         145.681 
       0.380519         171.855         141.234         141.234 
       0.386598          167.33         136.955         136.955 
       0.392688         164.401         132.764         132.764 
        0.39888         159.948         128.617         128.617 
       0.405048         156.256         124.633         124.633 
       0.411186         152.778          120.84          120.84 
       0.417313         148.759         117.245         117.245 
       0.423458         145.429         113.836         113.836 
       0.429607          141.76         110.601         110.601 
       0.435692         137.345          107.55          107.55 
       0.441815         136.109         104.605         104.605 
       0.447964          133.83         101.747         101.747 
       0.454126         128.081         98.9699         98.9699 
       0.460267         126.433         96.2875         96.2875 
       0.466387         123.983            93.7            93.7 
        0.47254         121.803          91.189          91.189 
       0.478662         120.058         88.7871         88.7871 
       0.484765         116.887         86.4921         86.4921 
       0.490885         114.719         84.2853         84.2853 
       0.497035         113.147         82.1546         82.1546 
       0.503198         110.115            80.1            80.1 
       0.509342         107.785          78.124          78.124 
       0.515458         106.136         76.2211         76.2211 
       0.521598         104.722          74.369          74.369 
       0.527764         102.912         72.5662         72.5662 
       0.533884         101.134         70.8342         70.8342 
           0.54         99.2678         69.1613         69.1613 
       0.546137         98.1623         67.5392         67.5392 
       0.552299         96.7108         65.9658         65.9658 
       0.558452         94.2128         64.4482         64.4482 
       0.564573         92.5326         62.9888         62.9888 
       0.570708         91.5005         61.5736         61.5736 
       0.576825         89.8168          60.207          60.207 
       0.582926          88.166         58.8854         58.8854 
       0.589034          86.264         57.6007         57.6007 
       0.595184         85.2685          56.345          56.345 
       0.601379         84.2742         55.1181         55.1181 
       0.607522         82.1908         53.9382         53.9382 
       0.613639         82.0101          52.799          52.799 
       0.619772         80.0042         51.6913         51.6913 
       0.625918         79.4025         50.6143         50.6143 
       0.632068         78.3529         49.5683         49.5683 
       0.638161         77.1584         48.5616         48.5616 
         0.6443         75.9975         47.5758         47.5758 
       0.650464         74.8831         46.6141         46.6141 
       0.656582         74.1682         45.6861         45.6861 
       0.662703         72.6897         44.7834         44.7834 
       0.668861         71.8779         43.9003         43.9003 
       0.675024         70.8677         43.0407         43.0407 
       0.681124         69.8028         42.2133         42.2133 
       0.687237         68.6273         41.4063         41.4063 
       0.693381         68.0398          40.617          40.617 
       0.699536          66.842         39.8473         39.8473 
       0.705665         67.0736         39.1011         39.1011 
       0.711789         65.2754          38.375          38.375 
       0.717957         64.7475         37.6626         37.6626 
        0.72409         63.8401         36.9725         36.9725 
       0.730186         62.8407         36.3041         36.3041 
       0.736317         62.5579         35.6489         35.6489 
       0.742472         61.5549         35.0077         35.0077 
       0.748622         61.0521          34.383          34.383 
        0.75476         60.2487         33.7752         33.7752 
       0.760888         59.4012         33.1832         33.1832 
       0.767043         58.7697         32.6033         32.6033 
       0.773185         58.0032         32.0386         32.0386 
       0.779291         57.6838         31.4907         31.4907 
       0.785407         57.1238          30.955          30.955 
       0.791564         56.1707         30.4285         30.4285 
       0.797719         55.2808         29.9147         29.9147 
       0.803834         55.1514         29.4162         29.4162 
       0.809972         54.2884         28.9274         28.9274 
       0.816124         53.4657         28.4488         28.4488 
       0.822261         53.1944         27.9824         27.9824 
       0.828378         52.7335         27.5281         27.5281 
       0.834502          52.107         27.0835         27.0835 
       0.840667         51.6379         26.6461         26.6461 
       0.846816         50.9163         26.2197         26.2197 
       0.852925         50.4941         25.8054         25.8054 
       0.859047         49.8126         25.3993         25.3993 
       0.865192         49.5047         25.0007         25.0007 
       0.871341          49.236         24.6105         24.6105 
       0.877463         48.2657         24.2305         24.2305 
       0.883569           47.91         23.8596         23.8596 
       0.889708         47.5841         23.4947         23.4947 
       0.895864         47.1263         23.1365         23.1365 
       0.902008         46.7433         22.7867         22.7867 
       0.908149         46.2984         22.4444         22.4444 
       0.914301         46.0411         22.1087         22.1087 
       0.920448         45.3007         21.7802         21.7802 
       0.926574         45.0314         21.4597         21.4597 
       0.932687         44.5718         21.1464         21.1464 
       0.938823         43.9798         20.8382         20.8382 
       0.944975         43.8043         20.5356         20.5356 
       0.951105          43.394         20.2402         20.2402 
       0.957225         42.8714         19.9511         19.9511 
       0.963368         42.7015         19.6668         19.6668 
       0.969511         42.3455          19.388          19.388 
       0.975621         42.0027         19.1163         19.1163 
       0.981748         41.4661         18.8491         18.8491 
       0.987916         41.2312         18.5854         18.5854 
        0.99406         40.9194         18.3278         18.3278 
        1.00019         40.3847         18.0756         18.0756 
        1.00632         40.2333         17.8284         17.8284 
        1.01246         39.9083         17.5856         17.5856 
        1.01859         39.3894         17.3477         17.3477 
        1.02471         39.3759         17.1146         17.1146 
        1.03085         38.9714          16.885          16.885 
        1.03698         38.4311         16.6601         16.6601 
        1.04314         38.1283         16.4384         16.4384 
        1.04929         37.9151         16.2214         16.2214 
        1.05541         37.5058         16.0091         16.0091 
        1.06154         37.3715         15.8002         15.8002 
        1.06769          37.053         15.5947         15.5947 
        1.07382         36.7742         15.3936         15.3936 
        1.07993         36.6326         15.1966         15.1966 
        1.08607         36.1361         15.0022         15.0022 
        1.09222         36.0108          14.811          14.811 
        1.09836         35.6115         14.6234         14.6234 
        1.10449         35.4414         14.4394         14.4394 
        1.11063         34.9609         14.2583         14.2583 
        1.11677          34.849         14.0804         14.0804 
         1.1229         34.7238         13.9059         13.9059 
        1.12903         34.2339         13.7342         13.7342 
        1.13518         34.0541         13.5654         13.5654 
        1.14131          33.972         13.3995         13.3995 
        1.14745         33.6244         13.2364         13.2364 
        1.15359         33.4847         13.0761         13.0761 
        1.15973         33.1031         12.9184         12.9184 
        1.16584         32.7975         12.7641         12.7641 
        1.17197          32.841         12.6121         12.6121 
        1.17811         32.3955         12.4621         12.4621 
        1.18424         32.1152          12.315          12.315 
        1.19038         32.0715         12.1699         12.1699 
        1.19652         31.8642         12.0272         12.0272 
        1.20267         31.6174         11.8868         11.8868 
        1.20881         31.3944         11.7487         11.7487 
        1.21495         31.1503          11.613          11.613 
        1.22108         30.9409         11.4795         11.4795 
         1.2272         30.5997         11.3485         11.3485 
        1.23334         30.5008         11.2192         11.2192 
        1.23949         30.2948         11.0916         11.0916 
        1.24562         30.1662         10.9664         10.9664 
        1.25174         30.0026         10.8434         10.8434 
        1.25789         29.7785         10.7219         10.7219 
        1.26402         29.6444         10.6024         10.6024 
        1.27014         29.3188         10.4851         10.4851 
        1.27628         29.1232         10.3693         10.3693 
        1.28244         29.0055          10.255          10.255 
        1.28858          28.887         10.1425         10.1425 
        1.29471         28.6619         10.0321         10.0321 
        1.30084         28.4646         9.92334         9.92334 
        1.30697         28.2517         9.81608         9.81608 
        1.31312          28.016         9.71027         9.71027 
        1.31925         27.8971         9.60636         9.60636 
        1.32537         27.8028         9.50408         9.50408 
        1.33151          27.549         9.40294         9.40294 
        1.33765         27.4743         9.30335         9.30335 
        1.34378         27.3461         9.20541         9.20541 
        1.34992         26.9643         9.10882         9.10882 
        1.35606         26.9142         9.01342         9.01342 
         1.3622         26.7565         8.91957         8.91957 
        1.36833         26.5738         8.82729         8.82729 
        1.37445         26.5364         8.73637         8.73637 
        1.38059         26.3565         8.64647         8.64647 
        1.38675         26.0868         8.55763         8.55763 
        1.39288         26.0102         8.47041         8.47041 
        1.39901         25.8018         8.38445         8.38445 
        1.40515         25.6955          8.2995          8.2995 
         1.4113         25.5393         8.21577         8.21577 
        1.41742         25.3037         8.13352         8.13352 
        1.42355         25.2614         8.05225         8.05225 
         1.4297         25.1027         7.97186         7.97186 
        1.43585           25.04         7.89261         7.89261 
        1.44198         24.7661         7.81475         7.81475 
        1.44809         24.6939         7.73809         7.73809 
        1.45423         24.5673         7.66219         7.66219 
        1.46036         24.4779         7.58745         7.58745 
        1.46649         24.3023         7.51368         7.51368 
        1.47263         24.1306         7.44086         7.44086 
        1.47877         24.0307         7.36903         7.36903 
        1.48491         23.8845         7.29805         7.29805 
        1.49104         23.8442         7.22816         7.22816 
        1.49718         23.6193         7.15914         7.15914 
        1.50333         23.5287         7.09093         7.09093 
        1.50947         23.4439         7.02375         7.02375 
         1.5156          23.238         6.95754         6.95754 
        1.52172         23.0611          6.8922          6.8922 
        1.52787         23.0552         6.82757         6.82757 
          1.534         22.8781         6.76385         6.76385 
        1.54013         22.6928         6.70102         6.70102 
        1.54627         22.6483         6.63888         6.63888 
        1.55241           22.49         6.57753         6.57753 
        1.55855         22.3868         6.51704         6.51704 
        1.56467         22.2963         6.45748         6.45748 
         1.5708         22.2057          6.3985          6.3985 
        1.57695         21.9823         6.34018         6.34018 
        1.58308         22.0065         6.28272         6.28272 
        1.58922         21.8414         6.22594         6.22594 
        1.59535         21.7065         6.16989         6.16989 
         1.6015         21.5964         6.11445         6.11445 
        1.60764         21.5366         6.05973         6.05973 
        1.61376         21.4173         6.00583         6.00583 
        1.61989         21.2193         5.95255         5.95255 
        1.62604         21.2044          5.8998          5.8998 
        1.63218         21.0464         5.84773         5.84773 
        1.63831         20.9969         5.79641         5.79641 
        1.64444         20.8304          5.7457          5.7457 
        1.65059         20.7432         5.69547         5.69547 
        1.65673          20.675          5.6459          5.6459 
        1.66285         20.5293         5.59707         5.59707 
        1.66898         20.4642          5.5488          5.5488 
        1.67512         20.3828         5.50102         5.50102 
        1.68127         20.2242         5.45375         5.45375 
         1.6874         20.1343         5.40715         5.40715 
        1.69353         20.0958         5.36113         5.36113 
        1.69967         19.9218         5.31553         5.31553 
        1.70581         19.8217         5.27049         5.27049 
        1.71193         19.7205         5.22615         5.22615 
        1.71806         19.6719         5.18222         5.18222 
        1.72421         19.5654         5.13872         5.13872 
        1.73035         19.4998         5.09576         5.09576 
        1.73649         19.3633         5.05332         5.05332 
        1.74262         19.3284         5.01139         5.01139 
        1.74876          19.201         4.96991         4.96991 
        1.75489         19.1201         4.92899         4.92899 
        1.76101         19.0196         4.88855         4.88855 
        1.76715         18.9854         4.84851         4.84851 
        1.77329         18.8735         4.80887         4.80887 
        1.77943         18.7613         4.76966         4.76966 
        1.78557         18.6841         4.73095         4.73095 
        1.79171         18.6372         4.69266         4.69266 
        1.79785         18.4949          4.6548          4.6548 
        1.80399         18.4217         4.61736         4.61736 
        1.81012         18.3623         4.58039         4.58039 
        1.81625         18.2612         4.54384         4.54384 
        1.82239         18.2109         4.50764         4.50764 
        1.82853         18.0551         4.47185         4.47185 
        1.83466         17.9936         4.43649         4.43649 
        1.84078         17.8656         4.40156         4.40156 
        1.84692         17.8508         4.36694         4.36694 
        1.85306         17.7445         4.33266         4.33266 
         1.8592         17.6904          4.2988          4.2988 
        1.86533         17.6055         4.26532         4.26532 
        1.87147         17.5192         4.23217         4.23217 
