# k  (h/Mpc)    P(k)  (Mpc/h)^3    P_linear(k)  (Mpc/h)^3     P_NL(k)  ShotnoiseSubtracted = false
     0.00783031         6078.32         6152.37         6152.37 
       0.013688         7812.94         7778.95         7778.95 
       0.019231         8027.42         8018.19         8018.19 
      0.0249154         7452.33          7551.8          7551.8 
      0.0312784         6651.73         6690.65         6690.65 
      0.0375637         5843.46         5838.02         5838.02 
      0.0433917         5138.07         5193.66         5193.66 
      0.0492413         4693.57         4713.37         4713.37 
      0.0555754         4255.42         4336.91         4336.91 
      0.0619321         4043.46         4033.68         4033.68 
       0.067871         3696.12         3757.28         3757.28 
      0.0738098         3398.86         3457.49         3457.49 
      0.0800417          3045.1         3119.59         3119.59 
      0.0862327         2745.37          2786.1          2786.1 
      0.0921407         2489.57         2499.31         2499.31 
      0.0982031         2238.11         2257.53         2257.53 
       0.104506          2093.6         2068.11         2068.11 
       0.110769          1951.1         1932.37         1932.37 
       0.116806          1835.3         1832.59         1832.59 
       0.122832         1756.36         1743.77         1743.77 
       0.129052         1636.43         1647.79         1647.79 
       0.135211         1537.11         1541.72         1541.72 
       0.141259         1448.48         1429.43         1429.43 
       0.147318         1350.32         1317.13         1317.13 
       0.153489          1237.4          1212.5          1212.5 
       0.159709         1163.65         1123.88         1123.88 
       0.165845         1113.64         1054.88         1054.88 
       0.171974         1049.83         1001.62         1001.62 
       0.178125         1004.86         958.364         958.364 
       0.184229         967.937         919.391         919.391 
        0.19034         906.529          879.48          879.48 
       0.196428         883.984          836.54          836.54 
       0.202534          850.26         790.697         790.697 
       0.208729         802.459         743.736         743.736 
       0.214876         756.226         699.686         699.686 
       0.220989          731.15         660.737         660.737 
       0.227147         691.087         627.438         627.438 
        0.23329         664.679         599.743         599.743 
       0.239377         649.674         576.308         576.308 
       0.245482         609.527         554.978         554.978 
       0.251667         601.905         533.941         533.941 
       0.257832         580.555          512.52          512.52 
       0.263955         559.218         490.641         490.641 
       0.270079         538.689         468.646         468.646 
        0.27624         529.176         447.223         447.223 
       0.282372         507.018         427.398         427.398 
        0.28843         491.635         409.715         409.715 
       0.294538         469.856         393.871         393.871 
       0.300721         465.952         379.544         379.544 
        0.30691         444.829         366.401         366.401 
       0.313033         434.962         354.038         354.038 
       0.319153         419.471          341.93          341.93 
       0.325316         408.443         329.806         329.806 
        0.33145         395.607         317.855         317.855 
       0.337538         389.893         306.285         306.285 
       0.343633         376.991         295.222         295.222 
       0.349808         365.215         284.711         284.711 
       0.355968         360.137         275.009         275.009 
       0.362074         351.532         266.106         266.106 
       0.368217          342.22         257.754         257.754 
       0.374374         330.337         249.824         249.824 
       0.380519         325.415         242.198         242.198 
       0.386598         317.435          234.86          234.86 
       0.392688         313.792         227.673         227.673 
        0.39888         305.393         220.561         220.561 
       0.405048         298.629         213.728         213.728 
       0.411186          292.28         207.224         207.224 
       0.417313         286.789          201.06          201.06 
       0.423458         281.082         195.214         195.214 
       0.429607         274.693         189.666         189.666 
       0.435692         267.154         184.434         184.434 
       0.441815         265.249         179.383         179.383 
       0.447964          260.41         174.483         174.483 
       0.454126         250.073          169.72          169.72 
       0.460267         247.361          165.12          165.12 
       0.466387         244.323         160.683         160.683 
        0.47254         239.055         156.377         156.377 
       0.478662         237.286         152.258         152.258 
       0.484765         230.694         148.323         148.323 
       0.490885         227.375         144.538         144.538 
       0.497035         224.159         140.884         140.884 
       0.503198         218.473         137.361         137.361 
       0.509342          215.82         133.972         133.972 
       0.515458         213.007         130.709         130.709 
       0.521598         209.919         127.533         127.533 
       0.527764          206.55         124.441         124.441 
       0.533884         203.501         121.471         121.471 
           0.54         200.469         118.602         118.602 
       0.546137         199.067         115.821         115.821 
       0.552299         195.552         113.123         113.123 
       0.558452         192.403          110.52          110.52 
       0.564573         189.117         108.017         108.017 
       0.570708         186.209          105.59          105.59 
       0.576825         183.792         103.247         103.247 
       0.582926         181.076         100.981         100.981 
       0.589034         178.341         98.7774         98.7774 
       0.595184         176.461         96.6242         96.6242 
       0.601379         174.824         94.5203         94.5203 
       0.607522         170.831         92.4969         92.4969 
       0.613639         170.292         90.5432         90.5432 
       0.619772         166.495         88.6437         88.6437 
       0.625918         164.885         86.7968         86.7968 
       0.632068         163.091          85.003          85.003 
       0.638161         161.689         83.2766         83.2766 
         0.6443         159.385         81.5862         81.5862 
       0.650464         157.637         79.9369         79.9369 
       0.656582         155.926         78.3455         78.3455 
       0.662703         153.504         76.7974         76.7974 
       0.668861         151.673         75.2831         75.2831 
       0.675024         149.884         73.8091         73.8091 
       0.681124         148.826         72.3901         72.3901 
       0.687237         146.197         71.0063         71.0063 
       0.693381         144.392         69.6528         69.6528 
       0.699536         143.218         68.3328         68.3328 
       0.705665         143.448         67.0531         67.0531 
       0.711789         139.839         65.8079         65.8079 
       0.717957         139.293         64.5863         64.5863 
        0.72409         137.341         63.4029         63.4029 
       0.730186         135.119         62.2567         62.2567 
       0.736317          134.72         61.1331         61.1331 
       0.742472         133.528         60.0335         60.0335 
       0.748622         132.392         58.9623         58.9623 
        0.75476          131.06           57.92           57.92 
       0.760888          129.28         56.9048         56.9048 
       0.767043         128.273         55.9102         55.9102 
       0.773185         126.946         54.9419         54.9419 
       0.779291         125.518         54.0023         54.0023 
       0.785407         124.705         53.0836         53.0836 
       0.791564         123.291         52.1808         52.1808 
       0.797719         121.662         51.2997         51.2997 
       0.803834          121.15         50.4448         50.4448 
       0.809972         119.285         49.6066         49.6066 
       0.816124         118.952         48.7858         48.7858 
       0.822261          117.76         47.9861         47.9861 
       0.828378         116.618         47.2069         47.2069 
       0.834502         115.959         46.4446         46.4446 
       0.840667         114.591         45.6945         45.6945 
       0.846816         113.478         44.9632         44.9632 
       0.852925         112.475         44.2527         44.2527 
       0.859047         111.133         43.5563         43.5563 
       0.865192           110.7         42.8728         42.8728 
       0.871341         109.688         42.2037         42.2037 
       0.877463         108.399          41.552          41.552 
       0.883569         107.678          40.916          40.916 
       0.889708         107.009         40.2902         40.2902 
       0.895864          106.03          39.676          39.676 
       0.902008         105.263         39.0762         39.0762 
       0.908149         104.549         38.4892         38.4892 
       0.914301         103.371         37.9135         37.9135 
       0.920448         102.743         37.3502         37.3502 
       0.926574         101.999         36.8005         36.8005 
       0.932687         101.474         36.2632         36.2632 
       0.938823         99.9929         35.7348         35.7348 
       0.944975          99.487         35.2158         35.2158 
       0.951105         98.6775         34.7091         34.7091 
       0.957225         97.4588         34.2134         34.2134 
       0.963368         97.1377         33.7259         33.7259 
       0.969511         96.6217         33.2479         33.2479 
       0.975621         96.0885         32.7819         32.7819 
       0.981748         95.1873         32.3237         32.3237 
       0.987916         94.3391         31.8714         31.8714 
        0.99406         93.8483         31.4297         31.4297 
        1.00019         92.8154         30.9972         30.9972 
        1.00632         92.4723         30.5734         30.5734 
        1.01246         91.5859         30.1569         30.1569 
        1.01859         90.4273          29.749          29.749 
        1.02471         90.7944         29.3492         29.3492 
        1.03085         89.7551         28.9555         28.9555 
        1.03698         88.9956         28.5699         28.5699 
        1.04314         88.1523         28.1897         28.1897 
        1.04929         87.7615         27.8175         27.8175 
        1.05541         87.0384         27.4535         27.4535 
        1.06154          86.675         27.0952         27.0952 
        1.06769         86.0454         26.7429         26.7429 
        1.07382         85.7246          26.398          26.398 
        1.07993         85.1882         26.0601         26.0601 
        1.08607         84.3838         25.7267         25.7267 
        1.09222         83.9549         25.3989         25.3989 
        1.09836         83.3355         25.0772         25.0772 
        1.10449         82.7872         24.7616         24.7616 
        1.11063         82.1664          24.451          24.451 
        1.11677         81.6766          24.146          24.146 
         1.1229         81.0934         23.8468         23.8468 
        1.12903          80.119         23.5524         23.5524 
        1.13518         80.3544         23.2628         23.2628 
        1.14131         79.8007         22.9783         22.9783 
        1.14745         78.7758         22.6987         22.6987 
        1.15359         78.5783         22.4238         22.4238 
        1.15973         78.0502         22.1534         22.1534 
        1.16584         77.4921         21.8887         21.8887 
        1.17197         77.0299          21.628          21.628 
        1.17811         76.6059         21.3708         21.3708 
        1.18424         75.9001         21.1185         21.1185 
        1.19038          75.571         20.8697         20.8697 
        1.19652         75.2699          20.625          20.625 
        1.20267         74.6398         20.3842         20.3842 
        1.20881         74.2091         20.1474         20.1474 
        1.21495         73.6157         19.9147         19.9147 
        1.22108         73.1855         19.6858         19.6858 
         1.2272          72.626         19.4611         19.4611 
        1.23334         72.3134         19.2394         19.2394 
        1.23949         72.0277         19.0207         19.0207 
        1.24562         71.6104          18.806          18.806 
        1.25174         71.2095          18.595          18.595 
        1.25789            70.8         18.3866         18.3866 
        1.26402         70.3105         18.1818         18.1818 
        1.27014         69.6089         17.9806         17.9806 
        1.27628         69.4918         17.7819         17.7819 
        1.28244         68.8313         17.5859         17.5859 
        1.28858         68.5696         17.3931         17.3931 
        1.29471         68.3561         17.2036         17.2036 
        1.30084          67.831         17.0172         17.0172 
        1.30697         67.3309         16.8333         16.8333 
        1.31312         66.9512         16.6518         16.6518 
        1.31925         66.7925         16.4736         16.4736 
        1.32537         66.3703         16.2982         16.2982 
        1.33151         65.7998         16.1248         16.1248 
        1.33765         65.5746          15.954          15.954 
        1.34378          65.165          15.786          15.786 
        1.34992         64.6643         15.6204         15.6204 
        1.35606         64.3342         15.4568         15.4568 
         1.3622         63.8536         15.2959         15.2959 
        1.36833            63.7         15.1376         15.1376 
        1.37445         63.3652         14.9817         14.9817 
        1.38059         62.9349         14.8275         14.8275 
        1.38675          62.596         14.6752         14.6752 
        1.39288         62.1882         14.5256         14.5256 
        1.39901         61.9516         14.3782         14.3782 
        1.40515         61.6378         14.2325         14.2325 
         1.4113          61.318         14.0889         14.0889 
        1.41742         60.9581         13.9479         13.9479 
        1.42355         60.5771         13.8085         13.8085 
         1.4297         60.2164         13.6707         13.6707 
        1.43585         59.9399         13.5348         13.5348 
        1.44198         59.6529         13.4012         13.4012 
        1.44809         59.3104         13.2698         13.2698 
        1.45423         59.1133         13.1396         13.1396 
        1.46036         58.7089         13.0114         13.0114 
        1.46649         58.3682          12.885          12.885 
        1.47263          58.049         12.7601         12.7601 
        1.47877         57.8843         12.6369         12.6369 
        1.48491         57.5768         12.5152         12.5152 
        1.49104         57.1498         12.3953         12.3953 
        1.49718         56.7468          12.277          12.277 
        1.50333          56.559           12.16           12.16 
        1.50947         56.2259         12.0448         12.0448 
         1.5156         55.9393         11.9312         11.9312 
        1.52172         55.6703         11.8192         11.8192 
        1.52787         55.5353         11.7084         11.7084 
          1.534         55.1686         11.5991         11.5991 
        1.54013         54.8522         11.4913         11.4913 
        1.54627         54.6649         11.3848         11.3848 
        1.55241         54.2809         11.2796         11.2796 
        1.55855         53.9067         11.1758         11.1758 
        1.56467         53.5162         11.0737         11.0737 
         1.5708         53.5094         10.9726         10.9726 
        1.57695         53.1779         10.8726         10.8726 
        1.58308         52.9713          10.774          10.774 
        1.58922         52.8234         10.6767         10.6767 
        1.59535         52.4941         10.5805         10.5805 
         1.6015         52.0826         10.4855         10.4855 
        1.60764         51.9536         10.3916         10.3916 
        1.61376         51.6814         10.2992         10.2992 
        1.61989         51.2139         10.2078         10.2078 
        1.62604         51.1361         10.1174         10.1174 
        1.63218         50.9249         10.0281         10.0281 
        1.63831         50.6246         9.94007         9.94007 
        1.64444         50.4124         9.85309         9.85309 
        1.65059         49.9556         9.76696         9.76696 
        1.65673         49.7951         9.68196         9.68196 
        1.66285         49.5946         9.59822         9.59822 
        1.66898          49.297         9.51545         9.51545 
        1.67512         49.0334          9.4335          9.4335 
        1.68127         48.7356         9.35245         9.35245 
         1.6874         48.6457         9.27253         9.27253 
        1.69353         48.2937         9.19361         9.19361 
        1.69967         48.1189         9.11542         9.11542 
        1.70581         47.9997         9.03818         9.03818 
        1.71193         47.6513         8.96214         8.96214 
        1.71806         47.3162         8.88681         8.88681 
        1.72421         47.1447         8.81221         8.81221 
        1.73035         46.8783         8.73855         8.73855 
        1.73649         46.5991         8.66575         8.66575 
        1.74262         46.4756         8.59385         8.59385 
        1.74876         46.3893         8.52272         8.52272 
        1.75489         45.9725         8.45255         8.45255 
        1.76101         45.8286          8.3832          8.3832 
        1.76715         45.5427         8.31453         8.31453 
        1.77329          45.291         8.24656         8.24656 
        1.77943         45.1859         8.17932         8.17932 
        1.78557         44.9709         8.11294         8.11294 
        1.79171         44.6591         8.04728         8.04728 
        1.79785         44.4562         7.98235         7.98235 
        1.80399         44.2713         7.91815         7.91815 
        1.81012          44.124         7.85475         7.85475 
        1.81625         43.7379         7.79207         7.79207 
        1.82239         43.6239         7.72999         7.72999 
        1.82853         43.2831         7.66863         7.66863 
        1.83466         43.1989         7.60799         7.60799 
        1.84078         42.8551         7.54807         7.54807 
        1.84692         42.7006         7.48871         7.48871 
        1.85306         42.4921         7.42992         7.42992 
         1.8592         42.2915         7.37186         7.37186 
        1.86533         42.0511         7.31445         7.31445 
        1.87147         41.9192          7.2576          7.2576 
        1.87761         41.7783         7.20132         7.20132 
