# k  (h/Mpc)    P(k)  (Mpc/h)^3    P_linear(k)  (Mpc/h)^3     P_NL(k)  ShotnoiseSubtracted = false
     0.00783031         8631.57         8744.17         8744.17 
       0.013688         11120.9         11054.6         11054.6 
       0.019231         11407.1           11394           11394 
      0.0249154         10557.1           10731           10731 
      0.0312784         9428.93          9507.1          9507.1 
      0.0375637         8292.13         8295.46         8295.46 
      0.0433917         7271.61          7379.8          7379.8 
      0.0492413            6651         6697.31         6697.31 
      0.0555754         6008.53         6162.36         6162.36 
      0.0619321          5731.4         5731.47         5731.47 
       0.067871         5218.47         5338.73         5338.73 
      0.0738098         4799.84         4912.75         4912.75 
      0.0800417         4293.46         4432.61         4432.61 
      0.0862327          3878.7         3958.75         3958.75 
      0.0921407         3528.43         3551.25         3551.25 
      0.0982031         3172.04         3207.71         3207.71 
       0.104506         2978.92         2938.55         2938.55 
       0.110769         2775.12         2745.69         2745.69 
       0.116806         2612.23         2603.91         2603.91 
       0.122832         2497.48          2477.7          2477.7 
       0.129052         2321.14         2341.33         2341.33 
       0.135211         2184.03         2190.61         2190.61 
       0.141259         2065.49         2031.05         2031.05 
       0.147318         1930.33         1871.49         1871.49 
       0.153489         1768.98         1722.83         1722.83 
       0.159709         1669.99          1596.9          1596.9 
       0.165845         1604.07         1498.86         1498.86 
       0.171974         1515.11         1423.19         1423.19 
       0.178125         1448.28         1361.72         1361.72 
       0.184229         1394.06         1306.35         1306.35 
        0.19034         1306.38         1249.64         1249.64 
       0.196428         1277.67         1188.63         1188.63 
       0.202534         1229.37         1123.49         1123.49 
       0.208729         1164.48         1056.76         1056.76 
       0.214876         1103.13         994.171         994.171 
       0.220989          1067.8         938.829         938.829 
       0.227147         1014.01         891.515         891.515 
        0.23329         975.981         852.164         852.164 
       0.239377         957.473         818.866         818.866 
       0.245482         896.915         788.559         788.559 
       0.251667         888.751         758.667         758.667 
       0.257832         856.011          728.23          728.23 
       0.263955         826.574         697.143         697.143 
       0.270079         797.151          665.89          665.89 
        0.27624         786.395         635.451         635.451 
       0.282372         753.046         607.282         607.282 
        0.28843         737.122         582.156         582.156 
       0.294538         702.049         559.644         559.644 
       0.300721         698.952         539.287         539.287 
        0.30691         667.574         520.613         520.613 
       0.313033         654.495         503.046         503.046 
       0.319153         636.089         485.842         485.842 
       0.325316         617.219         468.615         468.615 
        0.33145         599.995         451.634         451.634 
       0.337538         592.021         435.194         435.194 
       0.343633          573.65         419.476         419.476 
       0.349808         555.056          404.54          404.54 
       0.355968         550.521         390.755         390.755 
       0.362074         540.292         378.105         378.105 
       0.368217         525.612         366.237         366.237 
       0.374374         504.633         354.969         354.969 
       0.380519         500.925         344.135         344.135 
       0.386598         488.889         333.708         333.708 
       0.392688         485.807         323.496         323.496 
        0.39888         472.016          313.39          313.39 
       0.405048         462.542         303.683         303.683 
       0.411186         454.068         294.441         294.441 
       0.417313         446.021         285.682         285.682 
       0.423458         437.981         277.376         277.376 
       0.429607         429.285         269.492         269.492 
       0.435692         419.126         262.059         262.059 
       0.441815         416.155         254.882         254.882 
       0.447964          407.72         247.919         247.919 
       0.454126         395.471         241.152         241.152 
       0.460267         390.399         234.616         234.616 
       0.466387         386.126         228.311         228.311 
        0.47254         377.787         222.193         222.193 
       0.478662         376.724          216.34          216.34 
       0.484765         365.442         210.749         210.749 
       0.490885          361.35         205.371         205.371 
       0.497035         355.361         200.179         200.179 
       0.503198         348.599         195.173         195.173 
       0.509342         345.781         190.358         190.358 
       0.515458             342         185.722         185.722 
       0.521598         335.467         181.209         181.209 
       0.527764         329.492         176.816         176.816 
       0.533884         326.764         172.596         172.596 
           0.54         322.327          168.52          168.52 
       0.546137         320.803         164.567         164.567 
       0.552299         314.324         160.734         160.734 
       0.558452         311.711         157.036         157.036 
       0.564573         306.808          153.48          153.48 
       0.570708         301.441         150.031         150.031 
       0.576825         296.919         146.702         146.702 
       0.582926         294.251         143.481         143.481 
       0.589034         290.955         140.351         140.351 
       0.595184          288.06         137.291         137.291 
       0.601379         285.208         134.302         134.302 
       0.607522         280.085         131.427         131.427 
       0.613639         278.635         128.651         128.651 
       0.619772         272.102         125.952         125.952 
       0.625918         270.826         123.328         123.328 
       0.632068         267.041         120.779         120.779 
       0.638161         265.872         118.326         118.326 
         0.6443         261.343         115.924         115.924 
       0.650464         258.966         113.581         113.581 
       0.656582         257.471          111.32          111.32 
       0.662703          255.03          109.12          109.12 
       0.668861         250.739         106.968         106.968 
       0.675024          247.95         104.874         104.874 
       0.681124         246.994         102.858         102.858 
       0.687237         243.569         100.891         100.891 
       0.693381         240.085         98.9682         98.9682 
       0.699536         238.452         97.0926         97.0926 
       0.705665         237.071         95.2745         95.2745 
       0.711789         233.717         93.5052         93.5052 
       0.717957         232.365         91.7694         91.7694 
        0.72409         229.735         90.0879         90.0879 
       0.730186         226.849         88.4594         88.4594 
       0.736317          224.94         86.8628         86.8628 
       0.742472         223.781         85.3004         85.3004 
       0.748622         221.887         83.7784         83.7784 
        0.75476         219.968         82.2973         82.2973 
       0.760888         217.001         80.8548         80.8548 
       0.767043         216.515         79.4417         79.4417 
       0.773185         214.054         78.0658         78.0658 
       0.779291          210.32         76.7307         76.7307 
       0.785407         209.726         75.4254         75.4254 
       0.791564         207.727         74.1426         74.1426 
       0.797719         205.325         72.8907         72.8907 
       0.803834         204.289          71.676          71.676 
       0.809972         202.264          70.485          70.485 
       0.816124         202.326         69.3188         69.3188 
       0.822261         199.292         68.1825         68.1825 
       0.828378         197.641         67.0754         67.0754 
       0.834502         197.537         65.9922         65.9922 
       0.840667         194.255         64.9263         64.9263 
       0.846816         192.983         63.8873         63.8873 
       0.852925         191.935         62.8778         62.8778 
       0.859047         189.979         61.8883         61.8883 
       0.865192         188.566         60.9171         60.9171 
       0.871341          186.73         59.9663         59.9663 
       0.877463         185.474         59.0404         59.0404 
       0.883569         184.266         58.1367         58.1367 
       0.889708         182.727         57.2475         57.2475 
       0.895864          180.65         56.3749         56.3749 
       0.902008         179.979         55.5225         55.5225 
       0.908149         179.064         54.6885         54.6885 
       0.914301         176.971         53.8705         53.8705 
       0.920448         175.666         53.0701         53.0701 
       0.926574         174.817         52.2891         52.2891 
       0.932687         174.121         51.5256         51.5256 
       0.938823         171.986         50.7748         50.7748 
       0.944975         170.557         50.0374         50.0374 
       0.951105         169.788         49.3175         49.3175 
       0.957225         167.841         48.6132         48.6132 
       0.963368         166.265         47.9204         47.9204 
       0.969511         165.756         47.2412         47.2412 
       0.975621         164.707         46.5791         46.5791 
       0.981748         164.198          45.928          45.928 
       0.987916         162.096         45.2855         45.2855 
        0.99406          161.18         44.6578         44.6578 
        1.00019         160.626         44.0433         44.0433 
        1.00632         159.174         43.4411         43.4411 
        1.01246         158.179         42.8494         42.8494 
        1.01859         156.854         42.2698         42.2698 
        1.02471         156.074         41.7017         41.7017 
        1.03085          154.42         41.1422         41.1422 
        1.03698         153.477         40.5943         40.5943 
        1.04314         152.357         40.0542         40.0542 
        1.04929         151.311         39.5253         39.5253 
        1.05541         150.603         39.0081         39.0081 
        1.06154         149.546         38.4991         38.4991 
        1.06769         149.357         37.9984         37.9984 
        1.07382         148.191         37.5084         37.5084 
        1.07993         146.913         37.0282         37.0282 
        1.08607         145.921         36.5545         36.5545 
        1.09222         145.225         36.0888         36.0888 
        1.09836         143.927         35.6317         35.6317 
        1.10449          142.85         35.1832         35.1832 
        1.11063         141.926          34.742          34.742 
        1.11677          141.53         34.3086         34.3086 
         1.1229         139.979         33.8834         33.8834 
        1.12903         139.204         33.4651         33.4651 
        1.13518         139.096         33.0536         33.0536 
        1.14131         137.628         32.6494         32.6494 
        1.14745         136.965         32.2521         32.2521 
        1.15359         135.991         31.8615         31.8615 
        1.15973         135.617         31.4773         31.4773 
        1.16584         134.215         31.1012         31.1012 
        1.17197          133.62         30.7308         30.7308 
        1.17811         132.799         30.3653         30.3653 
        1.18424         132.048         30.0069         30.0069 
        1.19038         131.449         29.6533         29.6533 
        1.19652         130.567         29.3056         29.3056 
        1.20267         129.721         28.9635         28.9635 
        1.20881         128.737          28.627          28.627 
        1.21495         128.065         28.2964         28.2964 
        1.22108         127.428         27.9712         27.9712 
         1.2272          126.38         27.6519         27.6519 
        1.23334         125.768         27.3369         27.3369 
        1.23949         124.451         27.0261         27.0261 
        1.24562         124.187          26.721          26.721 
        1.25174         122.943         26.4212         26.4212 
        1.25789         122.525         26.1251         26.1251 
        1.26402         121.991         25.8341         25.8341 
        1.27014         121.036         25.5483         25.5483 
        1.27628         120.467          25.266          25.266 
        1.28244         119.739         24.9874         24.9874 
        1.28858         119.293         24.7135         24.7135 
        1.29471          118.08         24.4443         24.4443 
        1.30084         117.533         24.1794         24.1794 
        1.30697         116.878          23.918          23.918 
        1.31312         116.537         23.6602         23.6602 
        1.31925         115.468          23.407          23.407 
        1.32537         115.033         23.1578         23.1578 
        1.33151         113.893         22.9114         22.9114 
        1.33765         113.474         22.6687         22.6687 
        1.34378         112.695           22.43           22.43 
        1.34992         112.564         22.1947         22.1947 
        1.35606         111.694         21.9622         21.9622 
         1.3622         110.792         21.7336         21.7336 
        1.36833         110.345         21.5087         21.5087 
        1.37445         109.557         21.2872         21.2872 
        1.38059         109.174         21.0681         21.0681 
        1.38675         108.296         20.8517         20.8517 
        1.39288         107.812         20.6391         20.6391 
        1.39901         107.427         20.4297         20.4297 
        1.40515         106.711         20.2227         20.2227 
         1.4113         105.692         20.0187         20.0187 
        1.41742         105.594         19.8183         19.8183 
        1.42355         104.738         19.6203         19.6203 
         1.4297         104.139         19.4244         19.4244 
        1.43585         103.312         19.2313         19.2313 
        1.44198         103.092         19.0415         19.0415 
        1.44809         102.326         18.8548         18.8548 
        1.45423         101.613         18.6698         18.6698 
        1.46036         101.417         18.4877         18.4877 
        1.46649         100.786          18.308          18.308 
        1.47263         100.235         18.1305         18.1305 
        1.47877         99.8373         17.9555         17.9555 
        1.48491         98.9459         17.7825         17.7825 
        1.49104         98.5573         17.6123         17.6123 
        1.49718         97.8694         17.4441         17.4441 
        1.50333         97.3602         17.2779         17.2779 
        1.50947         96.7669         17.1142         17.1142 
         1.5156          96.416         16.9529         16.9529 
        1.52172         95.6493         16.7936         16.7936 
        1.52787          95.451         16.6362         16.6362 
          1.534         94.8384         16.4809         16.4809 
        1.54013         94.1197         16.3278         16.3278 
        1.54627         93.6742         16.1764         16.1764 
        1.55241          93.158         16.0269         16.0269 
        1.55855         92.8207         15.8795         15.8795 
        1.56467         92.1593         15.7344         15.7344 
         1.5708         91.6636         15.5907         15.5907 
        1.57695         91.4266         15.4486         15.4486 
        1.58308         90.4459         15.3086         15.3086 
        1.58922          90.343         15.1702         15.1702 
        1.59535         89.8991         15.0337         15.0337 
         1.6015         89.2834         14.8986         14.8986 
        1.60764         88.7968         14.7652         14.7652 
        1.61376         88.4107         14.6339         14.6339 
        1.61989         87.8286         14.5041         14.5041 
        1.62604         87.4137         14.3756         14.3756 
        1.63218          87.071         14.2487         14.2487 
        1.63831         86.3654         14.1236         14.1236 
        1.64444         85.9968         14.0001         14.0001 
        1.65059         85.4103         13.8777         13.8777 
        1.65673         84.8717         13.7569         13.7569 
        1.66285         84.6322         13.6379         13.6379 
        1.66898         84.0469         13.5203         13.5203 
        1.67512         83.5501         13.4039         13.4039 
        1.68127         83.1106         13.2887         13.2887 
         1.6874         82.6851         13.1752         13.1752 
        1.69353         82.2665          13.063          13.063 
        1.69967         81.7688         12.9519         12.9519 
        1.70581         81.4767         12.8422         12.8422 
        1.71193         81.1962         12.7341         12.7341 
        1.71806         80.4073         12.6271         12.6271 
        1.72421         80.1724         12.5211         12.5211 
        1.73035          79.688         12.4164         12.4164 
        1.73649         79.2509          12.313          12.313 
        1.74262         78.8815         12.2108         12.2108 
        1.74876         78.5319         12.1098         12.1098 
        1.75489         77.9164         12.0101         12.0101 
        1.76101         77.6885         11.9115         11.9115 
        1.76715         77.1765         11.8139         11.8139 
        1.77329         76.8361         11.7174         11.7174 
        1.77943         76.3218         11.6218         11.6218 
        1.78557         76.0642         11.5275         11.5275 
        1.79171         75.6103         11.4342         11.4342 
        1.79785         75.2545          11.342          11.342 
        1.80399         74.8497         11.2507         11.2507 
        1.81012         74.5707         11.1606         11.1606 
        1.81625         73.9356         11.0716         11.0716 
        1.82239         73.6462         10.9834         10.9834 
        1.82853         73.3264         10.8962         10.8962 
        1.83466         72.8897           10.81           10.81 
        1.84078         72.5489         10.7249         10.7249 
        1.84692         72.0034         10.6406         10.6406 
        1.85306         71.7031          10.557          10.557 
         1.8592         71.1551         10.4745         10.4745 
        1.86533         70.9169          10.393          10.393 
        1.87147         70.4139         10.3122         10.3122 
        1.87761         70.1389         10.2322         10.2322 
