# k  (h/Mpc)    P(k)  (Mpc/h)^3    P_linear(k)  (Mpc/h)^3     P_NL(k)  ShotnoiseSubtracted = false
     0.00783031         419.803         423.689         423.689 
       0.013688         534.585         536.089         536.089 
       0.019231         552.424         552.734         552.734 
      0.0249154         518.487         520.663         520.663 
      0.0312784         461.097         461.336         461.336 
      0.0375637         403.362          402.57          402.57 
      0.0433917         357.954          358.15          358.15 
      0.0492413         325.336         325.039         325.039 
      0.0555754         298.344         299.084         299.084 
      0.0619321         278.917         278.176         278.176 
       0.067871         258.576         259.118         259.118 
      0.0738098         237.794         238.446         238.446 
      0.0800417         214.241         215.143         215.143 
      0.0862327         191.798         192.145         192.145 
      0.0921407         172.355         172.368         172.368 
      0.0982031         155.423         155.694         155.694 
       0.104506         143.069         142.631         142.631 
       0.110769         133.537          133.27          133.27 
       0.116806         126.109         126.388         126.388 
       0.122832         120.334         120.263         120.263 
       0.129052         113.304         113.644         113.644 
       0.135211         105.946         106.328         106.328 
       0.141259         98.5726         98.5839         98.5839 
       0.147318         91.1316         90.8394         90.8394 
       0.153489         83.7301         83.6236         83.6236 
       0.159709         77.6744         77.5112         77.5112 
       0.165845         73.3201         72.7528         72.7528 
       0.171974         69.1907         69.0796         69.0796 
       0.178125         66.2578         66.0964         66.0964 
       0.184229           63.69         63.4085         63.4085 
        0.19034         60.5301          60.656          60.656 
       0.196428         57.8382         57.6946         57.6946 
       0.202534         55.0127         54.5329         54.5329 
       0.208729         51.5937         51.2941         51.2941 
       0.214876         48.3729          48.256          48.256 
       0.220989         46.0749         45.5699         45.5699 
       0.227147          43.428         43.2733         43.2733 
        0.23329         41.5338         41.3632         41.3632 
       0.239377           39.98          39.747          39.747 
       0.245482          38.357         38.2759         38.2759 
       0.251667         37.1235          36.825          36.825 
       0.257832         35.5904         35.3476         35.3476 
       0.263955         34.1045         33.8387         33.8387 
       0.270079         32.6337         32.3217         32.3217 
        0.27624         31.3283         30.8443         30.8443 
       0.282372         29.9524          29.477          29.477 
        0.28843         28.6197         28.2574         28.2574 
       0.294538          27.526         27.1647         27.1647 
       0.300721         26.6668         26.1766         26.1766 
        0.30691         25.6206         25.2701         25.2701 
       0.313033         24.7779         24.4175         24.4175 
       0.319153         23.7278         23.5824         23.5824 
       0.325316         23.1875         22.7462         22.7462 
        0.33145         22.3053          21.922          21.922 
       0.337538         21.5216          21.124          21.124 
       0.343633         20.7112         20.3611         20.3611 
       0.349808         20.0396         19.6361         19.6361 
       0.355968         19.3861         18.9669         18.9669 
       0.362074         18.7458          18.353          18.353 
       0.368217         18.1724         17.7769         17.7769 
       0.374374         17.5531           17.23           17.23 
       0.380519          17.095         16.7041         16.7041 
       0.386598         16.6065          16.198          16.198 
       0.392688         16.1608         15.7023         15.7023 
        0.39888         15.6339         15.2118         15.2118 
       0.405048          15.188         14.7405         14.7405 
       0.411186         14.7608          14.292          14.292 
       0.417313         14.2699         13.8668         13.8668 
       0.423458          13.898         13.4637         13.4637 
       0.429607          13.475          13.081          13.081 
       0.435692         13.1045         12.7202         12.7202 
       0.441815         12.7732         12.3718         12.3718 
       0.447964          12.502         12.0338         12.0338 
       0.454126         12.0829         11.7054         11.7054 
       0.460267         11.7778         11.3881         11.3881 
       0.466387         11.4292         11.0821         11.0821 
        0.47254         11.1746         10.7851         10.7851 
       0.478662         10.9153          10.501          10.501 
       0.484765         10.6068         10.2296         10.2296 
       0.490885         10.3462         9.96859         9.96859 
       0.497035         10.1646         9.71658         9.71658 
       0.503198         9.88775         9.47359         9.47359 
       0.509342         9.66024         9.23987         9.23987 
       0.515458         9.40479         9.01483         9.01483 
       0.521598          9.1997         8.79577         8.79577 
       0.527764         8.96153         8.58255         8.58255 
       0.533884         8.79567         8.37771         8.37771 
           0.54         8.58501         8.17984         8.17984 
       0.546137         8.40592           7.988           7.988 
       0.552299          8.2197         7.80191         7.80191 
       0.558452          7.9887         7.62242         7.62242 
       0.564573         7.85248         7.44981         7.44981 
       0.570708         7.68506         7.28243         7.28243 
       0.576825         7.49164         7.12081         7.12081 
       0.582926         7.35932         6.96449         6.96449 
       0.589034         7.14489         6.81255         6.81255 
       0.595184         7.01902         6.66404         6.66404 
       0.601379         6.86642         6.51893         6.51893 
       0.607522         6.75343         6.37938         6.37938 
       0.613639         6.64497         6.24465         6.24465 
       0.619772         6.46777         6.11364         6.11364 
       0.625918         6.36864         5.98626         5.98626 
       0.632068         6.26153         5.86254         5.86254 
       0.638161         6.10908         5.74348         5.74348 
         0.6443         5.98499         5.62689         5.62689 
       0.650464         5.85078         5.51314         5.51314 
       0.656582         5.77526         5.40338         5.40338 
       0.662703         5.66468         5.29662         5.29662 
       0.668861         5.56889         5.19217         5.19217 
       0.675024         5.44554         5.09051         5.09051 
       0.681124         5.33862         4.99265         4.99265 
       0.687237         5.25743         4.89721         4.89721 
       0.693381         5.16587         4.80386         4.80386 
       0.699536         5.03009         4.71282         4.71282 
       0.705665         4.95286         4.62457         4.62457 
       0.711789         4.87471         4.53869         4.53869 
       0.717957         4.77909         4.45443         4.45443 
        0.72409         4.69572         4.37281         4.37281 
       0.730186         4.62003         4.29377         4.29377 
       0.736317         4.56555         4.21627         4.21627 
       0.742472         4.48497         4.14043         4.14043 
       0.748622         4.39854         4.06655         4.06655 
        0.75476         4.30047         3.99466         3.99466 
       0.760888         4.23943         3.92465         3.92465 
       0.767043         4.18976         3.85606         3.85606 
       0.773185         4.09946         3.78927         3.78927 
       0.779291         4.04596         3.72447         3.72447 
       0.785407         3.97772         3.66111         3.66111 
       0.791564         3.91431         3.59884         3.59884 
       0.797719         3.85669         3.53807         3.53807 
       0.803834         3.80279         3.47911         3.47911 
       0.809972         3.74457          3.4213          3.4213 
       0.816124         3.67056          3.3647          3.3647 
       0.822261         3.60572         3.30954         3.30954 
       0.828378         3.56233          3.2558          3.2558 
       0.834502         3.51949         3.20323         3.20323 
       0.840667         3.44519         3.15149         3.15149 
       0.846816          3.3923         3.10105         3.10105 
       0.852925         3.35793         3.05205         3.05205 
       0.859047         3.30604         3.00402         3.00402 
       0.865192         3.25808         2.95688         2.95688 
       0.871341         3.21188         2.91073         2.91073 
       0.877463         3.17142         2.86579         2.86579 
       0.883569         3.11141         2.82192         2.82192 
       0.889708         3.06306         2.77876         2.77876 
       0.895864          3.0239         2.73641         2.73641 
       0.902008         2.97621         2.69503         2.69503 
       0.908149         2.93813         2.65455         2.65455 
       0.914301         2.88249         2.61484         2.61484 
       0.920448         2.84574           2.576           2.576 
       0.926574         2.80339         2.53808         2.53808 
       0.932687          2.7703         2.50102         2.50102 
       0.938823         2.73975         2.46458         2.46458 
       0.944975         2.69934         2.42879         2.42879 
       0.951105         2.66532         2.39385         2.39385 
       0.957225         2.64259         2.35966         2.35966 
       0.963368         2.60031         2.32603         2.32603 
       0.969511         2.56002         2.29306         2.29306 
       0.975621         2.52004         2.26092         2.26092 
       0.981748         2.49752         2.22932         2.22932 
       0.987916         2.46139         2.19813         2.19813 
        0.99406         2.42168         2.16766         2.16766 
        1.00019          2.3971         2.13784         2.13784 
        1.00632         2.36168         2.10861         2.10861 
        1.01246          2.3339         2.07989         2.07989 
        1.01859         2.30672         2.05175         2.05175 
        1.02471         2.27426         2.02418         2.02418 
        1.03085         2.24972         1.99702         1.99702 
        1.03698         2.21677         1.97043         1.97043 
        1.04314         2.19267         1.94421         1.94421 
        1.04929         2.16225         1.91854         1.91854 
        1.05541         2.13863         1.89343         1.89343 
        1.06154         2.11067         1.86872         1.86872 
        1.06769         2.08686         1.84442         1.84442 
        1.07382         2.06093         1.82064         1.82064 
        1.07993         2.02894         1.79733         1.79733 
        1.08607         2.01583         1.77434         1.77434 
        1.09222         1.98662         1.75173         1.75173 
        1.09836         1.97115         1.72954         1.72954 
        1.10449         1.94631         1.70777         1.70777 
        1.11063         1.91663         1.68636         1.68636 
        1.11677         1.89356         1.66532         1.66532 
         1.1229         1.87212         1.64468         1.64468 
        1.12903         1.84868         1.62438         1.62438 
        1.13518         1.83388         1.60441         1.60441 
        1.14131         1.80545         1.58478         1.58478 
        1.14745         1.77537          1.5655          1.5655 
        1.15359         1.76614         1.54654         1.54654 
        1.15973         1.73718         1.52789         1.52789 
        1.16584          1.7311         1.50964         1.50964 
        1.17197          1.7067         1.49166         1.49166 
        1.17811         1.68874         1.47392         1.47392 
        1.18424         1.67598         1.45652         1.45652 
        1.19038         1.65161         1.43936         1.43936 
        1.19652         1.63218         1.42248         1.42248 
        1.20267          1.6194         1.40587         1.40587 
        1.20881         1.59543         1.38954         1.38954 
        1.21495         1.58394         1.37349         1.37349 
        1.22108         1.56679         1.35771         1.35771 
         1.2272         1.55335         1.34221         1.34221 
        1.23334         1.53184         1.32692         1.32692 
        1.23949          1.5146         1.31183         1.31183 
        1.24562         1.50263         1.29703         1.29703 
        1.25174          1.4847         1.28247         1.28247 
        1.25789         1.47079          1.2681          1.2681 
        1.26402         1.44981         1.25397         1.25397 
        1.27014         1.43561          1.2401          1.2401 
        1.27628         1.42802          1.2264          1.2264 
        1.28244         1.40568         1.21288         1.21288 
        1.28858         1.39418         1.19958         1.19958 
        1.29471         1.38102         1.18651         1.18651 
        1.30084         1.36456         1.17365         1.17365 
        1.30697         1.35256         1.16097         1.16097 
        1.31312         1.33176         1.14845         1.14845 
        1.31925         1.32456         1.13616         1.13616 
        1.32537         1.31218         1.12407         1.12407 
        1.33151         1.30114         1.11211         1.11211 
        1.33765         1.28534         1.10033         1.10033 
        1.34378         1.26991         1.08874         1.08874 
        1.34992         1.26299         1.07732         1.07732 
        1.35606         1.24601         1.06604         1.06604 
         1.3622         1.23683         1.05494         1.05494 
        1.36833         1.22402         1.04402         1.04402 
        1.37445         1.20898         1.03327         1.03327 
        1.38059         1.19861         1.02264         1.02264 
        1.38675         1.19514         1.01213         1.01213 
        1.39288         1.17716         1.00181         1.00181 
        1.39901         1.16617        0.991647        0.991647 
        1.40515         1.15631          0.9816          0.9816 
         1.4113         1.14413        0.971697        0.971697 
        1.41742          1.1337        0.961969        0.961969 
        1.42355         1.12873        0.952358        0.952358 
         1.4297         1.11204         0.94285         0.94285 
        1.43585         1.10411        0.933476        0.933476 
        1.44198           1.098        0.924267        0.924267 
        1.44809          1.0819        0.915201        0.915201 
        1.45423         1.07339        0.906223        0.906223 
        1.46036         1.06395        0.897384        0.897384 
        1.46649         1.05397         0.88866         0.88866 
        1.47263         1.04312        0.880046        0.880046 
        1.47877         1.03307        0.871551        0.871551 
        1.48491          1.0246        0.863156        0.863156 
        1.49104         1.01514        0.854891        0.854891 
        1.49718          1.0085        0.846728        0.846728 
        1.50333        0.997592         0.83866         0.83866 
        1.50947        0.990526        0.830714        0.830714 
         1.5156        0.980907        0.822884        0.822884 
        1.52172         0.97188        0.815155        0.815155 
        1.52787        0.962615        0.807511        0.807511 
          1.534        0.956731        0.799976        0.799976 
        1.54013        0.944515        0.792545        0.792545 
        1.54627         0.93673        0.785195        0.785195 
        1.55241        0.928974        0.777938        0.777938 
        1.55855        0.920734        0.770784        0.770784 
        1.56467        0.915249         0.76374         0.76374 
         1.5708        0.904201        0.756765        0.756765 
        1.57695        0.899789        0.749867        0.749867 
        1.58308        0.891238        0.743071        0.743071 
        1.58922        0.883816        0.736356        0.736356 
        1.59535        0.876206        0.729726        0.729726 
         1.6015           0.869         0.72317         0.72317 
        1.60764        0.862604        0.716698        0.716698 
        1.61376        0.853355        0.710323        0.710323 
        1.61989        0.847699        0.704021        0.704021 
        1.62604        0.840397        0.697783        0.697783 
        1.63218        0.835345        0.691624        0.691624 
        1.63831        0.826528        0.685555        0.685555 
        1.64444        0.819356        0.679556        0.679556 
        1.65059        0.813494        0.673616        0.673616 
        1.65673        0.806376        0.667754        0.667754 
        1.66285        0.799326        0.661978        0.661978 
        1.66898        0.795188        0.656269        0.656269 
        1.67512        0.785918        0.650617        0.650617 
        1.68127         0.78045        0.645027        0.645027 
         1.6874        0.776088        0.639516        0.639516 
        1.69353        0.768056        0.634072        0.634072 
        1.69967        0.762127         0.62868         0.62868 
        1.70581        0.756887        0.623353        0.623353 
        1.71193        0.750532        0.618108        0.618108 
        1.71806        0.745141        0.612913        0.612913 
        1.72421        0.739104        0.607767        0.607767 
        1.73035        0.732164        0.602687        0.602687 
        1.73649        0.728568        0.597667        0.597667 
        1.74262        0.722347        0.592708        0.592708 
        1.74876        0.715915        0.587802        0.587802 
        1.75489        0.710118        0.582963        0.582963 
        1.76101        0.704133        0.578179        0.578179 
        1.76715        0.699538        0.573444        0.573444 
        1.77329        0.694408        0.568755        0.568755 
        1.77943        0.688326        0.564118        0.564118 
        1.78557        0.683261         0.55954         0.55954 
        1.79171        0.678852        0.555012        0.555012 
        1.79785        0.673415        0.550533        0.550533 
        1.80399        0.668375        0.546105        0.546105 
        1.81012        0.664012        0.541733        0.541733 
        1.81625        0.657943         0.53741         0.53741 
        1.82239        0.654435        0.533129        0.533129 
        1.82853        0.646555        0.528896        0.528896 
        1.83466          0.6434        0.524714        0.524714 
        1.84078        0.638168        0.520582        0.520582 
        1.84692        0.634908        0.516488        0.516488 
        1.85306        0.629812        0.512433        0.512433 
         1.8592         0.62556        0.508429        0.508429 
        1.86533        0.620827        0.504469        0.504469 
        1.87147        0.616093        0.500548        0.500548 
        1.87761        0.612232        0.496667        0.496667 
