# k  (h/Mpc)    P(k)  (Mpc/h)^3    P_linear(k)  (Mpc/h)^3     P_NL(k)  ShotnoiseSubtracted = false
     0.00783031         1454.86         1469.54         1469.54 
       0.013688         1858.02         1858.84         1858.84 
       0.019231         1916.85         1916.34         1916.34 
      0.0249154         1793.35         1805.04         1805.04 
      0.0312784         1596.97         1599.31         1599.31 
      0.0375637         1398.86         1395.55         1395.55 
      0.0433917         1238.13         1241.55         1241.55 
      0.0492413         1127.06         1126.76         1126.76 
      0.0555754          1030.4         1036.78         1036.78 
      0.0619321         968.274         964.295         964.295 
       0.067871         894.008         898.227         898.227 
      0.0738098         821.992         826.563         826.563 
      0.0800417         739.396         745.785         745.785 
      0.0862327         663.268         666.062         666.062 
      0.0921407         597.314         597.503         597.503 
      0.0982031         537.897         539.704         539.704 
       0.104506         497.531         494.419         494.419 
       0.110769         464.174         461.971         461.971 
       0.116806         437.342         438.117         438.117 
       0.122832         418.169         416.882         416.882 
       0.129052         392.495         393.938         393.938 
       0.135211         367.254         368.579         368.579 
       0.141259         342.917         341.733         341.733 
       0.147318         317.852         314.887         314.887 
       0.153489         291.669         289.874         289.874 
       0.159709          271.39         268.686         268.686 
       0.165845         257.345         252.192         252.192 
       0.171974         242.241         239.459         239.459 
       0.178125         232.156         229.118         229.118 
       0.184229         223.448           219.8           219.8 
        0.19034         211.127         210.259         210.259 
       0.196428         203.005         199.993         199.993 
       0.202534         194.017         189.033         189.033 
       0.208729         181.975         177.806         177.806 
       0.214876         170.463         167.275         167.275 
       0.220989         163.403         157.964         157.964 
       0.227147          153.59         150.003         150.003 
        0.23329         147.151         143.382         143.382 
       0.239377         142.225         137.779         137.779 
       0.245482          135.52          132.68          132.68 
       0.251667          132.03          127.65          127.65 
       0.257832         126.894         122.529         122.529 
       0.263955         121.618         117.299         117.299 
       0.270079         116.662          112.04          112.04 
        0.27624         112.763         106.919         106.919 
       0.282372         107.957         102.179         102.179 
        0.28843         103.256         97.9516         97.9516 
       0.294538         99.3123         94.1637         94.1637 
       0.300721         96.8274         90.7387         90.7387 
        0.30691          92.788         87.5965         87.5965 
       0.313033         89.8991         84.6409         84.6409 
       0.319153         85.8015         81.7462         81.7462 
       0.325316         84.2995         78.8476         78.8476 
        0.33145         81.0468         75.9905         75.9905 
       0.337538         78.7166         73.2243         73.2243 
       0.343633         75.8501         70.5796         70.5796 
       0.349808         73.5311         68.0666         68.0666 
       0.355968         71.3603         65.7471         65.7471 
       0.362074         69.1031         63.6188         63.6188 
       0.368217          67.089         61.6219         61.6219 
       0.374374         65.0055          59.726          59.726 
       0.380519         63.3693          57.903          57.903 
       0.386598         61.6156         56.1487         56.1487 
       0.392688         60.2253         54.4304         54.4304 
        0.39888         58.3796         52.7301         52.7301 
       0.405048         56.9179         51.0967         51.0967 
       0.411186         55.5227         49.5417         49.5417 
       0.417313         53.6593          48.068          48.068 
       0.423458         52.3078         46.6705         46.6705 
       0.429607         50.8608         45.3439         45.3439 
       0.435692         49.3541         44.0932         44.0932 
       0.441815         48.4712         42.8857         42.8857 
       0.447964         47.6181         41.7142         41.7142 
       0.454126         45.7709         40.5755         40.5755 
       0.460267         44.8921         39.4758         39.4758 
       0.466387         43.5768          38.415          38.415 
        0.47254         42.8685         37.3855         37.3855 
       0.478662         42.0469         36.4008         36.4008 
       0.484765         40.8613         35.4599         35.4599 
       0.490885          39.915         34.5551         34.5551 
       0.497035         39.3385         33.6816         33.6816 
       0.503198         38.3223         32.8393         32.8393 
       0.509342         37.3601         32.0291         32.0291 
       0.515458         36.5394          31.249          31.249 
       0.521598         35.9056         30.4897         30.4897 
       0.527764          35.119         29.7506         29.7506 
       0.533884         34.4952         29.0405         29.0405 
           0.54           33.76         28.3546         28.3546 
       0.546137         33.1748         27.6896         27.6896 
       0.552299         32.6063         27.0446         27.0446 
       0.558452         31.5976         26.4224         26.4224 
       0.564573         31.1598          25.824          25.824 
       0.570708         30.6336         25.2438         25.2438 
       0.576825         29.8453         24.6836         24.6836 
       0.582926          29.318         24.1417         24.1417 
       0.589034         28.5118          23.615          23.615 
       0.595184         28.1311         23.1002         23.1002 
       0.601379         27.6004         22.5972         22.5972 
       0.607522         27.1154         22.1135         22.1135 
       0.613639         26.8243         21.6465         21.6465 
       0.619772          26.119         21.1923         21.1923 
       0.625918         25.9512         20.7508         20.7508 
       0.632068         25.5165         20.3219         20.3219 
       0.638161         24.9409         19.9092         19.9092 
         0.6443         24.4392         19.5051         19.5051 
       0.650464         23.9876         19.1108         19.1108 
       0.656582         23.8225         18.7303         18.7303 
       0.662703         23.3712         18.3602         18.3602 
       0.668861         22.9307         17.9982         17.9982 
       0.675024         22.5077         17.6458         17.6458 
       0.681124         22.1237         17.3065         17.3065 
       0.687237         21.7565         16.9757         16.9757 
       0.693381          21.525         16.6521         16.6521 
       0.699536         20.9639         16.3365         16.3365 
       0.705665           20.82         16.0306         16.0306 
       0.711789          20.407         15.7329         15.7329 
       0.717957         20.1112         15.4408         15.4408 
        0.72409         19.7914         15.1579         15.1579 
       0.730186         19.5311         14.8839         14.8839 
       0.736317          19.304         14.6153         14.6153 
       0.742472         18.9805         14.3524         14.3524 
       0.748622         18.7369         14.0963         14.0963 
        0.75476         18.3536         13.8471         13.8471 
       0.760888         18.1373         13.6044         13.6044 
       0.767043         17.9101         13.3666         13.3666 
       0.773185          17.561         13.1351         13.1351 
       0.779291         17.4413         12.9105         12.9105 
       0.785407         17.1974         12.6909         12.6909 
       0.791564         16.8882          12.475          12.475 
       0.797719         16.5696         12.2644         12.2644 
       0.803834         16.4967           12.06           12.06 
       0.809972         16.3393         11.8596         11.8596 
       0.816124         15.9446         11.6634         11.6634 
       0.822261         15.7861         11.4722         11.4722 
       0.828378         15.6036         11.2859         11.2859 
       0.834502         15.4427         11.1037         11.1037 
       0.840667         15.2072         10.9243         10.9243 
       0.846816         14.9371         10.7495         10.7495 
       0.852925          14.799         10.5796         10.5796 
       0.859047         14.6203         10.4131         10.4131 
       0.865192         14.4831         10.2497         10.2497 
       0.871341          14.338         10.0898         10.0898 
       0.877463         14.0911         9.93398         9.93398 
       0.883569         13.8792         9.78192         9.78192 
       0.889708         13.6579         9.63231         9.63231 
       0.895864         13.5711         9.48548         9.48548 
       0.902008         13.4436         9.34206         9.34206 
       0.908149         13.2852         9.20173         9.20173 
       0.914301         13.1394         9.06409         9.06409 
       0.920448         12.9026         8.92943         8.92943 
       0.926574         12.7757         8.79801         8.79801 
       0.932687         12.6484         8.66955         8.66955 
       0.938823         12.4741         8.54322         8.54322 
       0.944975           12.31         8.41916         8.41916 
       0.951105         12.2085         8.29803         8.29803 
       0.957225         12.1151         8.17952         8.17952 
       0.963368         11.9558         8.06295         8.06295 
       0.969511         11.8437         7.94868         7.94868 
       0.975621         11.7105         7.83726         7.83726 
       0.981748          11.573         7.72772         7.72772 
       0.987916         11.4701         7.61961         7.61961 
        0.99406         11.3012         7.51399         7.51399 
        1.00019         11.1246         7.41061         7.41061 
        1.00632         11.1063         7.30928         7.30928 
        1.01246         10.9777         7.20972         7.20972 
        1.01859         10.8099         7.11219         7.11219 
        1.02471         10.7373         7.01661         7.01661 
        1.03085         10.6298         6.92248         6.92248 
        1.03698         10.4654         6.83029         6.83029 
        1.04314         10.3985         6.73941         6.73941 
        1.04929         10.2581         6.65041         6.65041 
        1.05541         10.1426          6.5634          6.5634 
        1.06154         10.0605         6.47774         6.47774 
        1.06769         10.0113         6.39351         6.39351 
        1.07382         9.85622         6.31106         6.31106 
        1.07993         9.77162         6.23026         6.23026 
        1.08607          9.6872         6.15057         6.15057 
        1.09222         9.59361         6.07219         6.07219 
        1.09836         9.48184         5.99529         5.99529 
        1.10449         9.39872         5.91983         5.91983 
        1.11063          9.3076         5.84559         5.84559 
        1.11677         9.24343         5.77267         5.77267 
         1.1229         9.16415         5.70113         5.70113 
        1.12903         9.06191         5.63075         5.63075 
        1.13518           8.954         5.56151         5.56151 
        1.14131         8.86811         5.49349         5.49349 
        1.14745         8.78031         5.42666         5.42666 
        1.15359         8.72539         5.36094         5.36094 
        1.15973         8.64346         5.29629         5.29629 
        1.16584         8.51909         5.23301         5.23301 
        1.17197         8.46122         5.17068         5.17068 
        1.17811         8.41373         5.10918         5.10918 
        1.18424         8.33625         5.04888         5.04888 
        1.19038         8.28739         4.98938         4.98938 
        1.19652         8.19489         4.93088         4.93088 
        1.20267         8.09659         4.87332         4.87332 
        1.20881         8.06996          4.8167          4.8167 
        1.21495         7.99725         4.76108         4.76108 
        1.22108          7.8985         4.70636         4.70636 
         1.2272          7.8515         4.65263         4.65263 
        1.23334         7.75192         4.59963         4.59963 
        1.23949         7.69164         4.54734         4.54734 
        1.24562         7.65126         4.49601         4.49601 
        1.25174         7.57697         4.44556         4.44556 
        1.25789         7.52043         4.39573         4.39573 
        1.26402         7.47444         4.34677         4.34677 
        1.27014         7.40288         4.29868         4.29868 
        1.27628          7.3215         4.25118         4.25118 
        1.28244         7.24343         4.20431         4.20431 
        1.28858         7.23228         4.15822         4.15822 
        1.29471         7.15076         4.11293         4.11293 
        1.30084         7.07917         4.06836         4.06836 
        1.30697         7.07543         4.02438         4.02438 
        1.31312         6.94422           3.981           3.981 
        1.31925         6.91053          3.9384          3.9384 
        1.32537         6.85422         3.89647         3.89647 
        1.33151         6.83093         3.85501         3.85501 
        1.33765         6.74589         3.81417         3.81417 
        1.34378         6.69293         3.77402         3.77402 
        1.34992         6.65448         3.73442         3.73442 
        1.35606         6.59194         3.69531         3.69531 
         1.3622         6.55495         3.65683         3.65683 
        1.36833         6.49768           3.619           3.619 
        1.37445         6.45274         3.58173         3.58173 
        1.38059         6.42804         3.54487         3.54487 
        1.38675         6.36569         3.50845         3.50845 
        1.39288          6.3199         3.47269         3.47269 
        1.39901          6.2496         3.43744         3.43744 
        1.40515         6.22079         3.40262         3.40262 
         1.4113         6.17542         3.36829         3.36829 
        1.41742         6.12939         3.33457         3.33457 
        1.42355         6.07172         3.30125         3.30125 
         1.4297         6.02737         3.26829         3.26829 
        1.43585         6.00453          3.2358          3.2358 
        1.44198         5.97566         3.20388         3.20388 
        1.44809         5.90913         3.17245         3.17245 
        1.45423         5.86138         3.14133         3.14133 
        1.46036         5.82081         3.11069         3.11069 
        1.46649         5.77685         3.08045         3.08045 
        1.47263         5.72907         3.05059         3.05059 
        1.47877            5.69         3.02115         3.02115 
        1.48491         5.65598         2.99204         2.99204 
        1.49104         5.61863         2.96339         2.96339 
        1.49718         5.58057          2.9351          2.9351 
        1.50333         5.54639         2.90713         2.90713 
        1.50947         5.50036         2.87959         2.87959 
         1.5156         5.46757         2.85244         2.85244 
        1.52172         5.43577         2.82565         2.82565 
        1.52787         5.40095         2.79916         2.79916 
          1.534         5.35429         2.77304         2.77304 
        1.54013          5.3309         2.74728         2.74728 
        1.54627         5.27672          2.7218          2.7218 
        1.55241         5.24369         2.69665         2.69665 
        1.55855         5.22266         2.67185         2.67185 
        1.56467         5.18105         2.64743         2.64743 
         1.5708         5.15236         2.62325         2.62325 
        1.57695         5.10451         2.59934         2.59934 
        1.58308         5.06823         2.57578         2.57578 
        1.58922         5.05306          2.5525          2.5525 
        1.59535         5.02374         2.52952         2.52952 
         1.6015         4.98202          2.5068          2.5068 
        1.60764         4.94673         2.48436         2.48436 
        1.61376         4.91961         2.46226         2.46226 
        1.61989         4.89127         2.44042         2.44042 
        1.62604          4.8525         2.41879         2.41879 
        1.63218         4.83902         2.39745         2.39745 
        1.63831         4.80518         2.37641         2.37641 
        1.64444         4.77421         2.35561         2.35561 
        1.65059         4.72162         2.33502         2.33502 
        1.65673         4.71523          2.3147          2.3147 
        1.66285          4.6663         2.29468         2.29468 
        1.66898          4.6471         2.27489         2.27489 
        1.67512         4.61793          2.2553          2.2553 
        1.68127         4.58976         2.23592         2.23592 
         1.6874         4.57058         2.21682         2.21682 
        1.69353         4.53032         2.19795         2.19795 
        1.69967         4.50828         2.17926         2.17926 
        1.70581         4.48205         2.16079         2.16079 
        1.71193          4.4567         2.14261         2.14261 
        1.71806         4.43372          2.1246          2.1246 
        1.72421         4.40165         2.10676         2.10676 
        1.73035          4.3847         2.08916         2.08916 
        1.73649         4.35372         2.07175         2.07175 
        1.74262         4.31956         2.05456         2.05456 
        1.74876         4.30705         2.03756         2.03756 
        1.75489         4.28548         2.02078         2.02078 
        1.76101         4.24546          2.0042          2.0042 
        1.76715         4.23124         1.98778         1.98778 
        1.77329         4.21011         1.97153         1.97153 
        1.77943         4.16721         1.95546         1.95546 
        1.78557         4.15901         1.93959         1.93959 
        1.79171         4.12988         1.92389         1.92389 
        1.79785         4.10719         1.90837         1.90837 
        1.80399         4.08015         1.89302         1.89302 
        1.81012         4.06252         1.87786         1.87786 
        1.81625         4.03606         1.86288         1.86288 
        1.82239         4.01589         1.84804         1.84804 
        1.82853         3.99142         1.83337         1.83337 
        1.83466          3.9783         1.81887         1.81887 
        1.84078         3.95643         1.80454         1.80454 
        1.84692         3.93838         1.79035         1.79035 
        1.85306         3.90319          1.7763          1.7763 
         1.8592         3.87931         1.76242         1.76242 
        1.86533         3.86173         1.74869         1.74869 
        1.87147         3.84694          1.7351          1.7351 
        1.87761         3.82172         1.72165         1.72165 
