# k  (h/Mpc)    Pcb(k)  (Mpc/h)^3    Pcb_linear(k) (Mpc/h)^3    Pcb_NL(k) (Mpc/h)^3   ShotnoiseSubtracted = false
     0.00783031         6493.47         6573.42         6573.42 
       0.013688         8349.57         8311.14         8311.14 
       0.019231         8576.64         8566.68         8566.68 
      0.0249154          7958.5         8068.36         8068.36 
      0.0312784         7104.27         7148.28         7148.28 
      0.0375637         6242.03         6237.32         6237.32 
      0.0433917         5486.32         5548.88         5548.88 
      0.0492413         5012.67         5035.74         5035.74 
      0.0555754         4542.31         4633.53         4633.53 
      0.0619321         4318.66         4309.55         4309.55 
       0.067871         3945.32         4014.25         4014.25 
      0.0738098         3628.12         3693.96         3693.96 
      0.0800417         3249.73         3332.94         3332.94 
      0.0862327         2930.74         2976.64         2976.64 
      0.0921407          2658.9         2670.24         2670.24 
      0.0982031         2390.28         2411.93         2411.93 
       0.104506         2237.31         2209.55         2209.55 
       0.110769          2084.9         2064.53         2064.53 
       0.116806         1961.29         1957.92         1957.92 
       0.122832         1876.72         1863.02         1863.02 
       0.129052         1747.89         1760.49         1760.49 
       0.135211         1642.23         1647.16         1647.16 
       0.141259         1548.38         1527.18         1527.18 
       0.147318         1443.97         1407.21         1407.21 
       0.153489          1323.2         1295.43         1295.43 
       0.159709          1245.1         1200.74         1200.74 
       0.165845         1192.23         1127.02         1127.02 
       0.171974         1124.22         1070.12         1070.12 
       0.178125         1075.86         1023.91         1023.91 
       0.184229         1036.26         982.268         982.268 
        0.19034         970.438         939.628         939.628 
       0.196428          946.83         893.752         893.752 
       0.202534          910.83         844.774         844.774 
       0.208729         860.069           794.6           794.6 
       0.214876         811.074         747.537         747.537 
       0.220989          784.38         705.925         705.925 
       0.227147         741.891         670.348         670.348 
        0.23329         713.631         640.759         640.759 
       0.239377         697.936         615.721         615.721 
       0.245482         654.524         592.933         592.933 
       0.251667         646.715         570.456         570.456 
       0.257832         623.686         547.571         547.571 
       0.263955         601.013         524.196         524.196 
       0.270079         579.053         500.696         500.696 
        0.27624          569.26         477.809         477.809 
       0.282372          545.38         456.628         456.628 
        0.28843         529.526         437.735         437.735 
       0.294538         505.775         420.807         420.807 
       0.300721          501.96         405.501         405.501 
        0.30691         479.182         391.459         391.459 
       0.313033         468.795         378.251         378.251 
       0.319153         452.604         365.315         365.315 
       0.325316         440.432         352.362         352.362 
        0.33145         426.829         339.594         339.594 
       0.337538         420.809         327.231         327.231 
       0.343633         406.965         315.413         315.413 
       0.349808         394.197         304.182         304.182 
       0.355968           389.1         293.816         293.816 
       0.362074         380.101         284.306         284.306 
       0.368217          370.02         275.381         275.381 
       0.374374         356.838         266.909         266.909 
       0.380519         351.924         258.762         258.762 
       0.386598         343.364         250.921         250.921 
       0.392688         339.706         243.244         243.244 
        0.39888         330.549         235.645         235.645 
       0.405048         323.294         228.345         228.345 
       0.411186         316.522         221.396         221.396 
       0.417313         310.727         214.811         214.811 
       0.423458         304.639         208.565         208.565 
       0.429607         297.828         202.637         202.637 
       0.435692         289.852         197.048         197.048 
       0.441815         287.785         191.651         191.651 
       0.447964         282.448         186.416         186.416 
       0.454126         271.548         181.327         181.327 
       0.460267          268.58         176.413         176.413 
       0.466387         265.384         171.672         171.672 
        0.47254         259.596         167.071         167.071 
       0.478662         257.904         162.671         162.671 
       0.484765         250.657         158.466         158.466 
       0.490885         247.169         154.423         154.423 
       0.497035         243.601         150.519         150.519 
       0.503198          237.59         146.755         146.755 
       0.509342          234.93         143.134         143.134 
       0.515458         231.918         139.648         139.648 
       0.521598         228.425         136.255         136.255 
       0.527764          224.73         132.952         132.952 
       0.533884         221.589         129.779         129.779 
           0.54         218.358         126.714         126.714 
       0.546137          216.93         123.742         123.742 
       0.552299         212.983         120.859         120.859 
       0.558452          209.83         118.078         118.078 
       0.564573         206.307         115.405         115.405 
       0.570708         202.993         112.812         112.812 
       0.576825         200.397         110.308         110.308 
       0.582926         197.581         107.887         107.887 
       0.589034         194.731         105.533         105.533 
       0.595184         192.708         103.232         103.232 
       0.601379          190.93         100.984         100.984 
       0.607522         186.697         98.8227         98.8227 
       0.613639         186.018         96.7355         96.7355 
       0.619772         181.878          94.706          94.706 
       0.625918         180.195         92.7328         92.7328 
       0.632068         178.191         90.8163         90.8163 
       0.638161         176.815         88.9718         88.9718 
         0.6443         174.216         87.1658         87.1658 
       0.650464         172.371         85.4037         85.4037 
       0.656582         170.621         83.7035         83.7035 
       0.662703         168.119         82.0496         82.0496 
       0.668861         165.983         80.4317         80.4317 
       0.675024         164.038         78.8569         78.8569 
       0.681124         163.028         77.3409         77.3409 
       0.687237         160.184         75.8624         75.8624 
       0.693381         158.146         74.4163         74.4163 
       0.699536         156.965          73.006          73.006 
       0.705665         157.063         71.6389         71.6389 
       0.711789         153.305         70.3085         70.3085 
       0.717957         152.715         69.0033         69.0033 
        0.72409         150.619          67.739          67.739 
       0.730186         148.226         66.5145         66.5145 
       0.736317         147.691          65.314          65.314 
       0.742472         146.506         64.1391         64.1391 
       0.748622         145.263         62.9947         62.9947 
        0.75476         143.853         61.8811         61.8811 
       0.760888          141.89         60.7965         60.7965 
       0.767043         140.884         59.7339         59.7339 
       0.773185         139.443         58.6993         58.6993 
       0.779291         137.714         57.6955         57.6955 
       0.785407           136.9          56.714          56.714 
       0.791564         135.427         55.7494         55.7494 
       0.797719         133.641         54.8081         54.8081 
       0.803834         133.071         53.8947         53.8947 
       0.809972         131.132         52.9992         52.9992 
       0.816124         130.865         52.1223         52.1223 
       0.822261         129.437         51.2678         51.2678 
       0.828378         128.188         50.4354         50.4354 
       0.834502         127.621          49.621          49.621 
       0.840667         125.985         48.8195         48.8195 
       0.846816         124.833         48.0382         48.0382 
       0.852925         123.777         47.2791         47.2791 
       0.859047         122.334         46.5351         46.5351 
       0.865192         121.812         45.8048         45.8048 
       0.871341         120.649           45.09           45.09 
       0.877463         119.392         44.3938         44.3938 
       0.883569          118.56         43.7142         43.7142 
       0.889708         117.794         43.0456         43.0456 
       0.895864         116.708         42.3895         42.3895 
       0.902008         115.897         41.7486         41.7486 
       0.908149         115.146         41.1214         41.1214 
       0.914301         113.842         40.5063         40.5063 
       0.920448         113.162         39.9046         39.9046 
       0.926574          112.39         39.3173         39.3173 
       0.932687         111.817         38.7432         38.7432 
       0.938823         110.217         38.1786         38.1786 
       0.944975         109.568         37.6242         37.6242 
       0.951105         108.764         37.0829         37.0829 
       0.957225         107.427         36.5533         36.5533 
       0.963368         106.999         36.0324         36.0324 
       0.969511         106.491         35.5217         35.5217 
       0.975621         105.947         35.0238         35.0238 
       0.981748         105.012         34.5343         34.5343 
       0.987916         103.983         34.0511         34.0511 
        0.99406         103.458         33.5791         33.5791 
        1.00019         102.429         33.1171         33.1171 
        1.00632         101.985         32.6643         32.6643 
        1.01246         101.052         32.2194         32.2194 
        1.01859         99.7732         31.7835         31.7835 
        1.02471         100.124         31.3564         31.3564 
        1.03085         99.0163         30.9357         30.9357 
        1.03698         98.1863         30.5237         30.5237 
        1.04314         97.2877         30.1176         30.1176 
        1.04929         96.8306         29.7199         29.7199 
        1.05541         96.0774          29.331          29.331 
        1.06154         95.6151         28.9483         28.9483 
        1.06769         95.0269         28.5718         28.5718 
        1.07382         94.6541         28.2034         28.2034 
        1.07993         94.0073         27.8423         27.8423 
        1.08607          93.158         27.4861         27.4861 
        1.09222         92.6767         27.1359         27.1359 
        1.09836         91.9774         26.7922         26.7922 
        1.10449         91.3981          26.455          26.455 
        1.11063         90.7731         26.1232         26.1232 
        1.11677         90.2444         25.7973         25.7973 
         1.1229          89.498         25.4776         25.4776 
        1.12903          88.525         25.1631         25.1631 
        1.13518         88.7739         24.8537         24.8537 
        1.14131         88.1003         24.5497         24.5497 
        1.14745         87.0487         24.2511         24.2511 
        1.15359         86.7795         23.9574         23.9574 
        1.15973         86.2992         23.6685         23.6685 
        1.16584         85.6529         23.3857         23.3857 
        1.17197         85.1261         23.1071         23.1071 
        1.17811          84.638         22.8323         22.8323 
        1.18424         83.9088         22.5628         22.5628 
        1.19038         83.4965         22.2969         22.2969 
        1.19652         83.1659         22.0355         22.0355 
        1.20267         82.4673         21.7783         21.7783 
        1.20881         82.0042         21.5253         21.5253 
        1.21495         81.3676         21.2767         21.2767 
        1.22108         80.8954         21.0321         21.0321 
         1.2272         80.3076          20.792          20.792 
        1.23334         79.9494         20.5552         20.5552 
        1.23949         79.5421         20.3215         20.3215 
        1.24562         79.1579         20.0921         20.0921 
        1.25174          78.686         19.8667         19.8667 
        1.25789         78.2379          19.644          19.644 
        1.26402         77.7677         19.4252         19.4252 
        1.27014         76.9588         19.2103         19.2103 
        1.27628         76.8463          18.998          18.998 
        1.28244         76.1066         18.7886         18.7886 
        1.28858         75.8113         18.5826         18.5826 
        1.29471          75.539         18.3802         18.3802 
        1.30084         74.9551          18.181          18.181 
        1.30697         74.4441         17.9845         17.9845 
        1.31312         74.0498         17.7906         17.7906 
        1.31925         73.8448         17.6002         17.6002 
        1.32537         73.3905         17.4129         17.4129 
        1.33151         72.7331         17.2275         17.2275 
        1.33765         72.4301         17.0451         17.0451 
        1.34378         71.9784         16.8656         16.8656 
        1.34992         71.5574         16.6887         16.6887 
        1.35606         71.1712         16.5139         16.5139 
         1.3622         70.5809         16.3419         16.3419 
        1.36833         70.4379         16.1729         16.1729 
        1.37445         70.0059         16.0063         16.0063 
        1.38059         69.5159         15.8416         15.8416 
        1.38675         69.1746         15.6788         15.6788 
        1.39288         68.6934          15.519          15.519 
        1.39901         68.5224         15.3615         15.3615 
        1.40515         68.1575         15.2059         15.2059 
         1.4113         67.7211         15.0525         15.0525 
        1.41742         67.4241         14.9018         14.9018 
        1.42355         66.9272         14.7529         14.7529 
         1.4297         66.5731         14.6056         14.6056 
        1.43585         66.1849         14.4604         14.4604 
        1.44198         65.9138         14.3177         14.3177 
        1.44809         65.5284         14.1773         14.1773 
        1.45423         65.2893         14.0382         14.0382 
        1.46036         64.8794         13.9013         13.9013 
        1.46649         64.4914         13.7662         13.7662 
        1.47263         64.1324         13.6327         13.6327 
        1.47877         63.9489         13.5011         13.5011 
        1.48491         63.5915         13.3711         13.3711 
        1.49104         63.1307          13.243          13.243 
        1.49718         62.7133         13.1166         13.1166 
        1.50333         62.4733         12.9916         12.9916 
        1.50947          62.091         12.8685         12.8685 
         1.5156         61.8209         12.7472         12.7472 
        1.52172         61.5106         12.6275         12.6275 
        1.52787         61.3181         12.5091         12.5091 
          1.534         60.9572         12.3924         12.3924 
        1.54013         60.5911         12.2772         12.2772 
        1.54627         60.3554         12.1634         12.1634 
        1.55241         59.9265          12.051          12.051 
        1.55855         59.5249         11.9401         11.9401 
        1.56467         59.1038          11.831          11.831 
         1.5708         59.0859          11.723          11.723 
        1.57695         58.7554         11.6161         11.6161 
        1.58308           58.45         11.5108         11.5108 
        1.58922         58.3046         11.4068         11.4068 
        1.59535         57.9847         11.3041         11.3041 
         1.6015          57.486         11.2026         11.2026 
        1.60764         57.3627         11.1023         11.1023 
        1.61376         57.0193         11.0035         11.0035 
        1.61989         56.5545         10.9059         10.9059 
        1.62604         56.4466         10.8093         10.8093 
        1.63218         56.2413         10.7139         10.7139 
        1.63831         55.8916         10.6199         10.6199 
        1.64444         55.6415         10.5269         10.5269 
        1.65059         55.1488         10.4349         10.4349 
        1.65673          54.985         10.3441         10.3441 
        1.66285         54.7356         10.2546         10.2546 
        1.66898         54.4314         10.1662         10.1662 
        1.67512          54.109         10.0787         10.0787 
        1.68127         53.7874         9.99205         9.99205 
         1.6874          53.668         9.90668         9.90668 
        1.69353         53.2978         9.82235         9.82235 
        1.69967         53.0938         9.73882         9.73882 
        1.70581         52.9662          9.6563          9.6563 
        1.71193         52.6126         9.57505         9.57505 
        1.71806         52.1946         9.49457         9.49457 
        1.72421         52.0576         9.41487         9.41487 
        1.73035         51.7319         9.33617         9.33617 
        1.73649         51.3898          9.2584          9.2584 
        1.74262         51.2938         9.18158         9.18158 
        1.74876         51.1415         9.10559         9.10559 
        1.75489         50.7145         9.03062         9.03062 
        1.76101         50.5699         8.95652         8.95652 
        1.76715         50.2258         8.88316         8.88316 
        1.77329         49.9626         8.81053         8.81053 
        1.77943         49.8268          8.7387          8.7387 
        1.78557         49.6121         8.66777         8.66777 
        1.79171         49.2601         8.59763         8.59763 
        1.79785         49.0429         8.52825         8.52825 
        1.80399         48.8056         8.45967         8.45967 
        1.81012         48.6659         8.39193         8.39193 
        1.81625         48.2042         8.32497         8.32497 
        1.82239         48.0834         8.25864         8.25864 
        1.82853          47.707         8.19308         8.19308 
        1.83466         47.6345         8.12829         8.12829 
        1.84078          47.238         8.06428         8.06428 
        1.84692         47.0539         8.00086         8.00086 
        1.85306         46.8367         7.93805         7.93805 
         1.8592         46.5923         7.87602         7.87602 
        1.86533         46.3614         7.81469         7.81469 
        1.87147          46.187         7.75394         7.75394 
