# k  (h/Mpc)    Pcb(k)  (Mpc/h)^3    Pcb_linear(k) (Mpc/h)^3    Pcb_NL(k) (Mpc/h)^3   ShotnoiseSubtracted = false
     0.00783031         3900.57         3944.71         3944.71 
       0.013688         5001.07         4988.33         4988.33 
       0.019231         5147.02         5142.06         5142.06 
      0.0249154          4793.4         4843.14         4843.14 
      0.0312784         4275.01         4290.96         4290.96 
      0.0375637         3751.27         3744.19         3744.19 
      0.0433917         3307.42         3330.96         3330.96 
      0.0492413         3017.15         3022.95         3022.95 
      0.0555754         2745.18         2781.52         2781.52 
      0.0619321         2597.32         2587.04         2587.04 
       0.067871         2383.92         2409.78         2409.78 
      0.0738098         2191.92         2217.51         2217.51 
      0.0800417            1967          2000.8          2000.8 
      0.0862327         1769.74         1786.91         1786.91 
      0.0921407         1599.98         1602.97         1602.97 
      0.0982031         1438.97         1447.91         1447.91 
       0.104506         1340.16         1326.42         1326.42 
       0.110769         1249.51         1239.37         1239.37 
       0.116806         1175.36         1175.37         1175.37 
       0.122832         1125.16          1118.4          1118.4 
       0.129052         1051.34         1056.85         1056.85 
       0.135211         985.803         988.813         988.813 
       0.141259         925.509         916.792         916.792 
       0.147318         860.783          844.77          844.77 
       0.153489         789.033         777.666         777.666 
       0.159709         738.736         720.822         720.822 
       0.165845         704.431          676.57          676.57 
       0.171974         663.081          642.41          642.41 
       0.178125         635.337         614.668         614.668 
       0.184229         612.061         589.672         589.672 
        0.19034         574.431         564.074         564.074 
       0.196428         557.453         536.534         536.534 
       0.202534         535.298         507.132         507.132 
       0.208729         503.596         477.012         477.012 
       0.214876         472.827         448.759         448.759 
       0.220989         456.032         423.779         423.779 
       0.227147         429.406         402.421         402.421 
        0.23329         412.494         384.659         384.659 
       0.239377         401.449         369.628         369.628 
       0.245482         378.441         355.948         355.948 
       0.251667         371.981         342.454         342.454 
       0.257832         358.729         328.716         328.716 
       0.263955         344.601         314.684         314.684 
       0.270079          331.49         300.577         300.577 
        0.27624          323.68         286.837         286.837 
       0.282372         310.216         274.122         274.122 
        0.28843         298.559          262.78          262.78 
       0.294538         286.378         252.618         252.618 
       0.300721         282.213          243.43          243.43 
        0.30691         269.684             235             235 
       0.313033         262.642         227.071         227.071 
       0.319153         251.617         219.305         219.305 
       0.325316         246.221         211.529         211.529 
        0.33145         237.564         203.864         203.864 
       0.337538         233.174         196.443         196.443 
       0.343633         225.227         189.348         189.348 
       0.349808         218.333         182.606         182.606 
       0.355968         213.787         176.383         176.383 
       0.362074         207.738         170.674         170.674 
       0.368217         202.134         165.316         165.316 
       0.374374         196.114          160.23          160.23 
       0.380519         191.912         155.339         155.339 
       0.386598         186.905         150.633         150.633 
       0.392688         183.782         146.023         146.023 
        0.39888         178.859         141.462         141.462 
       0.405048         174.754          137.08          137.08 
       0.411186         170.874         132.908         132.908 
       0.417313         166.618         128.955         128.955 
       0.423458         162.959         125.205         125.205 
       0.429607         158.894         121.647         121.647 
       0.435692         153.988         118.291         118.291 
       0.441815         152.697         115.052         115.052 
       0.447964         150.125         111.909         111.909 
       0.454126         143.663         108.854         108.854 
       0.460267         141.901         105.904         105.904 
       0.466387         139.366         103.058         103.058 
        0.47254         136.816         100.296         100.296 
       0.478662         134.979         97.6543         97.6543 
       0.484765         131.416         95.1301         95.1301 
       0.490885         129.068         92.7029         92.7029 
       0.497035         127.311         90.3593         90.3593 
       0.503198         123.879         88.0996         88.0996 
       0.509342         121.419         85.9262         85.9262 
       0.515458         119.627         83.8333         83.8333 
       0.521598         118.055         81.7963         81.7963 
       0.527764         116.066         79.8134         79.8134 
       0.533884          114.07         77.9085         77.9085 
           0.54         112.024         76.0684         76.0684 
       0.546137         110.855         74.2844         74.2844 
       0.552299         109.202         72.5538         72.5538 
       0.558452         106.517         70.8846         70.8846 
       0.564573         104.594         69.2795         69.2795 
       0.570708         103.416         67.7229         67.7229 
       0.576825          101.63         66.2199         66.2199 
       0.582926         99.7899         64.7663         64.7663 
       0.589034          97.731         63.3532         63.3532 
       0.595184         96.6178         61.9722         61.9722 
       0.601379           95.55         60.6228         60.6228 
       0.607522         93.1632          59.325          59.325 
       0.613639         93.0027         58.0721         58.0721 
       0.619772         90.7643         56.8537         56.8537 
       0.625918         90.0165         55.6692         55.6692 
       0.632068         88.8844         54.5187         54.5187 
       0.638161         87.6109         53.4114         53.4114 
         0.6443         86.3545         52.3272         52.3272 
       0.650464         85.1329         51.2694         51.2694 
       0.656582         84.2465         50.2487         50.2487 
       0.662703         82.5879         49.2559         49.2559 
       0.668861         81.7303         48.2846         48.2846 
       0.675024         80.6253         47.3392         47.3392 
       0.681124         79.4903         46.4291         46.4291 
       0.687237         78.1404         45.5416         45.5416 
       0.693381         77.4313         44.6735         44.6735 
       0.699536         76.1925         43.8268         43.8268 
       0.705665         76.4874         43.0061         43.0061 
       0.711789         74.4038         42.2075         42.2075 
       0.717957         73.8676         41.4239         41.4239 
        0.72409         72.8237         40.6649         40.6649 
       0.730186         71.6623         39.9298         39.9298 
       0.736317         71.4118         39.2092         39.2092 
       0.742472         70.3285         38.5039         38.5039 
       0.748622         69.7471         37.8169         37.8169 
        0.75476         68.8691         37.1484         37.1484 
       0.760888         67.9142         36.4972         36.4972 
       0.767043         67.2009         35.8594         35.8594 
       0.773185         66.3714         35.2383         35.2383 
       0.779291          65.975         34.6356         34.6356 
       0.785407         65.3585         34.0464         34.0464 
       0.791564           64.32         33.4674         33.4674 
       0.797719          63.363         32.9023         32.9023 
       0.803834         63.1863          32.354          32.354 
       0.809972         62.1311         31.8164         31.8164 
       0.816124         61.3485           31.29           31.29 
       0.822261         61.0088          30.777          30.777 
       0.828378         60.4733         30.2773         30.2773 
       0.834502         59.7752         29.7884         29.7884 
       0.840667         59.2557         29.3072         29.3072 
       0.846816          58.465         28.8382         28.8382 
       0.852925         57.9689         28.3825         28.3825 
       0.859047         57.1792         27.9359         27.9359 
       0.865192         56.8764         27.4975         27.4975 
       0.871341         56.5553         27.0683         27.0683 
       0.877463         55.4622         26.6504         26.6504 
       0.883569          55.094         26.2425         26.2425 
       0.889708         54.7641         25.8411         25.8411 
       0.895864         54.2173         25.4472         25.4472 
       0.902008         53.7764         25.0624         25.0624 
       0.908149          53.292         24.6859         24.6859 
       0.914301         52.9354         24.3167         24.3167 
       0.920448         52.1981         23.9554         23.9554 
       0.926574         51.8606         23.6029         23.6029 
       0.932687         51.3723         23.2582         23.2582 
       0.938823         50.6622         22.9193         22.9193 
       0.944975         50.5146         22.5865         22.5865 
       0.951105         50.0157         22.2615         22.2615 
       0.957225         49.4098         21.9436         21.9436 
       0.963368         49.2539         21.6309         21.6309 
       0.969511          48.851         21.3243         21.3243 
       0.975621         48.4439         21.0254         21.0254 
       0.981748         47.8593         20.7316         20.7316 
       0.987916          47.584         20.4415         20.4415 
        0.99406         47.2702         20.1582         20.1582 
        1.00019         46.6354         19.8808         19.8808 
        1.00632         46.4712          19.609          19.609 
        1.01246         46.0778         19.3419         19.3419 
        1.01859         45.4994         19.0802         19.0802 
        1.02471         45.5233         18.8238         18.8238 
        1.03085         45.0349         18.5713         18.5713 
        1.03698         44.4662          18.324          18.324 
        1.04314         44.0824         18.0802         18.0802 
        1.04929          43.886         17.8414         17.8414 
        1.05541         43.4056          17.608          17.608 
        1.06154         43.2767         17.3782         17.3782 
        1.06769          42.881         17.1522         17.1522 
        1.07382         42.5918          16.931          16.931 
        1.07993         42.4307         16.7142         16.7142 
        1.08607         41.8788         16.5004         16.5004 
        1.09222         41.7433         16.2902         16.2902 
        1.09836         41.3161         16.0839         16.0839 
        1.10449         41.0816         15.8814         15.8814 
        1.11063         40.5318         15.6823         15.6823 
        1.11677         40.3912         15.4866         15.4866 
         1.1229         40.2591         15.2947         15.2947 
        1.12903         39.6802         15.1059         15.1059 
        1.13518          39.551         14.9201         14.9201 
        1.14131         39.4489         14.7377         14.7377 
        1.14745         38.9935         14.5584         14.5584 
        1.15359         38.8615         14.3821         14.3821 
        1.15973         38.4128         14.2086         14.2086 
        1.16584         38.0975         14.0388         14.0388 
        1.17197         38.1099         13.8716         13.8716 
        1.17811         37.6467         13.7067         13.7067 
        1.18424         37.3124         13.5449         13.5449 
        1.19038         37.2769         13.3853         13.3853 
        1.19652           37.04         13.2283         13.2283 
        1.20267         36.7569         13.0739         13.0739 
        1.20881         36.4796          12.922          12.922 
        1.21495         36.2011         12.7728         12.7728 
        1.22108         35.9688          12.626          12.626 
         1.2272         35.5713         12.4818         12.4818 
        1.23334         35.4712         12.3397         12.3397 
        1.23949         35.2766         12.1994         12.1994 
        1.24562         35.0909         12.0617         12.0617 
        1.25174         34.9059         11.9263         11.9263 
        1.25789         34.6515         11.7927         11.7927 
        1.26402         34.4795         11.6613         11.6613 
        1.27014         34.1138         11.5323         11.5323 
        1.27628         33.9303         11.4049         11.4049 
        1.28244         33.7462         11.2791         11.2791 
        1.28858          33.619         11.1555         11.1555 
        1.29471         33.3987          11.034          11.034 
        1.30084         33.1716         10.9144         10.9144 
        1.30697          32.908         10.7964         10.7964 
        1.31312         32.6381           10.68           10.68 
        1.31925         32.5255         10.5657         10.5657 
        1.32537         32.3949         10.4533         10.4533 
        1.33151         32.1218          10.342          10.342 
        1.33765         32.0527         10.2325         10.2325 
        1.34378         31.8924         10.1247         10.1247 
        1.34992         31.4353         10.0185         10.0185 
        1.35606         31.3624         9.91359         9.91359 
         1.3622         31.1769         9.81036         9.81036 
        1.36833         30.9921         9.70887         9.70887 
        1.37445          30.965         9.60888         9.60888 
        1.38059         30.7632            9.51            9.51 
        1.38675         30.4567         9.41229         9.41229 
        1.39288           30.36         9.31635         9.31635 
        1.39901         30.1073          9.2218          9.2218 
        1.40515         29.9812         9.12837         9.12837 
         1.4113         29.8368         9.03628         9.03628 
        1.41742         29.5337         8.94581         8.94581 
        1.42355         29.4994         8.85643         8.85643 
         1.4297         29.2986         8.76801         8.76801 
        1.43585         29.2394         8.68085         8.68085 
        1.44198          28.932         8.59521         8.59521 
        1.44809         28.8368         8.51089         8.51089 
        1.45423         28.7109         8.42741         8.42741 
        1.46036         28.5978          8.3452          8.3452 
        1.46649         28.3821         8.26408         8.26408 
        1.47263         28.2057         8.18397         8.18397 
        1.47877         28.0916         8.10497         8.10497 
        1.48491         27.9133         8.02691         8.02691 
        1.49104         27.8608         7.95004         7.95004 
        1.49718         27.5968         7.87413         7.87413 
        1.50333         27.5088          7.7991          7.7991 
        1.50947         27.3961         7.72521         7.72521 
         1.5156         27.1744         7.65239         7.65239 
        1.52172         26.9584         7.58052         7.58052 
        1.52787         26.9804         7.50944         7.50944 
          1.534         26.7505         7.43936         7.43936 
        1.54013         26.5465         7.37025         7.37025 
        1.54627         26.5108         7.30191         7.30191 
        1.55241         26.3175         7.23442         7.23442 
        1.55855         26.1864         7.16789         7.16789 
        1.56467         26.0774         7.10239         7.10239 
         1.5708         25.9727         7.03752         7.03752 
        1.57695         25.7068         6.97337         6.97337 
        1.58308         25.7665         6.91018         6.91018 
        1.58922         25.5585         6.84773         6.84773 
        1.59535         25.3868         6.78607         6.78607 
         1.6015         25.2799          6.7251          6.7251 
        1.60764         25.2161         6.66491         6.66491 
        1.61376         25.0553         6.60563         6.60563 
        1.61989         24.8345         6.54703         6.54703 
        1.62604         24.8074         6.48902         6.48902 
        1.63218         24.6216         6.43174         6.43174 
        1.63831         24.5724          6.3753          6.3753 
        1.64444         24.4002         6.31952         6.31952 
        1.65059         24.2722         6.26428         6.26428 
        1.65673         24.1952         6.20976         6.20976 
        1.66285         24.0433         6.15605         6.15605 
        1.66898         23.9442         6.10296         6.10296 
        1.67512         23.8621          6.0504          6.0504 
        1.68127         23.6703         5.99842         5.99842 
         1.6874         23.5744         5.94716         5.94716 
        1.69353         23.5264         5.89654         5.89654 
        1.69967         23.3225         5.84639         5.84639 
        1.70581         23.2128         5.79686         5.79686 
        1.71193         23.0911         5.74808         5.74808 
        1.71806          23.031         5.69977         5.69977 
        1.72421         22.9106         5.65192         5.65192 
        1.73035         22.8261         5.60468         5.60468 
        1.73649         22.6705         5.55799         5.55799 
        1.74262         22.6149         5.51187         5.51187 
        1.74876         22.4833         5.46625         5.46625 
        1.75489         22.3706         5.42125         5.42125 
        1.76101         22.2814         5.37677         5.37677 
        1.76715         22.2008         5.33273         5.33273 
        1.77329         22.1083         5.28913         5.28913 
        1.77943         21.9737           5.246           5.246 
        1.78557         21.8767         5.20343         5.20343 
        1.79171         21.8111         5.16132         5.16132 
        1.79785         21.6578         5.11967         5.11967 
        1.80399          21.564         5.07849         5.07849 
        1.81012         21.5102         5.03783         5.03783 
        1.81625         21.3961         4.99763         4.99763 
        1.82239         21.3369         4.95782         4.95782 
        1.82853         21.1494         4.91846         4.91846 
        1.83466         21.0646         4.87957         4.87957 
        1.84078         20.9177         4.84114         4.84114 
        1.84692         20.9126         4.80307         4.80307 
        1.85306         20.7701         4.76536         4.76536 
         1.8592          20.708         4.72812         4.72812 
        1.86533         20.6057          4.6913          4.6913 
        1.87147         20.5085         4.65483         4.65483 
