# k  (h/Mpc)    Pcb(k)  (Mpc/h)^3    Pcb_linear(k) (Mpc/h)^3    Pcb_NL(k) (Mpc/h)^3   ShotnoiseSubtracted = false
     0.00783031         5771.92         5841.49         5841.49 
       0.013688         7416.38         7386.02         7386.02 
       0.019231         7621.89         7613.24         7613.24 
      0.0249154         7079.19         7170.44         7170.44 
      0.0312784         6317.99          6352.8          6352.8 
      0.0375637         5549.35         5543.23         5543.23 
      0.0433917         4881.45         4931.41         4931.41 
      0.0492413         4458.25         4475.39         4475.39 
      0.0555754         4044.24         4117.93         4117.93 
      0.0619321         3840.43         3830.01         3830.01 
       0.067871         3512.65         3567.58         3567.58 
      0.0738098         3230.08         3282.92         3282.92 
      0.0800417         2894.59         2962.08         2962.08 
      0.0862327         2608.87         2645.43         2645.43 
      0.0921407         2364.68         2373.12         2373.12 
      0.0982031         2125.92         2143.55         2143.55 
       0.104506         1987.39         1963.69         1963.69 
       0.110769         1852.24         1834.81         1834.81 
       0.116806         1742.23         1740.07         1740.07 
       0.122832         1667.44         1655.73         1655.73 
       0.129052         1554.22          1564.6          1564.6 
       0.135211          1459.5         1463.88         1463.88 
       0.141259         1374.59         1357.26         1357.26 
       0.147318         1280.98         1250.63         1250.63 
       0.153489         1173.89         1151.29         1151.29 
       0.159709         1103.21         1067.13         1067.13 
       0.165845         1055.23         1001.62         1001.62 
       0.171974         994.499         951.049         951.049 
       0.178125         952.074         909.978         909.978 
       0.184229         917.145         872.972         872.972 
        0.19034         859.084         835.077         835.077 
       0.196428         837.213         794.305         794.305 
       0.202534         805.139         750.777         750.777 
       0.208729         759.485         706.186         706.186 
       0.214876         715.258          664.36          664.36 
       0.220989          691.34         627.378         627.378 
       0.227147         653.033         595.759         595.759 
        0.23329         627.992         569.463         569.463 
       0.239377          613.44         547.211         547.211 
       0.245482         575.825         526.958         526.958 
       0.251667         568.276         506.982         506.982 
       0.257832         548.177         486.643         486.643 
       0.263955         527.805          465.87          465.87 
       0.270079         508.333         444.985         444.985 
        0.27624         498.953         424.644         424.644 
       0.282372         478.097         405.819         405.819 
        0.28843         462.999         389.029         389.029 
       0.294538         442.749         373.985         373.985 
       0.300721         438.707         360.382         360.382 
        0.30691         418.851         347.902         347.902 
       0.313033         409.331         336.164         336.164 
       0.319153         394.318         324.667         324.667 
       0.325316         384.208         313.155         313.155 
        0.33145         371.919         301.807         301.807 
       0.337538         366.395         290.821         290.821 
       0.343633         354.209         280.317         280.317 
       0.349808         343.187         270.337         270.337 
       0.355968         338.069         261.124         261.124 
       0.362074         329.737         252.672         252.672 
       0.368217         321.004          244.74          244.74 
       0.374374         310.147          237.21          237.21 
       0.380519         305.182          229.97          229.97 
       0.386598         297.628         223.002         223.002 
       0.392688         293.966         216.178         216.178 
        0.39888         286.142         209.425         209.425 
       0.405048         279.754         202.938         202.938 
       0.411186         273.731         196.762         196.762 
       0.417313         268.422         190.909         190.909 
       0.423458         262.999         185.358         185.358 
       0.429607         256.923          180.09          180.09 
       0.435692         249.701         175.122         175.122 
       0.441815         247.915         170.326         170.326 
       0.447964         243.463         165.674         165.674 
       0.454126         233.565         161.151         161.151 
       0.460267         231.035         156.784         156.784 
       0.466387         228.084          152.57          152.57 
        0.47254         223.242         148.482         148.482 
       0.478662         221.381         144.571         144.571 
       0.484765         215.301         140.834         140.834 
       0.490885         212.099         137.241         137.241 
       0.497035         209.149         133.771         133.771 
       0.503198         203.724         130.426         130.426 
       0.509342         201.035         127.208         127.208 
       0.515458         198.375          124.11          124.11 
       0.521598         195.595         121.094         121.094 
       0.527764          192.47         118.159         118.159 
       0.533884         189.497         115.338         115.338 
           0.54         186.602         112.614         112.614 
       0.546137         185.207         109.973         109.973 
       0.552299          182.04         107.411         107.411 
       0.558452         178.865          104.94          104.94 
       0.564573         175.759         102.564         102.564 
       0.570708         173.188         100.259         100.259 
       0.576825         170.883         98.0343         98.0343 
       0.582926         168.241         95.8822         95.8822 
       0.589034         165.575         93.7903         93.7903 
       0.595184         163.803         91.7458         91.7458 
       0.601379         162.265         89.7481         89.7481 
       0.607522          158.46         87.8268         87.8268 
       0.613639         158.038         85.9719         85.9719 
       0.619772         154.492         84.1682         84.1682 
       0.625918         152.962         82.4146         82.4146 
       0.632068         151.314         80.7113         80.7113 
       0.638161         149.875         79.0721         79.0721 
         0.6443         147.796          77.467          77.467 
       0.650464         146.111          75.901          75.901 
       0.656582         144.445         74.3899         74.3899 
       0.662703         142.081         72.9201         72.9201 
       0.668861         140.487         71.4822         71.4822 
       0.675024         138.817         70.0826         70.0826 
       0.681124         137.694         68.7353         68.7353 
       0.687237         135.251         67.4213         67.4213 
       0.693381         133.636         66.1361         66.1361 
       0.699536         132.438         64.8828         64.8828 
       0.705665         132.758         63.6677         63.6677 
       0.711789         129.291         62.4854         62.4854 
       0.717957         128.761         61.3254         61.3254 
        0.72409         126.929         60.2018         60.2018 
       0.730186          124.85         59.1135         59.1135 
       0.736317         124.546         58.0466         58.0466 
       0.742472         123.328         57.0025         57.0025 
       0.748622         122.278         55.9854         55.9854 
        0.75476         121.002         54.9957         54.9957 
       0.760888         119.368         54.0317         54.0317 
       0.767043         118.359         53.0874         53.0874 
       0.773185         117.114         52.1679         52.1679 
       0.779291         115.925         51.2758         51.2758 
       0.785407         115.112         50.4035         50.4035 
       0.791564         113.735         49.5463         49.5463 
       0.797719         112.232         48.7097         48.7097 
       0.803834         111.768         47.8979         47.8979 
       0.809972          109.96          47.102          47.102 
       0.816124         109.554         46.3227         46.3227 
       0.822261         108.553         45.5634         45.5634 
       0.828378         107.499         44.8235         44.8235 
       0.834502         106.759         44.0997         44.0997 
       0.840667         105.603         43.3874         43.3874 
       0.846816         104.515         42.6931         42.6931 
       0.852925         103.569         42.0185         42.0185 
       0.859047           102.3         41.3572         41.3572 
       0.865192         101.924         40.7082         40.7082 
       0.871341         101.046         40.0729         40.0729 
       0.877463         99.7158         39.4542         39.4542 
       0.883569         99.0844         38.8502         38.8502 
       0.889708         98.4954          38.256          38.256 
       0.895864         97.5868         37.6729         37.6729 
       0.902008         96.8559         37.1033         37.1033 
       0.908149         96.1712         36.5459         36.5459 
       0.914301         95.1056         35.9993         35.9993 
       0.920448          94.494         35.4644         35.4644 
       0.926574         93.7758         34.9425         34.9425 
       0.932687         93.2751         34.4323         34.4323 
       0.938823         91.8942         33.9306         33.9306 
       0.944975          91.509         33.4378         33.4378 
       0.951105         90.6943         32.9567         32.9567 
       0.957225         89.5712         32.4861         32.4861 
       0.963368         89.3256         32.0231         32.0231 
       0.969511         88.7984         31.5693         31.5693 
       0.975621         88.2594         31.1268         31.1268 
       0.981748         87.3909         30.6917         30.6917 
       0.987916         86.6877         30.2623         30.2623 
        0.99406         86.2294         29.8428         29.8428 
        1.00019         85.1996         29.4322         29.4322 
        1.00632         84.9176         29.0298         29.0298 
        1.01246         84.0823         28.6344         28.6344 
        1.01859         83.0339          28.247          28.247 
        1.02471         83.3806         27.8674         27.8674 
        1.03085         82.3976         27.4936         27.4936 
        1.03698         81.6915         27.1274         27.1274 
        1.04314         80.8984         26.7665         26.7665 
        1.04929          80.562          26.413          26.413 
        1.05541         79.8551         26.0674         26.0674 
        1.06154         79.5716         25.7272         25.7272 
        1.06769         78.9164         25.3927         25.3927 
        1.07382         78.6157         25.0652         25.0652 
        1.07993         78.1716         24.7443         24.7443 
        1.08607         77.3998         24.4278         24.4278 
        1.09222          77.022         24.1165         24.1165 
        1.09836         76.4584         23.8111         23.8111 
        1.10449         75.9286         23.5114         23.5114 
        1.11063         75.2918         23.2166         23.2166 
        1.11677         74.8513         22.9269         22.9269 
         1.1229         74.3999         22.6428         22.6428 
        1.12903         73.4294         22.3633         22.3633 
        1.13518         73.6395         22.0883         22.0883 
        1.14131         73.1822         21.8181         21.8181 
        1.14745         72.1974         21.5527         21.5527 
        1.15359         72.0448         21.2917         21.2917 
        1.15973           71.47         21.0349         21.0349 
        1.16584         70.9799         20.7836         20.7836 
        1.17197         70.5852          20.536          20.536 
        1.17811         70.1972         20.2918         20.2918 
        1.18424         69.5194         20.0523         20.0523 
        1.19038         69.2718          19.816          19.816 
        1.19652         68.9743         19.5836         19.5836 
        1.20267         68.4046          19.355          19.355 
        1.20881         67.9903         19.1302         19.1302 
        1.21495         67.4412         18.9093         18.9093 
        1.22108         67.0403         18.6919         18.6919 
         1.2272         66.4939         18.4786         18.4786 
        1.23334         66.2278          18.268          18.268 
        1.23949         66.0196         18.0604         18.0604 
        1.24562         65.5829         17.8565         17.8565 
        1.25174         65.2321         17.6561         17.6561 
        1.25789         64.8518         17.4582         17.4582 
        1.26402         64.3579         17.2638         17.2638 
        1.27014         63.7527         17.0728         17.0728 
        1.27628         63.6221         16.8841         16.8841 
        1.28244          63.032          16.698          16.698 
        1.28858         62.8037         16.5149         16.5149 
        1.29471         62.6151          16.335          16.335 
        1.30084         62.1444          16.158          16.158 
        1.30697         61.6564         15.9834         15.9834 
        1.31312         61.2847         15.8111         15.8111 
        1.31925         61.1489         15.6419         15.6419 
        1.32537         60.7686         15.4754         15.4754 
        1.33151         60.2657         15.3107         15.3107 
        1.33765         60.1052         15.1485         15.1485 
        1.34378         59.7288          14.989          14.989 
        1.34992         59.1593         14.8317         14.8317 
        1.35606         58.8773         14.6764         14.6764 
         1.3622          58.484         14.5236         14.5236 
        1.36833         58.3143         14.3733         14.3733 
        1.37445         58.0658         14.2253         14.2253 
        1.38059         57.6973         14.0789         14.0789 
        1.38675         57.3363         13.9343         13.9343 
        1.39288         57.0031         13.7922         13.7922 
        1.39901         56.6946         13.6523         13.6523 
        1.40515         56.4263         13.5139         13.5139 
         1.4113         56.1973         13.3776         13.3776 
        1.41742         55.7782         13.2437         13.2437 
        1.42355         55.4982         13.1114         13.1114 
         1.4297         55.1327         12.9805         12.9805 
        1.43585         54.9496         12.8514         12.8514 
        1.44198         54.6372         12.7246         12.7246 
        1.44809         54.3333         12.5998         12.5998 
        1.45423         54.1586         12.4762         12.4762 
        1.46036         53.7819         12.3545         12.3545 
        1.46649         53.4688         12.2344         12.2344 
        1.47263         53.1869         12.1158         12.1158 
        1.47877         53.0296         11.9989         11.9989 
        1.48491         52.7518         11.8833         11.8833 
        1.49104         52.3702         11.7695         11.7695 
        1.49718         51.9771         11.6571         11.6571 
        1.50333         51.8232          11.546          11.546 
        1.50947         51.5277         11.4367         11.4367 
         1.5156         51.2357         11.3289         11.3289 
        1.52172         50.9778         11.2225         11.2225 
        1.52787         50.9048         11.1172         11.1172 
          1.534         50.5243         11.0135         11.0135 
        1.54013         50.2386         10.9112         10.9112 
        1.54627         50.0956           10.81           10.81 
        1.55241         49.7562         10.7101         10.7101 
        1.55855         49.4137         10.6116         10.6116 
        1.56467         49.0484         10.5146         10.5146 
         1.5708         49.0364         10.4186         10.4186 
        1.57695         48.6975         10.3236         10.3236 
        1.58308         48.5794         10.2301         10.2301 
        1.58922         48.4107         10.1376         10.1376 
        1.59535         48.0751         10.0463         10.0463 
         1.6015          47.745         9.95607         9.95607 
        1.60764         47.6076         9.86696         9.86696 
        1.61376         47.3828          9.7792          9.7792 
        1.61989         46.9303         9.69245         9.69245 
        1.62604         46.8681         9.60656         9.60656 
        1.63218         46.6401         9.52177         9.52177 
        1.63831         46.3858         9.43821         9.43821 
        1.64444         46.2075         9.35563         9.35563 
        1.65059         45.7814         9.27385         9.27385 
        1.65673         45.6303         9.19314         9.19314 
        1.66285         45.4584         9.11362         9.11362 
        1.66898         45.1727         9.03503         9.03503 
        1.67512         44.9571         8.95722         8.95722 
        1.68127         44.6719         8.88026         8.88026 
         1.6874         44.5948         8.80438         8.80438 
        1.69353         44.2733         8.72944         8.72944 
        1.69967         44.1164          8.6552          8.6552 
        1.70581         43.9862         8.58186         8.58186 
        1.71193         43.6683         8.50966         8.50966 
        1.71806            43.4         8.43813         8.43813 
        1.72421         43.1939         8.36729         8.36729 
        1.73035         42.9785         8.29735         8.29735 
        1.73649          42.762         8.22823         8.22823 
        1.74262         42.5887         8.15996         8.15996 
        1.74876         42.5506         8.09243         8.09243 
        1.75489         42.1613          8.0258          8.0258 
        1.76101         42.0034         7.95995         7.95995 
        1.76715         41.7679         7.89475         7.89475 
        1.77329          41.544          7.8302          7.8302 
        1.77943          41.442         7.76636         7.76636 
        1.78557         41.2257         7.70333         7.70333 
        1.79171         40.9668         7.64099         7.64099 
        1.79785         40.7739         7.57933         7.57933 
        1.80399         40.6124         7.51837         7.51837 
        1.81012          40.477         7.45817         7.45817 
        1.81625         40.1546         7.39866         7.39866 
        1.82239         40.0457         7.33972         7.33972 
        1.82853         39.7252         7.28145         7.28145 
        1.83466         39.6226         7.22387         7.22387 
        1.84078         39.3263         7.16699         7.16699 
        1.84692         39.2059         7.11062         7.11062 
        1.85306          39.002          7.0548          7.0548 
         1.8592         38.8303         6.99967         6.99967 
        1.86533         38.5835         6.94516         6.94516 
        1.87147         38.4795         6.89117         6.89117 
