# k  (h/Mpc)    P(k)  (Mpc/h)^3    P_linear(k)  (Mpc/h)^3     P_NL(k)  ShotnoiseSubtracted = false
     0.00783031         530.464         535.436         535.436 
       0.013688          675.78         677.445         677.445 
       0.019231         698.168         698.465         698.465 
      0.0249154         654.979         657.933         657.933 
      0.0312784         582.599         582.961         582.961 
      0.0375637         509.746           508.7           508.7 
      0.0433917         452.196         452.568         452.568 
      0.0492413         411.081         410.727         410.727 
      0.0555754         376.818          377.93          377.93 
      0.0619321         352.543          351.51          351.51 
       0.067871         326.645         327.428         327.428 
      0.0738098         300.379         301.305         301.305 
      0.0800417         270.566          271.86          271.86 
      0.0862327         242.289         242.799         242.799 
      0.0921407         217.786         217.807         217.807 
      0.0982031         196.347         196.738         196.738 
       0.104506         180.861         180.231         180.231 
       0.110769         168.799         168.402         168.402 
       0.116806         159.347         159.707         159.707 
       0.122832         152.102         151.966         151.966 
       0.129052         143.152         143.603         143.603 
       0.135211         133.861         134.359         134.359 
       0.141259         124.604         124.573         124.573 
       0.147318         115.241         114.786         114.786 
       0.153489         105.859         105.668         105.668 
       0.159709         98.2337         97.9447         97.9447 
       0.165845         92.7901         91.9319         91.9319 
       0.171974          87.519         87.2903         87.2903 
       0.178125         83.8209         83.5207         83.5207 
       0.184229         80.5898         80.1242         80.1242 
        0.19034         76.5274         76.6461         76.6461 
       0.196428         73.1824          72.904          72.904 
       0.202534         69.6584         68.9088         68.9088 
       0.208729         65.3206         64.8162         64.8162 
       0.214876         61.2269         60.9773         60.9773 
       0.220989          58.376         57.5829         57.5829 
       0.227147         54.9881         54.6809         54.6809 
        0.23329         52.6004         52.2674         52.2674 
       0.239377         50.6565          50.225          50.225 
       0.245482         48.5607         48.3662         48.3662 
       0.251667         47.0412         46.5328         46.5328 
       0.257832         45.1085          44.666          44.666 
       0.263955         43.2253         42.7592         42.7592 
       0.270079          41.375         40.8424         40.8424 
        0.27624         39.7557         38.9754         38.9754 
       0.282372         38.0163         37.2477         37.2477 
        0.28843         36.3228         35.7066         35.7066 
       0.294538         34.9364         34.3258         34.3258 
       0.300721         33.8729         33.0772         33.0772 
        0.30691           32.53         31.9318         31.9318 
       0.313033         31.4652         30.8544         30.8544 
       0.319153         30.1083         29.7992         29.7992 
       0.325316          29.459         28.7426         28.7426 
        0.33145         28.3324          27.701          27.701 
       0.337538         27.3555         26.6927         26.6927 
       0.343633         26.3269         25.7286         25.7286 
       0.349808         25.4829         24.8125         24.8125 
       0.355968         24.6591          23.967          23.967 
       0.362074         23.8483         23.1911         23.1911 
       0.368217         23.1228         22.4632         22.4632 
       0.374374          22.339         21.7721         21.7721 
       0.380519         21.7615         21.1076         21.1076 
       0.386598         21.1429         20.4681         20.4681 
       0.392688         20.5883         19.8417         19.8417 
        0.39888         19.9193         19.2219         19.2219 
       0.405048         19.3618         18.6264         18.6264 
       0.411186         18.8262         18.0596         18.0596 
       0.417313         18.1938         17.5224         17.5224 
       0.423458         17.7219         17.0129         17.0129 
       0.429607         17.1872         16.5294         16.5294 
       0.435692         16.7121         16.0734         16.0734 
       0.441815         16.3016         15.6333         15.6333 
       0.447964         15.9665         15.2062         15.2062 
       0.454126         15.4191         14.7911         14.7911 
       0.460267         15.0415         14.3902         14.3902 
       0.466387         14.5902         14.0035         14.0035 
        0.47254         14.2802         13.6283         13.6283 
       0.478662         13.9569         13.2693         13.2693 
       0.484765         13.5602         12.9263         12.9263 
       0.490885         13.2277         12.5965         12.5965 
       0.497035         13.0054         12.2781         12.2781 
       0.503198         12.6533          11.971          11.971 
       0.509342         12.3589         11.6757         11.6757 
       0.515458         12.0358         11.3913         11.3913 
       0.521598         11.7804         11.1145         11.1145 
       0.527764         11.4797         10.8451         10.8451 
       0.533884         11.2694         10.5862         10.5862 
           0.54         11.0029         10.3362         10.3362 
       0.546137         10.7775         10.0938         10.0938 
       0.552299         10.5457         9.85864         9.85864 
       0.558452         10.2414         9.63183         9.63183 
       0.564573         10.0764         9.41372         9.41372 
       0.570708         9.86512         9.20222         9.20222 
       0.576825         9.61243         8.99799         8.99799 
       0.582926         9.44503         8.80046         8.80046 
       0.589034         9.16815         8.60846         8.60846 
       0.595184         9.01313          8.4208          8.4208 
       0.601379         8.81721         8.23745         8.23745 
       0.607522          8.6758         8.06111         8.06111 
       0.613639         8.54181         7.89085         7.89085 
       0.619772         8.31273         7.72531         7.72531 
       0.625918         8.19709         7.56435         7.56435 
       0.632068         8.06041         7.40802         7.40802 
       0.638161         7.86142         7.25756         7.25756 
         0.6443         7.70126         7.11024         7.11024 
       0.650464         7.53103         6.96651         6.96651 
       0.656582          7.4429         6.82782         6.82782 
       0.662703         7.30075         6.69291         6.69291 
       0.668861         7.17433         6.56093         6.56093 
       0.675024         7.01739         6.43247         6.43247 
       0.681124         6.88409         6.30881         6.30881 
       0.687237          6.7787         6.18821         6.18821 
       0.693381         6.66476         6.07025         6.07025 
       0.699536         6.48688         5.95521         5.95521 
       0.705665         6.39237         5.84369         5.84369 
       0.711789         6.29034         5.73517         5.73517 
       0.717957          6.1704          5.6287          5.6287 
        0.72409         6.06213         5.52557         5.52557 
       0.730186         5.96979         5.42568         5.42568 
       0.736317         5.90014         5.32776         5.32776 
       0.742472          5.7984         5.23193         5.23193 
       0.748622         5.68831         5.13857         5.13857 
        0.75476         5.55952         5.04773         5.04773 
       0.760888         5.48601         4.95926         4.95926 
       0.767043         5.41997         4.87258         4.87258 
       0.773185         5.30323         4.78819         4.78819 
       0.779291          5.2397          4.7063          4.7063 
       0.785407         5.15121         4.62624         4.62624 
       0.791564         5.06859         4.54756         4.54756 
       0.797719         4.99259         4.47078         4.47078 
       0.803834          4.9284         4.39627         4.39627 
       0.809972         4.85752         4.32322         4.32322 
       0.816124         4.75822         4.25169         4.25169 
       0.822261         4.67596         4.18199         4.18199 
       0.828378          4.6206         4.11409         4.11409 
       0.834502         4.56753         4.04766         4.04766 
       0.840667         4.47219         3.98228         3.98228 
       0.846816         4.40204         3.91855         3.91855 
       0.852925         4.35889         3.85663         3.85663 
       0.859047         4.29274         3.79594         3.79594 
       0.865192         4.23604         3.73637         3.73637 
       0.871341         4.17792         3.67806         3.67806 
       0.877463         4.12196         3.62127         3.62127 
       0.883569         4.04444         3.56584         3.56584 
       0.889708         3.98036          3.5113          3.5113 
       0.895864         3.93368         3.45777         3.45777 
       0.902008         3.87378         3.40549         3.40549 
       0.908149         3.82591         3.35434         3.35434 
       0.914301         3.75493         3.30416         3.30416 
       0.920448         3.70553         3.25508         3.25508 
       0.926574         3.65141         3.20717         3.20717 
       0.932687          3.6117         3.16034         3.16034 
       0.938823          3.5691         3.11429         3.11429 
       0.944975         3.51718         3.06906         3.06906 
       0.951105         3.47485         3.02491         3.02491 
       0.957225         3.44869         2.98171         2.98171 
       0.963368         3.39298         2.93921         2.93921 
       0.969511         3.34234         2.89756         2.89756 
       0.975621         3.29102         2.85694         2.85694 
       0.981748         3.26061         2.81701         2.81701 
       0.987916         3.21545          2.7776          2.7776 
        0.99406         3.16239          2.7391          2.7391 
        1.00019         3.12822         2.70141         2.70141 
        1.00632         3.08815         2.66448         2.66448 
        1.01246          3.0527         2.62818         2.62818 
        1.01859         3.01569         2.59263         2.59263 
        1.02471         2.97494         2.55779         2.55779 
        1.03085         2.94156         2.52347         2.52347 
        1.03698          2.8997         2.48987         2.48987 
        1.04314         2.86926         2.45674         2.45674 
        1.04929         2.83021          2.4243          2.4243 
        1.05541          2.7985         2.39258         2.39258 
        1.06154         2.76476         2.36135         2.36135 
        1.06769         2.73701         2.33065         2.33065 
        1.07382         2.69986         2.30059         2.30059 
        1.07993         2.65927         2.27114         2.27114 
        1.08607         2.64271         2.24209         2.24209 
        1.09222          2.6061         2.21352         2.21352 
        1.09836         2.58491         2.18548         2.18548 
        1.10449         2.55263         2.15797         2.15797 
        1.11063         2.51618         2.13091         2.13091 
        1.11677         2.48742         2.10433         2.10433 
         1.1229         2.45869         2.07825         2.07825 
        1.12903         2.42878          2.0526          2.0526 
        1.13518         2.40915         2.02736         2.02736 
        1.14131         2.37138         2.00256         2.00256 
        1.14745          2.3336          1.9782          1.9782 
        1.15359         2.32224         1.95424         1.95424 
        1.15973         2.28503         1.93067         1.93067 
        1.16584         2.27559         1.90761         1.90761 
        1.17197         2.24535         1.88488         1.88488 
        1.17811         2.22181         1.86247         1.86247 
        1.18424         2.20519         1.84049         1.84049 
        1.19038         2.17537          1.8188          1.8188 
        1.19652         2.15124         1.79747         1.79747 
        1.20267         2.13271         1.77649         1.77649 
        1.20881         2.10267         1.75585         1.75585 
        1.21495         2.08735         1.73557         1.73557 
        1.22108         2.06521         1.71562         1.71562 
         1.2272         2.04861         1.69604         1.69604 
        1.23334         2.01985         1.67672         1.67672 
        1.23949         1.99728         1.65766         1.65766 
        1.24562         1.98332         1.63894         1.63894 
        1.25174         1.95805         1.62055         1.62055 
        1.25789         1.94082         1.60239         1.60239 
        1.26402         1.91414         1.58454         1.58454 
        1.27014         1.89538         1.56701         1.56701 
        1.27628         1.88604          1.5497          1.5497 
        1.28244         1.85736         1.53261         1.53261 
        1.28858         1.84309         1.51581         1.51581 
        1.29471         1.82421          1.4993          1.4993 
        1.30084         1.80365         1.48305         1.48305 
        1.30697         1.79014         1.46702         1.46702 
        1.31312         1.76105         1.45121         1.45121 
        1.31925         1.75264         1.43568         1.43568 
        1.32537         1.73593         1.42039         1.42039 
        1.33151         1.72214         1.40528         1.40528 
        1.33765         1.70022         1.39039         1.39039 
        1.34378         1.68168         1.37576         1.37576 
        1.34992          1.6734         1.36132         1.36132 
        1.35606         1.64959         1.34706         1.34706 
         1.3622         1.63918         1.33304         1.33304 
        1.36833         1.62239         1.31925         1.31925 
        1.37445         1.60356         1.30566         1.30566 
        1.38059         1.59086         1.29222         1.29222 
        1.38675         1.58478         1.27895         1.27895 
        1.39288         1.56145         1.26591         1.26591 
        1.39901         1.54663         1.25306         1.25306 
        1.40515         1.53421         1.24037         1.24037 
         1.4113         1.51946         1.22785         1.22785 
        1.41742         1.50607         1.21556         1.21556 
        1.42355         1.49887         1.20342         1.20342 
         1.4297         1.47719          1.1914          1.1914 
        1.43585         1.46784         1.17956         1.17956 
        1.44198         1.45875         1.16792         1.16792 
        1.44809          1.4377         1.15646         1.15646 
        1.45423         1.42674         1.14512         1.14512 
        1.46036         1.41457         1.13395         1.13395 
        1.46649          1.4011         1.12293         1.12293 
        1.47263         1.38716         1.11204         1.11204 
        1.47877         1.37382         1.10131         1.10131 
        1.48491         1.36304          1.0907          1.0907 
        1.49104         1.35218         1.08026         1.08026 
        1.49718         1.34287         1.06994         1.06994 
        1.50333         1.32833         1.05975         1.05975 
        1.50947         1.31954         1.04971         1.04971 
         1.5156          1.3072         1.03981         1.03981 
        1.52172         1.29542         1.03005         1.03005 
        1.52787          1.2832         1.02039         1.02039 
          1.534         1.27573         1.01086         1.01086 
        1.54013         1.26025         1.00147         1.00147 
        1.54627         1.24891        0.992187        0.992187 
        1.55241         1.23921        0.983017        0.983017 
        1.55855         1.22974        0.973977        0.973977 
        1.56467         1.22098        0.965076        0.965076 
         1.5708          1.2063        0.956262        0.956262 
        1.57695         1.20131        0.947546        0.947546 
        1.58308          1.1903        0.938959        0.938959 
        1.58922         1.18068        0.930473        0.930473 
        1.59535         1.17086        0.922096        0.922096 
         1.6015         1.16153        0.913811        0.913811 
        1.60764         1.15349        0.905632        0.905632 
        1.61376         1.14225        0.897577        0.897577 
        1.61989         1.13356        0.889615        0.889615 
        1.62604         1.12388        0.881731        0.881731 
        1.63218         1.11802        0.873949        0.873949 
        1.63831         1.10538         0.86628         0.86628 
        1.64444         1.09636          0.8587          0.8587 
        1.65059         1.08951        0.851194        0.851194 
        1.65673         1.07992        0.843786        0.843786 
        1.66285         1.07025        0.836488        0.836488 
        1.66898         1.06517        0.829274        0.829274 
        1.67512         1.05296        0.822132        0.822132 
        1.68127         1.04616        0.815068        0.815068 
         1.6874         1.04029        0.808104        0.808104 
        1.69353         1.02905        0.801226        0.801226 
        1.69967         1.02117        0.794412        0.794412 
        1.70581         1.01595         0.78768         0.78768 
        1.71193         1.00674        0.781053        0.781053 
        1.71806         1.00058        0.774488        0.774488 
        1.72421        0.992043        0.767986        0.767986 
        1.73035        0.982901        0.761567        0.761567 
        1.73649        0.977958        0.755223        0.755223 
        1.74262         0.97005        0.748957        0.748957 
        1.74876        0.961987        0.742758        0.742758 
        1.75489        0.953544        0.736642        0.736642 
        1.76101        0.946538        0.730598        0.730598 
        1.76715        0.940368        0.724614        0.724614 
        1.77329        0.933584         0.71869         0.71869 
        1.77943        0.925491         0.71283         0.71283 
        1.78557        0.918616        0.707045        0.707045 
        1.79171        0.913629        0.701323        0.701323 
        1.79785        0.905942        0.695664        0.695664 
        1.80399         0.89979        0.690069        0.690069 
        1.81012        0.894209        0.684544        0.684544 
        1.81625        0.885691        0.679081        0.679081 
        1.82239         0.88078        0.673671        0.673671 
        1.82853        0.870598        0.668323        0.668323 
        1.83466        0.866715        0.663039        0.663039 
        1.84078        0.859963        0.657817        0.657817 
        1.84692        0.855828        0.652644        0.652644 
        1.85306        0.848542         0.64752         0.64752 
         1.8592        0.843506         0.64246         0.64246 
        1.86533        0.836733        0.637457        0.637457 
        1.87147        0.831057        0.632502        0.632502 
        1.87761        0.825492        0.627598        0.627598 
