# k  (h/Mpc)    P(k)  (Mpc/h)^3    P_linear(k)  (Mpc/h)^3     P_NL(k)  ShotnoiseSubtracted = false
     0.00783031         10164.8         10302.2         10302.2 
       0.013688         13112.3         13023.6         13023.6 
       0.019231         13437.6         13423.1         13423.1 
      0.0249154         12415.4         12641.8         12641.8 
      0.0312784         11091.8         11199.8         11199.8 
      0.0375637         9760.08          9772.4          9772.4 
      0.0433917         8546.46         8693.68         8693.68 
      0.0492413         7822.24         7889.66         7889.66 
      0.0555754         7052.69         7259.46         7259.46 
      0.0619321         6740.72         6751.84         6751.84 
       0.067871         6124.58         6289.17         6289.17 
      0.0738098         5634.21         5787.35         5787.35 
      0.0800417         5035.58         5221.73         5221.73 
      0.0862327         4554.09          4663.5          4663.5 
      0.0921407         4150.25         4183.46         4183.46 
      0.0982031          3731.6         3778.76         3778.76 
       0.104506         3511.36         3461.68         3461.68 
       0.110769         3270.62         3234.48         3234.48 
       0.116806         3080.53         3067.46         3067.46 
       0.122832         2943.13         2918.78         2918.78 
       0.129052         2732.02         2758.13         2758.13 
       0.135211         2572.87         2580.58         2580.58 
       0.141259            2438         2392.62         2392.62 
       0.147318         2281.82         2204.66         2204.66 
       0.153489         2091.33         2029.53         2029.53 
       0.159709         1977.87         1881.18         1881.18 
       0.165845         1903.81         1765.69         1765.69 
       0.171974         1800.22         1676.54         1676.54 
       0.178125         1719.62         1604.14         1604.14 
       0.184229         1654.03          1538.9          1538.9 
        0.19034         1552.37          1472.1          1472.1 
       0.196428         1519.52         1400.22         1400.22 
       0.202534         1461.71         1323.49         1323.49 
       0.208729         1387.43         1244.89         1244.89 
       0.214876         1318.79         1171.15         1171.15 
       0.220989         1276.72         1105.96         1105.96 
       0.227147         1215.72         1050.22         1050.22 
        0.23329         1170.52         1003.87         1003.87 
       0.239377          1150.4         964.639         964.639 
       0.245482         1077.92         928.937         928.937 
       0.251667         1069.66         893.724         893.724 
       0.257832         1029.32         857.869         857.869 
       0.263955         994.761         821.248         821.248 
       0.270079         959.998         784.431         784.431 
        0.27624         948.415         748.574         748.574 
       0.282372         908.026          715.39          715.39 
        0.28843          893.66         685.791         685.791 
       0.294538         850.214         659.271         659.271 
       0.300721         847.195         635.291         635.291 
        0.30691         810.017         613.292         613.292 
       0.313033         794.695         592.598         592.598 
       0.319153         775.609         572.331         572.331 
       0.325316         751.568         552.037         552.037 
        0.33145         732.077         532.034         532.034 
       0.337538         722.036         512.666         512.666 
       0.343633         701.124          494.15          494.15 
       0.349808         677.966         476.556         476.556 
       0.355968         673.666         460.316         460.316 
       0.362074         663.126         445.415         445.415 
       0.368217         644.601         431.435         431.435 
       0.374374         618.119         418.161         418.161 
       0.380519         615.828         405.397         405.397 
       0.386598         600.698         393.115         393.115 
       0.392688         598.033         381.084         381.084 
        0.39888         580.716          369.18          369.18 
       0.405048         570.139         357.744         357.744 
       0.411186         560.814         346.857         346.857 
       0.417313         550.394         336.539         336.539 
       0.423458         540.868         326.754         326.754 
       0.429607         531.181         317.467         317.467 
       0.435692         519.107          308.71          308.71 
       0.441815         515.577         300.256         300.256 
       0.447964         504.738         292.054         292.054 
       0.454126         492.907         284.082         284.082 
       0.460267         485.322         276.382         276.382 
       0.466387         480.134         268.955         268.955 
        0.47254         470.638         261.747         261.747 
       0.478662         469.597         254.853         254.853 
       0.484765         455.202         248.266         248.266 
       0.490885         450.937         241.931         241.931 
       0.497035         442.787         235.815         235.815 
       0.503198         436.313         229.918         229.918 
       0.509342         432.814         224.246         224.246 
       0.515458         428.818         218.784         218.784 
       0.521598         419.587         213.468         213.468 
       0.527764         411.616         208.293         208.293 
       0.533884         409.623         203.321         203.321 
           0.54         404.153         198.519         198.519 
       0.546137         402.411         193.864         193.864 
       0.552299          394.41         189.347         189.347 
       0.558452         392.122         184.991         184.991 
       0.564573         386.043         180.802         180.802 
       0.570708         379.925          176.74          176.74 
       0.576825         372.584         172.817         172.817 
       0.582926         370.821         169.024         169.024 
       0.589034         367.173         165.336         165.336 
       0.595184          363.63         161.732         161.732 
       0.601379         359.521          158.21          158.21 
       0.607522         353.892         154.823         154.823 
       0.613639         352.322         151.553         151.553 
       0.619772         343.687         148.374         148.374 
       0.625918         342.876         145.282         145.282 
       0.632068         337.699          142.28          142.28 
       0.638161         336.391          139.39          139.39 
         0.6443         330.415         136.561         136.561 
       0.650464         327.778           133.8           133.8 
       0.656582         326.362         131.136         131.136 
       0.662703         324.068         128.545         128.545 
       0.668861         318.243         126.011         126.011 
       0.675024         315.021         123.543         123.543 
       0.681124         313.502         121.168         121.168 
       0.687237         309.942         118.852         118.852 
       0.693381         305.578         116.586         116.586 
       0.699536          302.99         114.377         114.377 
       0.705665         300.715         112.235         112.235 
       0.711789         297.887         110.151         110.151 
       0.717957         295.674         108.106         108.106 
        0.72409         292.772         106.125         106.125 
       0.730186         289.571         104.207         104.207 
       0.736317          286.79         102.326         102.326 
       0.742472         285.479         100.485         100.485 
       0.748622         282.782         98.6925         98.6925 
        0.75476         280.175         96.9477         96.9477 
       0.760888         276.717         95.2485         95.2485 
       0.767043          276.79         93.5838         93.5838 
       0.773185         273.181         91.9629         91.9629 
       0.779291         268.611         90.3902         90.3902 
       0.785407         267.946         88.8525         88.8525 
       0.791564         265.088         87.3414         87.3414 
       0.797719         262.663         85.8666         85.8666 
       0.803834         260.978         84.4357         84.4357 
       0.809972         259.116         83.0326         83.0326 
       0.816124          259.18         81.6588         81.6588 
       0.822261         255.048         80.3202         80.3202 
       0.828378         253.253          79.016          79.016 
       0.834502         252.683         77.7401         77.7401 
       0.840667         248.784         76.4844         76.4844 
       0.846816         247.407         75.2604         75.2604 
       0.852925         246.044         74.0712         74.0712 
       0.859047         244.078         72.9055         72.9055 
       0.865192         241.788         71.7614         71.7614 
       0.871341          239.69         70.6414         70.6414 
       0.877463         238.054         69.5507         69.5507 
       0.883569          236.84         68.4861         68.4861 
       0.889708         234.564         67.4386         67.4386 
       0.895864         231.722         66.4107         66.4107 
       0.902008         231.203         65.4065         65.4065 
       0.908149         230.056          64.424          64.424 
       0.914301         227.088         63.4604         63.4604 
       0.920448         225.417         62.5176         62.5176 
       0.926574         224.122         61.5975         61.5975 
       0.932687          223.89         60.6981         60.6981 
       0.938823         221.157         59.8136         59.8136 
       0.944975         219.646          58.945          58.945 
       0.951105         218.515         58.0969         58.0969 
       0.957225         216.361         57.2672         57.2672 
       0.963368         213.797         56.4511         56.4511 
       0.969511         212.988         55.6511         55.6511 
       0.975621         211.194          54.871          54.871 
       0.981748          211.31         54.1041         54.1041 
       0.987916         208.763         53.3471         53.3471 
        0.99406          206.89         52.6077         52.6077 
        1.00019         206.762         51.8838         51.8838 
        1.00632         204.804         51.1744         51.1744 
        1.01246         203.355         50.4774         50.4774 
        1.01859         202.589         49.7946         49.7946 
        1.02471         200.669         49.1254         49.1254 
        1.03085         198.433         48.4663         48.4663 
        1.03698           197.6         47.8209         47.8209 
        1.04314         196.106         47.1846         47.1846 
        1.04929         194.699         46.5615         46.5615 
        1.05541         194.273         45.9523         45.9523 
        1.06154         192.491         45.3526         45.3526 
        1.06769         192.172         44.7628         44.7628 
        1.07382         190.603         44.1856         44.1856 
        1.07993         188.874         43.6199         43.6199 
        1.08607         188.111         43.0619         43.0619 
        1.09222         187.038         42.5132         42.5132 
        1.09836         185.287         41.9748         41.9748 
        1.10449         183.579         41.4464         41.4464 
        1.11063         182.151         40.9267         40.9267 
        1.11677         181.891         40.4161         40.4161 
         1.1229         180.246         39.9153         39.9153 
        1.12903         179.296         39.4225         39.4225 
        1.13518         178.539         38.9378         38.9378 
        1.14131         176.835         38.4615         38.4615 
        1.14745         176.401         37.9936         37.9936 
        1.15359         175.012         37.5335         37.5335 
        1.15973         174.342         37.0809         37.0809 
        1.16584         172.401         36.6378         36.6378 
        1.17197         171.901         36.2014         36.2014 
        1.17811          170.75         35.7709         35.7709 
        1.18424         169.773         35.3487         35.3487 
        1.19038         169.231         34.9321         34.9321 
        1.19652         167.899         34.5225         34.5225 
        1.20267         167.093         34.1195         34.1195 
        1.20881         165.535         33.7231         33.7231 
        1.21495         164.921         33.3337         33.3337 
        1.22108         164.038         32.9506         32.9506 
         1.2272         162.539         32.5744         32.5744 
        1.23334         161.859         32.2033         32.2033 
        1.23949         160.464         31.8372         31.8372 
        1.24562         159.804         31.4779         31.4779 
        1.25174         157.934         31.1246         31.1246 
        1.25789         157.308         30.7758         30.7758 
        1.26402         156.536          30.433          30.433 
        1.27014         155.466         30.0963         30.0963 
        1.27628          154.68         29.7638         29.7638 
        1.28244         154.153         29.4356         29.4356 
        1.28858         153.187         29.1129         29.1129 
        1.29471         151.483         28.7958         28.7958 
        1.30084         150.924         28.4838         28.4838 
        1.30697         150.007         28.1759         28.1759 
        1.31312         149.464         27.8721         27.8721 
        1.31925         148.303         27.5739         27.5739 
        1.32537         147.519         27.2803         27.2803 
        1.33151         146.111           26.99           26.99 
        1.33765         145.758         26.7041         26.7041 
        1.34378         144.713          26.423          26.423 
        1.34992         144.275         26.1458         26.1458 
        1.35606         143.444         25.8719         25.8719 
         1.3622         142.334         25.6025         25.6025 
        1.36833          141.39         25.3377         25.3377 
        1.37445          140.42         25.0767         25.0767 
        1.38059         139.987         24.8187         24.8187 
        1.38675         138.952         24.5637         24.5637 
        1.39288         138.442         24.3133         24.3133 
        1.39901         137.961         24.0665         24.0665 
        1.40515         136.756         23.8227         23.8227 
         1.4113         135.468         23.5824         23.5824 
        1.41742         135.123         23.3463         23.3463 
        1.42355         134.182          23.113          23.113 
         1.4297         133.412         22.8823         22.8823 
        1.43585         132.164         22.6548         22.6548 
        1.44198         132.081         22.4313         22.4313 
        1.44809         131.058         22.2112         22.2112 
        1.45423         130.071         21.9934         21.9934 
        1.46036         129.697         21.7788         21.7788 
        1.46649         128.765         21.5671         21.5671 
        1.47263         128.247         21.3581         21.3581 
        1.47877         127.585         21.1519         21.1519 
        1.48491         126.243         20.9482         20.9482 
        1.49104             126         20.7476         20.7476 
        1.49718          124.76         20.5495         20.5495 
        1.50333         124.348         20.3536         20.3536 
        1.50947          123.74         20.1608         20.1608 
         1.5156         122.942         19.9708         19.9708 
        1.52172         122.094         19.7832         19.7832 
        1.52787         121.559         19.5977         19.5977 
          1.534         120.816         19.4148         19.4148 
        1.54013         119.925         19.2345         19.2345 
        1.54627         119.482         19.0561         19.0561 
        1.55241         118.594           18.88           18.88 
        1.55855         118.096         18.7064         18.7064 
        1.56467         117.554         18.5354         18.5354 
         1.5708         116.677         18.3661         18.3661 
        1.57695         116.246         18.1987         18.1987 
        1.58308         115.361         18.0338         18.0338 
        1.58922         115.025         17.8708         17.8708 
        1.59535         114.148         17.7099         17.7099 
         1.6015          113.65         17.5508         17.5508 
        1.60764         112.902         17.3937         17.3937 
        1.61376         112.634          17.239          17.239 
        1.61989         111.651         17.0861         17.0861 
        1.62604         111.188         16.9347         16.9347 
        1.63218         110.549         16.7852         16.7852 
        1.63831         109.695         16.6379         16.6379 
        1.64444         109.329         16.4923         16.4923 
        1.65059         108.713         16.3482         16.3482 
        1.65673         107.629         16.2059         16.2059 
        1.66285         107.593         16.0657         16.0657 
        1.66898         106.774         15.9272         15.9272 
        1.67512         106.265           15.79           15.79 
        1.68127         105.545         15.6543         15.6543 
         1.6874         104.761         15.5206         15.5206 
        1.69353         104.271         15.3885         15.3885 
        1.69967         103.869         15.2576         15.2576 
        1.70581         103.216         15.1283         15.1283 
        1.71193         102.867          15.001          15.001 
        1.71806         102.034         14.8749         14.8749 
        1.72421         101.497         14.7501         14.7501 
        1.73035         100.936         14.6268         14.6268 
        1.73649         100.284         14.5049         14.5049 
        1.74262         99.7378         14.3846         14.3846 
        1.74876          99.395         14.2655         14.2655 
        1.75489         98.4893         14.1481         14.1481 
        1.76101         98.2281          14.032          14.032 
        1.76715         97.4019          13.917          13.917 
        1.77329         97.1388         13.8033         13.8033 
        1.77943          96.352         13.6907         13.6907 
        1.78557         96.0188         13.5796         13.5796 
        1.79171         95.3706         13.4697         13.4697 
        1.79785         94.8697          13.361          13.361 
        1.80399          94.392         13.2536         13.2536 
        1.81012         93.9561         13.1474         13.1474 
        1.81625          93.256         13.0425         13.0425 
        1.82239         92.9795         12.9386         12.9386 
        1.82853          92.582         12.8359         12.8359 
        1.83466         91.8046         12.7344         12.7344 
        1.84078         91.6569         12.6341         12.6341 
        1.84692         90.7768         12.5348         12.5348 
        1.85306          90.225         12.4364         12.4364 
         1.8592         89.7739         12.3392         12.3392 
        1.86533         89.3596         12.2431         12.2431 
        1.87147         88.5726         12.1479         12.1479 
        1.87761         88.3573         12.0537         12.0537 
