# k  (h/Mpc)    Pcb(k)  (Mpc/h)^3    Pcb_linear(k) (Mpc/h)^3    Pcb_NL(k) (Mpc/h)^3   ShotnoiseSubtracted = false
     0.00783031         1873.31         1892.66         1892.66 
       0.013688         2394.37          2393.9          2393.9 
       0.019231            2469         2467.89         2467.89 
      0.0249154          2307.8         2324.53         2324.53 
      0.0312784          2055.8         2059.57         2059.57 
      0.0375637         1801.42         1797.16         1797.16 
      0.0433917         1593.22         1598.84         1598.84 
      0.0492413         1450.94         1451.01         1451.01 
      0.0555754         1325.27         1335.13         1335.13 
      0.0619321         1247.15         1241.79         1241.79 
       0.067871         1150.13         1156.71         1156.71 
      0.0738098         1057.46         1064.42         1064.42 
      0.0800417         950.758         960.396         960.396 
      0.0862327         853.377         857.731         857.731 
      0.0921407         769.073         769.442         769.442 
      0.0982031         692.348          695.01          695.01 
       0.104506         641.293         636.695         636.695 
       0.110769         598.224         594.908         594.908 
       0.116806          563.37          564.19          564.19 
       0.122832         538.892         536.844         536.844 
       0.129052         505.343         507.298         507.298 
       0.135211         473.008         474.642         474.642 
       0.141259         442.144         440.071         440.071 
       0.147318         410.116         405.499         405.499 
       0.153489          376.23         373.289         373.289 
       0.159709         350.471         346.003         346.003 
       0.165845         332.731         324.762         324.762 
       0.171974         313.112         308.365         308.365 
       0.178125         300.106         295.048         295.048 
       0.184229         288.928          283.05          283.05 
        0.19034         272.565         270.763         270.763 
       0.196428          262.59         257.543         257.543 
       0.202534         251.259          243.43          243.43 
       0.208729         235.756         228.972         228.972 
       0.214876         220.874          215.41          215.41 
       0.220989         212.049         203.419         203.419 
       0.227147          199.29         193.168         193.168 
        0.23329         191.045         184.641         184.641 
       0.239377         184.905         177.426         177.426 
       0.245482         175.788          170.86          170.86 
       0.251667         171.591         164.383         164.383 
       0.257832          165.06         157.788         157.788 
       0.263955         158.235         151.053         151.053 
       0.270079         151.888         144.281         144.281 
        0.27624         147.118         137.686         137.686 
       0.282372         140.898         131.582         131.582 
        0.28843         134.873         126.138         126.138 
       0.294538         129.691          121.26          121.26 
       0.300721         126.713          116.85          116.85 
        0.30691         121.349         112.803         112.803 
       0.313033         117.669         108.997         108.997 
       0.319153         112.305         105.269         105.269 
       0.325316         110.348         101.537         101.537 
        0.33145         106.123         97.8576         97.8576 
       0.337538         103.313         94.2953         94.2953 
       0.343633         99.6065         90.8896         90.8896 
       0.349808         96.5794         87.6535         87.6535 
       0.355968         93.8649         84.6663         84.6663 
       0.362074         90.9409         81.9258         81.9258 
       0.368217         88.3351         79.3542         79.3542 
       0.374374         85.6817         76.9127         76.9127 
       0.380519         83.5456         74.5651         74.5651 
       0.386598         81.2543         72.3058         72.3058 
       0.392688         79.5151         70.0933         70.0933 
        0.39888         77.1496         67.9036         67.9036 
       0.405048         75.2706         65.8002         65.8002 
       0.411186         73.4929         63.7977         63.7977 
       0.417313         71.0979         61.9001         61.9001 
       0.423458         69.3415         60.1003         60.1003 
       0.429607         67.4765         58.3921         58.3921 
       0.435692         65.4251         56.7814         56.7814 
       0.441815         64.4231         55.2264         55.2264 
       0.447964         63.3213         53.7178         53.7178 
       0.454126           60.78         52.2515         52.2515 
       0.460267         59.7169         50.8353         50.8353 
       0.466387         58.0666         49.4692         49.4692 
        0.47254         57.1569         48.1435         48.1435 
       0.478662         56.1216         46.8755         46.8755 
       0.484765         54.5645         45.6638         45.6638 
       0.490885         53.3498         44.4987         44.4987 
       0.497035         52.5914         43.3738         43.3738 
       0.503198         51.2374         42.2891         42.2891 
       0.509342         49.9478         41.2458         41.2458 
       0.515458         48.9412         40.2412         40.2412 
       0.521598         48.1529         39.2634         39.2634 
       0.527764         47.1583         38.3116         38.3116 
       0.533884         46.3292         37.3972         37.3972 
           0.54          45.373         36.5139         36.5139 
       0.546137         44.6509         35.6576         35.6576 
       0.552299          43.935         34.8269         34.8269 
       0.558452          42.595         34.0256         34.0256 
       0.564573         41.9743         33.2551         33.2551 
       0.570708         41.3435          32.508          32.508 
       0.576825         40.3291         31.7865         31.7865 
       0.582926         39.5995         31.0887         31.0887 
       0.589034         38.5581         30.4105         30.4105 
       0.595184         38.0705         29.7475         29.7475 
       0.601379         37.4232         29.0998         29.0998 
       0.607522         36.6943         28.4769         28.4769 
       0.613639         36.3806         27.8754         27.8754 
       0.619772         35.4351         27.2906         27.2906 
       0.625918         35.2418          26.722          26.722 
       0.632068         34.6647         26.1697         26.1697 
       0.638161         33.9441         25.6382         25.6382 
         0.6443         33.2846         25.1178         25.1178 
       0.650464         32.7081         24.6101         24.6101 
       0.656582         32.4945         24.1201         24.1201 
       0.662703         31.8703         23.6435         23.6435 
       0.668861         31.3024         23.1773         23.1773 
       0.675024         30.7617         22.7235         22.7235 
       0.681124         30.2367         22.2866         22.2866 
       0.687237          29.729         21.8606         21.8606 
       0.693381         29.4625         21.4439         21.4439 
       0.699536         28.7333         21.0375         21.0375 
       0.705665         28.6281         20.6436         20.6436 
       0.711789         28.0034         20.2602         20.2602 
       0.717957         27.6418         19.8841         19.8841 
        0.72409         27.2277         19.5198         19.5198 
       0.730186         26.8549         19.1669         19.1669 
       0.736317         26.5683          18.821          18.821 
       0.742472         26.1098         18.4824         18.4824 
       0.748622         25.8364         18.1526         18.1526 
        0.75476         25.3549         17.8317         17.8317 
       0.760888         25.0337         17.5192         17.5192 
       0.767043         24.7328          17.213          17.213 
       0.773185         24.2847         16.9149         16.9149 
       0.779291         24.1423         16.6256         16.6256 
       0.785407         23.8399         16.3428         16.3428 
       0.791564         23.4012         16.0648         16.0648 
       0.797719         22.9433         15.7936         15.7936 
       0.803834          22.885         15.5304         15.5304 
       0.809972         22.6682         15.2723         15.2723 
       0.816124         22.1159         15.0196         15.0196 
       0.822261          21.959         14.7734         14.7734 
       0.828378         21.7191         14.5335         14.5335 
       0.834502         21.4866         14.2988         14.2988 
       0.840667         21.1997         14.0679         14.0679 
       0.846816         20.8309         13.8428         13.8428 
       0.852925         20.6441          13.624          13.624 
       0.859047         20.4062         13.4096         13.4096 
       0.865192         20.2097         13.1992         13.1992 
       0.871341          20.041         12.9932         12.9932 
       0.877463         19.6813         12.7926         12.7926 
       0.883569         19.4219         12.5968         12.5968 
       0.889708         19.1415         12.4041         12.4041 
       0.895864         19.0203          12.215          12.215 
       0.902008         18.8631         12.0303         12.0303 
       0.908149         18.6466         11.8496         11.8496 
       0.914301         18.5015         11.6724         11.6724 
       0.920448         18.1353          11.499          11.499 
       0.926574         17.9924         11.3297         11.3297 
       0.932687         17.8017         11.1643         11.1643 
       0.938823         17.5702         11.0016         11.0016 
       0.944975         17.3616         10.8418         10.8418 
       0.951105         17.2286         10.6859         10.6859 
       0.957225         17.0637         10.5332         10.5332 
       0.963368         16.8789         10.3831         10.3831 
       0.969511         16.7383          10.236          10.236 
       0.975621         16.5797         10.0925         10.0925 
       0.981748         16.3686         9.95144         9.95144 
       0.987916         16.2425         9.81222         9.81222 
        0.99406         16.0266         9.67621         9.67621 
        1.00019         15.7927         9.54307         9.54307 
        1.00632         15.7675         9.41259         9.41259 
        1.01246         15.5964         9.28438         9.28438 
        1.01859         15.3582         9.15879         9.15879 
        1.02471         15.2863         9.03571         9.03571 
        1.03085         15.1383         8.91448         8.91448 
        1.03698          14.896         8.79577         8.79577 
        1.04314         14.8149         8.67873         8.67873 
        1.04929         14.6222         8.56413         8.56413 
        1.05541         14.4677         8.45207         8.45207 
        1.06154         14.3609         8.34177         8.34177 
        1.06769         14.2886         8.23329         8.23329 
        1.07382         14.0934         8.12712         8.12712 
        1.07993         13.9985         8.02308         8.02308 
        1.08607         13.8498         7.92045         7.92045 
        1.09222         13.7367         7.81952         7.81952 
        1.09836         13.5699         7.72049         7.72049 
        1.10449         13.4804         7.62331         7.62331 
        1.11063          13.341         7.52771         7.52771 
        1.11677         13.2702          7.4338          7.4338 
         1.1229         13.1742         7.34168         7.34168 
        1.12903         13.0186         7.25105         7.25105 
        1.13518         12.8646         7.16189         7.16189 
        1.14131         12.7798         7.07429         7.07429 
        1.14745         12.6693         6.98823         6.98823 
        1.15359         12.5836         6.90359         6.90359 
        1.15973         12.4734         6.82034         6.82034 
        1.16584         12.2903         6.73885         6.73885 
        1.17197         12.2324         6.65859         6.65859 
        1.17811         12.1544          6.5794          6.5794 
        1.18424         12.0408         6.50174         6.50174 
        1.19038          11.983         6.42512         6.42512 
        1.19652          11.856         6.34978         6.34978 
        1.20267         11.7251         6.27566         6.27566 
        1.20881         11.6997         6.20275         6.20275 
        1.21495         11.5999         6.13113         6.13113 
        1.22108         11.4588         6.06065         6.06065 
         1.2272         11.3802         5.99147         5.99147 
        1.23334         11.2619         5.92321         5.92321 
        1.23949         11.1743         5.85587         5.85587 
        1.24562         11.1253         5.78977         5.78977 
        1.25174           11.04          5.7248          5.7248 
        1.25789          10.955         5.66065         5.66065 
        1.26402         10.9018         5.59759         5.59759 
        1.27014         10.7999         5.53566         5.53566 
        1.27628         10.6637          5.4745          5.4745 
        1.28244         10.5834         5.41414         5.41414 
        1.28858         10.5705         5.35479         5.35479 
        1.29471         10.4537         5.29646         5.29646 
        1.30084         10.3518         5.23906         5.23906 
        1.30697         10.3334         5.18244         5.18244 
        1.31312         10.1764         5.12657         5.12657 
        1.31925         10.1164         5.07171         5.07171 
        1.32537         10.0576         5.01771         5.01771 
        1.33151         10.0052         4.96432         4.96432 
        1.33765         9.90894         4.91174         4.91174 
        1.34378         9.83129         4.86003         4.86003 
        1.34992         9.75991         4.80903         4.80903 
        1.35606         9.70478         4.75867         4.75867 
         1.3622         9.64468         4.70912         4.70912 
        1.36833         9.55726          4.6604          4.6604 
        1.37445         9.50282          4.6124          4.6124 
        1.38059         9.46278         4.56494         4.56494 
        1.38675         9.36768         4.51803         4.51803 
        1.39288         9.31534         4.47198         4.47198 
        1.39901         9.21726          4.4266          4.4266 
        1.40515         9.18388         4.38175         4.38175 
         1.4113         9.12176         4.33754         4.33754 
        1.41742         9.05483         4.29412         4.29412 
        1.42355         8.97868         4.25122         4.25122 
         1.4297         8.91895         4.20877         4.20877 
        1.43585         8.88637         4.16693         4.16693 
        1.44198         8.84138         4.12582         4.12582 
        1.44809         8.75866         4.08535         4.08535 
        1.45423         8.68846         4.04528         4.04528 
        1.46036         8.64001         4.00582         4.00582 
        1.46649         8.58666         3.96688         3.96688 
        1.47263         8.50951         3.92843         3.92843 
        1.47877         8.46242         3.89051         3.89051 
        1.48491         8.41211         3.85303         3.85303 
        1.49104          8.3582         3.81613         3.81613 
        1.49718         8.31267          3.7797          3.7797 
        1.50333         8.25859         3.74368         3.74368 
        1.50947         8.19643         3.70821         3.70821 
         1.5156         8.15222         3.67326         3.67326 
        1.52172         8.10733         3.63876         3.63876 
        1.52787         8.04982         3.60464         3.60464 
          1.534         7.99501           3.571           3.571 
        1.54013         7.95654         3.53783         3.53783 
        1.54627         7.88544         3.50502         3.50502 
        1.55241         7.84745         3.47263         3.47263 
        1.55855          7.8126         3.44069         3.44069 
        1.56467         7.74956         3.40925         3.40925 
         1.5708         7.72505         3.37811         3.37811 
        1.57695         7.64918         3.34732         3.34732 
        1.58308         7.60307         3.31699         3.31699 
        1.58922         7.57805         3.28701         3.28701 
        1.59535         7.54323         3.25742         3.25742 
         1.6015         7.47857         3.22815         3.22815 
        1.60764         7.42494         3.19926         3.19926 
        1.61376         7.40011          3.1708          3.1708 
        1.61989          7.3533         3.14267         3.14267 
        1.62604         7.30247         3.11482         3.11482 
        1.63218         7.28094         3.08733         3.08733 
        1.63831         7.23987         3.06024         3.06024 
        1.64444         7.19531         3.03346         3.03346 
        1.65059         7.11856         3.00694         3.00694 
        1.65673         7.11093         2.98078         2.98078 
        1.66285         7.03716         2.95499         2.95499 
        1.66898         7.01191         2.92951         2.92951 
        1.67512          6.9823         2.90428         2.90428 
        1.68127         6.93541         2.87933         2.87933 
         1.6874         6.90725         2.85472         2.85472 
        1.69353         6.85843         2.83043         2.83043 
        1.69967         6.81878         2.80636         2.80636 
        1.70581         6.78266         2.78258         2.78258 
        1.71193         6.74342         2.75916         2.75916 
        1.71806         6.72107         2.73597         2.73597 
        1.72421         6.66816           2.713           2.713 
        1.73035         6.65089         2.69033         2.69033 
        1.73649         6.61175         2.66792         2.66792 
        1.74262         6.55861         2.64578         2.64578 
        1.74876         6.53746         2.62388         2.62388 
        1.75489         6.51249         2.60228         2.60228 
        1.76101          6.4549         2.58093         2.58093 
        1.76715         6.43546         2.55979         2.55979 
        1.77329          6.3989         2.53886         2.53886 
        1.77943          6.3486         2.51816         2.51816 
        1.78557         6.33808         2.49772         2.49772 
        1.79171         6.29484         2.47751         2.47751 
        1.79785         6.26012         2.45752         2.45752 
        1.80399         6.21711         2.43775         2.43775 
        1.81012         6.19674         2.41823         2.41823 
        1.81625         6.15662         2.39894         2.39894 
        1.82239         6.13526         2.37982         2.37982 
        1.82853         6.09775         2.36093         2.36093 
        1.83466         6.07134         2.34226         2.34226 
        1.84078         6.04081         2.32382         2.32382 
        1.84692         6.02383         2.30554         2.30554 
        1.85306         5.97372         2.28744         2.28744 
         1.8592         5.93892         2.26957         2.26957 
        1.86533         5.91358         2.25189         2.25189 
        1.87147         5.89057         2.23439         2.23439 
