# k  (h/Mpc)    P(k)  (Mpc/h)^3    P_linear(k)  (Mpc/h)^3     P_NL(k)  ShotnoiseSubtracted = false
     0.00783031         789.644         797.231         797.231 
       0.013688         1006.79         1008.58         1008.58 
       0.019231         1039.66         1039.84         1039.84 
      0.0249154         974.458         979.479         979.479 
      0.0312784         867.114         867.857         867.857 
      0.0375637         758.971         757.299         757.299 
      0.0433917         672.783         673.734         673.734 
      0.0492413         611.885         611.444         611.444 
      0.0555754         560.407         562.617         562.617 
      0.0619321          525.08         523.286         523.286 
       0.067871         485.946         487.435         487.435 
      0.0738098         446.839         448.546         448.546 
      0.0800417         402.308         404.711         404.711 
      0.0862327         360.465         361.449         361.449 
      0.0921407         324.196         324.244         324.244 
      0.0982031         292.161         292.879         292.879 
       0.104506         269.484         268.305         268.305 
       0.110769         251.478         250.696         250.696 
       0.116806         237.227         237.752         237.752 
       0.122832         226.586         226.228         226.228 
       0.129052         213.062         213.777         213.777 
       0.135211          199.26         200.016         200.016 
       0.141259         185.665         185.448         185.448 
       0.147318         171.842         170.879         170.879 
       0.153489          157.79         157.306         157.306 
       0.159709         146.534         145.807         145.807 
       0.165845         138.599         136.856         136.856 
       0.171974         130.612         129.947         129.947 
       0.178125         125.126         124.335         124.335 
       0.184229         120.351         119.279         119.279 
        0.19034         114.092         114.101         114.101 
       0.196428         109.292          108.53          108.53 
       0.202534         104.178         102.583         102.583 
       0.208729         97.6802         96.4899         96.4899 
       0.214876         91.5229          90.775          90.775 
       0.220989         87.4284          85.722          85.722 
       0.227147         82.2704         81.4019         81.4019 
        0.23329          78.735         77.8089         77.8089 
       0.239377         75.9066         74.7685         74.7685 
       0.245482         72.6342         72.0013         72.0013 
       0.251667          70.492          69.272          69.272 
       0.257832         67.6377         66.4929         66.4929 
       0.263955         64.8143         63.6544         63.6544 
       0.270079         62.0838         60.8008         60.8008 
        0.27624         59.7671         58.0215         58.0215 
       0.282372         57.1741         55.4495         55.4495 
        0.28843         54.6326         53.1553         53.1553 
       0.294538         52.5508         51.0997         51.0997 
       0.300721         51.0383         49.2411         49.2411 
        0.30691         48.9764         47.5359         47.5359 
       0.313033         47.3929          45.932          45.932 
       0.319153         45.2918         44.3611         44.3611 
       0.325316         44.4051         42.7882         42.7882 
        0.33145         42.6938         41.2377         41.2377 
       0.337538         41.2908         39.7366         39.7366 
       0.343633         39.7489         38.3014         38.3014 
       0.349808         38.5002         36.9377         36.9377 
       0.355968         37.2828         35.6789         35.6789 
       0.362074         36.0709         34.5239         34.5239 
       0.368217          34.987         33.4403         33.4403 
       0.374374         33.8257         32.4115         32.4115 
       0.380519         32.9625         31.4222         31.4222 
       0.386598         32.0346         30.4702         30.4702 
       0.392688         31.2336         29.5377         29.5377 
        0.39888         30.2317          28.615          28.615 
       0.405048         29.4182         27.7286         27.7286 
       0.411186         28.6347         26.8847         26.8847 
       0.417313         27.6607          26.085          26.085 
       0.423458         26.9485         25.3266         25.3266 
       0.429607         26.1555         24.6068         24.6068 
       0.435692           25.42          23.928          23.928 
       0.441815         24.8423         23.2727         23.2727 
       0.447964         24.3618          22.637          22.637 
       0.454126         23.4892         22.0191         22.0191 
       0.460267         22.9539         21.4223         21.4223 
       0.466387         22.2548         20.8466         20.8466 
        0.47254         21.8271          20.288          20.288 
       0.478662         21.3587         19.7536         19.7536 
       0.484765         20.7482          19.243          19.243 
       0.490885         20.2443          18.752          18.752 
       0.497035         19.9277          18.278          18.278 
       0.503198         19.3972         17.8209         17.8209 
       0.509342         18.9329         17.3812         17.3812 
       0.515458          18.457         16.9579         16.9579 
       0.521598         18.0884         16.5458         16.5458 
       0.527764         17.6455         16.1447         16.1447 
       0.533884         17.3261         15.7594         15.7594 
           0.54         16.9296         15.3872         15.3872 
       0.546137         16.5971         15.0263         15.0263 
       0.552299         16.2647         14.6763         14.6763 
       0.558452         15.7754         14.3386         14.3386 
       0.564573         15.5449         14.0139         14.0139 
       0.570708         15.2344         13.6991         13.6991 
       0.576825         14.8347          13.395          13.395 
       0.582926         14.5795          13.101          13.101 
       0.589034         14.1543         12.8152         12.8152 
       0.595184         13.9343         12.5358         12.5358 
       0.601379         13.6366         12.2628         12.2628 
       0.607522         13.4222         12.0003         12.0003 
       0.613639         13.2326         11.7469         11.7469 
       0.619772         12.8775         11.5004         11.5004 
       0.625918         12.7363         11.2608         11.2608 
       0.632068          12.524         11.0281         11.0281 
       0.638161         12.2139         10.8041         10.8041 
         0.6443          11.964         10.5848         10.5848 
       0.650464         11.7116         10.3708         10.3708 
       0.656582         11.5998         10.1644         10.1644 
       0.662703         11.3798         9.96352         9.96352 
       0.668861         11.1719         9.76705         9.76705 
       0.675024         10.9379         9.57582         9.57582 
       0.681124         10.7422         9.39173         9.39173 
       0.687237         10.5733         9.21219         9.21219 
       0.693381         10.4142         9.03659         9.03659 
       0.699536         10.1322         8.86534         8.86534 
       0.705665          10.005         8.69932         8.69932 
       0.711789         9.83758         8.53777         8.53777 
       0.717957         9.66356         8.37928         8.37928 
        0.72409         9.49504         8.22575         8.22575 
       0.730186          9.3642         8.07705         8.07705 
       0.736317         9.25402         7.93127         7.93127 
       0.742472         9.10025         7.78861         7.78861 
       0.748622         8.93944         7.64964         7.64964 
        0.75476         8.73663         7.51441         7.51441 
       0.760888         8.63347          7.3827          7.3827 
       0.767043         8.52483         7.25367         7.25367 
       0.773185         8.34388         7.12803         7.12803 
       0.779291          8.2611         7.00613         7.00613 
       0.785407         8.12484         6.88695         6.88695 
       0.791564         7.99047         6.76982         6.76982 
       0.797719         7.86227         6.65551         6.65551 
       0.803834         7.78296          6.5446          6.5446 
       0.809972         7.68641         6.43585         6.43585 
       0.816124         7.51888         6.32936         6.32936 
       0.822261         7.40082         6.22561         6.22561 
       0.828378         7.31389         6.12452         6.12452 
       0.834502         7.23586         6.02562         6.02562 
       0.840667         7.09452          5.9283          5.9283 
       0.846816          6.9768         5.83342         5.83342 
       0.852925         6.91093         5.74125         5.74125 
       0.859047         6.81188          5.6509          5.6509 
       0.865192         6.73807         5.56222         5.56222 
       0.871341         6.65231         5.47541         5.47541 
       0.877463         6.55221         5.39087         5.39087 
       0.883569          6.4341         5.30835         5.30835 
       0.889708         6.32847         5.22716         5.22716 
       0.895864         6.26884         5.14748         5.14748 
       0.902008         6.18433         5.06965         5.06965 
       0.908149         6.11061          4.9935          4.9935 
       0.914301         6.00729         4.91881         4.91881 
       0.920448         5.92108         4.84573         4.84573 
       0.926574         5.84096         4.77441         4.77441 
       0.932687         5.78468          4.7047          4.7047 
       0.938823         5.70767         4.63615         4.63615 
       0.944975         5.62634         4.56882         4.56882 
       0.951105         5.56654         4.50309         4.50309 
       0.957225          5.5323         4.43878         4.43878 
       0.963368         5.44364         4.37552         4.37552 
       0.969511         5.37152         4.31351         4.31351 
       0.975621         5.29453         4.25305         4.25305 
       0.981748         5.24109          4.1936          4.1936 
       0.987916         5.17723         4.13493         4.13493 
        0.99406         5.09069         4.07761         4.07761 
        1.00019         5.02456         4.02151         4.02151 
        1.00632         4.98416         3.96652         3.96652 
        1.01246         4.92751          3.9125          3.9125 
        1.01859         4.86174         3.85957         3.85957 
        1.02471         4.80486          3.8077          3.8077 
        1.03085            4.75         3.75662         3.75662 
        1.03698         4.68346         3.70659         3.70659 
        1.04314         4.63911         3.65727         3.65727 
        1.04929         4.57752         3.60898         3.60898 
        1.05541         4.52409         3.56176         3.56176 
        1.06154         4.47827         3.51528         3.51528 
        1.06769         4.44481         3.46956         3.46956 
        1.07382          4.3745         3.42482         3.42482 
        1.07993         4.31709         3.38098         3.38098 
        1.08607         4.29023         3.33773         3.33773 
        1.09222          4.2368          3.2952          3.2952 
        1.09836         4.19698         3.25346         3.25346 
        1.10449         4.14709         3.21251         3.21251 
        1.11063         4.09777         3.17222         3.17222 
        1.11677         4.05664         3.13265         3.13265 
         1.1229         4.01101         3.09383         3.09383 
        1.12903         3.96447         3.05564         3.05564 
        1.13518         3.92814         3.01806         3.01806 
        1.14131         3.86945         2.98115         2.98115 
        1.14745         3.81619         2.94488         2.94488 
        1.15359         3.79731         2.90922         2.90922 
        1.15973         3.74401         2.87413         2.87413 
        1.16584         3.71605         2.83979         2.83979 
        1.17197         3.67535         2.80597         2.80597 
        1.17811         3.64079          2.7726          2.7726 
        1.18424         3.61212         2.73987         2.73987 
        1.19038         3.57353         2.70759         2.70759 
        1.19652         3.53604         2.67584         2.67584 
        1.20267         3.49897          2.6446          2.6446 
        1.20881         3.46084         2.61388         2.61388 
        1.21495         3.43338          2.5837          2.5837 
        1.22108         3.39607           2.554           2.554 
         1.2272         3.37283         2.52484         2.52484 
        1.23334          3.3245         2.49608         2.49608 
        1.23949         3.29069          2.4677          2.4677 
        1.24562         3.27141         2.43985         2.43985 
        1.25174         3.22729         2.41247         2.41247 
        1.25789         3.20274         2.38543         2.38543 
        1.26402         3.16536         2.35886         2.35886 
        1.27014         3.13393         2.33276         2.33276 
        1.27628         3.11618         2.30699         2.30699 
        1.28244         3.07222         2.28155         2.28155 
        1.28858         3.05437         2.25654         2.25654 
        1.29471         3.01972         2.23196         2.23196 
        1.30084         2.98845         2.20777         2.20777 
        1.30697         2.97595         2.18391         2.18391 
        1.31312         2.92091         2.16037         2.16037 
        1.31925         2.90897         2.13725         2.13725 
        1.32537         2.88084          2.1145          2.1145 
        1.33151         2.86342         2.09199         2.09199 
        1.33765         2.82366         2.06984         2.06984 
        1.34378         2.79934         2.04805         2.04805 
        1.34992         2.78641         2.02656         2.02656 
        1.35606         2.74544         2.00533         2.00533 
         1.3622         2.73216         1.98445         1.98445 
        1.36833         2.70544         1.96392         1.96392 
        1.37445          2.6789         1.94369         1.94369 
        1.38059         2.66216         1.92369         1.92369 
        1.38675         2.64492         1.90393         1.90393 
        1.39288         2.61126         1.88452         1.88452 
        1.39901         2.58533          1.8654          1.8654 
        1.40515         2.56659          1.8465          1.8465 
         1.4113         2.54567         1.82787         1.82787 
        1.41742         2.52541         1.80957         1.80957 
        1.42355         2.50798         1.79149         1.79149 
         1.4297          2.4774          1.7736          1.7736 
        1.43585         2.46559         1.75597         1.75597 
        1.44198         2.44767         1.73865         1.73865 
        1.44809         2.41575         1.72159         1.72159 
        1.45423         2.39717         1.70471         1.70471 
        1.46036         2.37696         1.68808         1.68808 
        1.46649         2.35566         1.67167         1.67167 
        1.47263         2.33437         1.65546         1.65546 
        1.47877         2.31195         1.63948         1.63948 
        1.48491         2.29612         1.62369         1.62369 
        1.49104         2.28152         1.60814         1.60814 
        1.49718         2.26325         1.59279         1.59279 
        1.50333         2.24343         1.57761         1.57761 
        1.50947         2.22704         1.56266         1.56266 
         1.5156         2.20859         1.54793         1.54793 
        1.52172         2.19156          1.5334          1.5334 
        1.52787         2.17278         1.51902         1.51902 
          1.534         2.15723         1.50484         1.50484 
        1.54013         2.13782         1.49086         1.49086 
        1.54627         2.11635         1.47704         1.47704 
        1.55241         2.10057         1.46339         1.46339 
        1.55855         2.08923         1.44993         1.44993 
        1.56467         2.07247         1.43668         1.43668 
         1.5708         2.04949         1.42356         1.42356 
        1.57695          2.0393         1.41058         1.41058 
        1.58308         2.02176          1.3978          1.3978 
        1.58922         2.00925         1.38517         1.38517 
        1.59535           1.993          1.3727          1.3727 
         1.6015         1.97849         1.36036         1.36036 
        1.60764         1.96553         1.34819         1.34819 
        1.61376         1.95023          1.3362          1.3362 
        1.61989         1.93297         1.32434         1.32434 
        1.62604         1.91763         1.31261         1.31261 
        1.63218         1.90971         1.30102         1.30102 
        1.63831          1.8883          1.2896          1.2896 
        1.64444         1.87392         1.27832         1.27832 
        1.65059         1.86385         1.26715         1.26715 
        1.65673         1.84964         1.25612         1.25612 
        1.66285         1.83245         1.24525         1.24525 
        1.66898         1.82364         1.23451         1.23451 
        1.67512         1.80494         1.22388         1.22388 
        1.68127         1.79416         1.21337         1.21337 
         1.6874         1.78563           1.203           1.203 
        1.69353         1.76399         1.19276         1.19276 
        1.69967         1.75328         1.18262         1.18262 
        1.70581         1.74726          1.1726          1.1726 
        1.71193           1.731         1.16273         1.16273 
        1.71806         1.72205         1.15296         1.15296 
        1.72421         1.70851         1.14328         1.14328 
        1.73035         1.69445         1.13372         1.13372 
        1.73649         1.68333         1.12428         1.12428 
        1.74262         1.67146         1.11495         1.11495 
        1.74876         1.66182         1.10572         1.10572 
        1.75489         1.64619         1.09662         1.09662 
        1.76101         1.63518         1.08762         1.08762 
        1.76715         1.62513         1.07871         1.07871 
        1.77329         1.61432         1.06989         1.06989 
        1.77943         1.60048         1.06117         1.06117 
        1.78557         1.59096         1.05256         1.05256 
        1.79171         1.58359         1.04404         1.04404 
        1.79785         1.56859         1.03561         1.03561 
        1.80399         1.56023         1.02728         1.02728 
        1.81012         1.55198         1.01906         1.01906 
        1.81625         1.53788         1.01093         1.01093 
        1.82239         1.52752         1.00287         1.00287 
        1.82853         1.51297        0.994912        0.994912 
        1.83466         1.50803        0.987045        0.987045 
        1.84078         1.49726        0.979272        0.979272 
        1.84692         1.48896        0.971571        0.971571 
        1.85306         1.47616        0.963943        0.963943 
         1.8592         1.46821         0.95641         0.95641 
        1.86533         1.45722        0.948963        0.948963 
        1.87147         1.45002        0.941586        0.941586 
        1.87761         1.43993        0.934285        0.934285 
