# k  (h/Mpc)    P(k)  (Mpc/h)^3    P_linear(k)  (Mpc/h)^3     P_NL(k)  ShotnoiseSubtracted = false
     0.00783031         6800.34         6884.92         6884.92 
       0.013688         8747.23         8704.84         8704.84 
       0.019231          8982.9         8972.42         8972.42 
      0.0249154         8331.67         8450.45         8450.45 
      0.0312784         7438.12         7486.77         7486.77 
      0.0375637         6536.41         6532.67         6532.67 
      0.0433917         5742.78         5811.62         5811.62 
      0.0492413         5247.99         5274.18         5274.18 
      0.0555754         4753.05         4852.92         4852.92 
      0.0619321         4521.66          4513.6          4513.6 
       0.067871         4128.36         4204.32         4204.32 
      0.0738098         3796.55         3868.86         3868.86 
      0.0800417         3399.79         3490.75         3490.75 
      0.0862327         3066.99         3117.58         3117.58 
      0.0921407         2783.79         2796.67         2796.67 
      0.0982031         2502.52         2526.13         2526.13 
       0.104506         2343.77         2314.16         2314.16 
       0.110769         2183.98         2162.28         2162.28 
       0.116806         2054.65         2050.63         2050.63 
       0.122832         1965.82         1951.23         1951.23 
       0.129052         1830.17         1843.84         1843.84 
       0.135211         1719.98         1725.14         1725.14 
       0.141259         1622.54         1599.49         1599.49 
       0.147318         1513.68         1473.84         1473.84 
       0.153489         1387.07         1356.76         1356.76 
       0.159709         1305.98         1257.59         1257.59 
       0.165845         1251.19         1180.38         1180.38 
       0.171974         1180.14         1120.79         1120.79 
       0.178125         1129.17         1072.38         1072.38 
       0.184229         1087.52         1028.77         1028.77 
        0.19034         1018.41         984.116         984.116 
       0.196428         994.141         936.066         936.066 
       0.202534          956.44          884.77          884.77 
       0.208729         903.609         832.221         832.221 
       0.214876          852.74          782.93          782.93 
       0.220989         824.861         739.347         739.347 
       0.227147         780.697         702.086         702.086 
        0.23329         751.047         671.097         671.097 
       0.239377         734.951         644.873         644.873 
       0.245482         688.993         621.006         621.006 
       0.251667         681.145         597.466         597.466 
       0.257832         656.775         573.496         573.496 
       0.263955         633.154         549.014         549.014 
       0.270079         610.124         524.402         524.402 
        0.27624         600.229         500.431         500.431 
       0.282372         575.003         478.248         478.248 
        0.28843         559.034          458.46          458.46 
       0.294538         533.659         440.731         440.731 
       0.300721         530.008           424.7           424.7 
        0.30691         505.951         409.993         409.993 
       0.313033         495.218          396.16          396.16 
       0.319153          478.65         382.611         382.611 
       0.325316         465.512         369.044         369.044 
        0.33145         451.378         355.672         355.672 
       0.337538         445.134         342.724         342.724 
       0.343633         430.591         330.346         330.346 
       0.349808         417.016         318.584         318.584 
       0.355968         412.013         307.727         307.727 
       0.362074         402.802         297.766         297.766 
       0.368217         392.096          288.42          288.42 
       0.374374         377.785         279.546         279.546 
       0.380519         373.008         271.013         271.013 
       0.386598         363.997         262.802         262.802 
       0.392688         360.411          254.76          254.76 
        0.39888         350.617         246.801         246.801 
       0.405048         343.004         239.156         239.156 
       0.411186         335.941         231.878         231.878 
       0.417313         329.909         224.981         224.981 
       0.423458         323.547          218.44          218.44 
       0.429607         316.433         212.231         212.231 
       0.435692         308.164         206.377         206.377 
       0.441815         305.962         200.725         200.725 
       0.447964         300.195         195.242         195.242 
       0.454126         288.979         189.912         189.912 
       0.460267         285.775         184.765         184.765 
       0.466387         282.457           179.8           179.8 
        0.47254          276.25         174.982         174.982 
       0.478662         274.674         170.373         170.373 
       0.484765         266.868         165.969         165.969 
       0.490885         263.277         161.734         161.734 
       0.497035         259.393         157.645         157.645 
       0.503198         253.197         153.703         153.703 
       0.509342          250.57         149.911         149.911 
       0.515458         247.417          146.26          146.26 
       0.521598         243.536         142.706         142.706 
       0.527764         239.552         139.247         139.247 
       0.533884         236.413         135.923         135.923 
           0.54         233.028         132.713         132.713 
       0.546137           231.6           129.6           129.6 
       0.552299         227.272         126.581         126.581 
       0.558452          224.19         123.669         123.669 
       0.564573         220.489         120.868         120.868 
       0.570708         216.816         118.153         118.153 
       0.576825         214.054         115.531         115.531 
       0.582926         211.208         112.995         112.995 
       0.589034         208.296         110.529         110.529 
       0.595184         206.156          108.12          108.12 
       0.601379         204.253         105.766         105.766 
       0.607522          199.87         103.501         103.501 
       0.613639         199.055         101.315         101.315 
       0.619772         194.616         99.1899         99.1899 
       0.625918         192.927         97.1233         97.1233 
       0.632068         190.709          95.116          95.116 
       0.638161         189.393         93.1843         93.1843 
         0.6443         186.516         91.2927         91.2927 
       0.650464         184.605         89.4472         89.4472 
       0.656582         182.874         87.6665         87.6665 
       0.662703         180.358         85.9343         85.9343 
       0.668861         177.921         84.2398         84.2398 
       0.675024         175.846         82.5904         82.5904 
       0.681124         174.898         81.0026         81.0026 
       0.687237          171.91         79.4541         79.4541 
       0.693381         169.665         77.9396         77.9396 
       0.699536         168.481         76.4625         76.4625 
       0.705665         168.397         75.0307         75.0307 
       0.711789         164.617         73.6373         73.6373 
       0.717957         163.969         72.2703         72.2703 
        0.72409         161.775         70.9461         70.9461 
       0.730186         159.266         69.6636         69.6636 
       0.736317         158.568         68.4063         68.4063 
       0.742472         157.412         67.1759         67.1759 
       0.748622         156.082         65.9773         65.9773 
        0.75476         154.618         64.8109         64.8109 
       0.760888         152.501         63.6749         63.6749 
       0.767043         151.531          62.562          62.562 
       0.773185         149.988         61.4785         61.4785 
       0.779291         147.954         60.4271         60.4271 
       0.785407         147.166         59.3991         59.3991 
       0.791564         145.656         58.3889         58.3889 
       0.797719         143.749          57.403          57.403 
       0.803834         143.127         56.4464         56.4464 
       0.809972         141.162         55.5084         55.5084 
       0.816124         140.962           54.59           54.59 
       0.822261         139.299         53.6951         53.6951 
       0.828378         137.971         52.8233         52.8233 
       0.834502          137.52         51.9703         51.9703 
       0.840667          135.62         51.1309         51.1309 
       0.846816         134.452         50.3126         50.3126 
       0.852925         133.384         49.5176         49.5176 
       0.859047         131.856         48.7383         48.7383 
       0.865192          131.23         47.9735         47.9735 
       0.871341         129.945         47.2248         47.2248 
       0.877463         128.738         46.4956         46.4956 
       0.883569         127.811         45.7839         45.7839 
       0.889708         126.956         45.0837         45.0837 
       0.895864         125.759         44.3964         44.3964 
       0.902008         124.929         43.7252         43.7252 
       0.908149         124.158         43.0684         43.0684 
       0.914301         122.753         42.4241         42.4241 
       0.920448         122.008         41.7939         41.7939 
       0.926574          121.23         41.1788         41.1788 
       0.932687         120.609         40.5775         40.5775 
       0.938823         118.924         39.9862         39.9862 
       0.944975         118.136         39.4055         39.4055 
       0.951105          117.36         38.8386         38.8386 
       0.957225         115.926         38.2839         38.2839 
       0.963368         115.372         37.7383         37.7383 
       0.969511         114.882         37.2035         37.2035 
       0.975621         114.321          36.682          36.682 
       0.981748         113.387         36.1693         36.1693 
       0.987916         112.182         35.6633         35.6633 
        0.99406         111.638         35.1689         35.1689 
        1.00019          110.65         34.6851         34.6851 
        1.00632         110.078         34.2108         34.2108 
        1.01246         109.136         33.7448         33.7448 
        1.01859         107.779         33.2883         33.2883 
        1.02471         108.055          32.841          32.841 
        1.03085         106.897         32.4004         32.4004 
        1.03698         106.016         31.9689         31.9689 
        1.04314         105.086         31.5435         31.5435 
        1.04929         104.562          31.127          31.127 
        1.05541         103.792         30.7197         30.7197 
        1.06154          103.23         30.3188         30.3188 
        1.06769         102.719         29.9245         29.9245 
        1.07382         102.267         29.5387         29.5387 
        1.07993         101.517         29.1605         29.1605 
        1.08607         100.637         28.7875         28.7875 
        1.09222         100.122         28.4207         28.4207 
        1.09836         99.3424         28.0607         28.0607 
        1.10449         98.7316         27.7075         27.7075 
        1.11063         98.0991         27.3601         27.3601 
        1.11677         97.5597         27.0187         27.0187 
         1.1229         96.6542         26.6839         26.6839 
        1.12903          95.712         26.3545         26.3545 
        1.13518          95.956         26.0304         26.0304 
        1.14131         95.1577         25.7121         25.7121 
        1.14745         94.1354         25.3993         25.3993 
        1.15359         93.7721         25.0916         25.0916 
        1.15973          93.348         24.7891         24.7891 
        1.16584         92.6139         24.4929         24.4929 
        1.17197         92.0455         24.2011         24.2011 
        1.17811         91.4908         23.9133         23.9133 
        1.18424         90.7643         23.6311         23.6311 
        1.19038         90.2856         23.3526         23.3526 
        1.19652          89.905         23.0788         23.0788 
        1.20267         89.1595         22.8094         22.8094 
        1.20881         88.6589         22.5444         22.5444 
        1.21495          87.999         22.2841         22.2841 
        1.22108         87.4903         22.0279         22.0279 
         1.2272         86.8741         21.7765         21.7765 
        1.23334          86.483         21.5284         21.5284 
        1.23949          85.927         21.2836         21.2836 
        1.24562         85.5944         21.0434         21.0434 
        1.25174         85.0425         20.8072         20.8072 
        1.25789         84.5676         20.5741         20.5741 
        1.26402         84.1334         20.3449         20.3449 
        1.27014         83.2507         20.1198         20.1198 
        1.27628         83.1249         19.8975         19.8975 
        1.28244          82.331         19.6781         19.6781 
        1.28858         82.0154         19.4624         19.4624 
        1.29471         81.6509         19.2504         19.2504 
        1.30084         81.0321         19.0418         19.0418 
        1.30697         80.5244          18.836          18.836 
        1.31312         80.1233         18.6329         18.6329 
        1.31925         79.8431         18.4335         18.4335 
        1.32537         79.3856         18.2373         18.2373 
        1.33151         78.6477         18.0432         18.0432 
        1.33765         78.2749         17.8521         17.8521 
        1.34378         77.7863         17.6641         17.6641 
        1.34992         77.4552         17.4788         17.4788 
        1.35606         77.0164         17.2957         17.2957 
         1.3622         76.3257         17.1156         17.1156 
        1.36833         76.1898         16.9386         16.9386 
        1.37445         75.6675         16.7641         16.7641 
        1.38059         75.1499         16.5916         16.5916 
        1.38675         74.7764         16.4211         16.4211 
        1.39288          74.252         16.2538         16.2538 
        1.39901         74.1272         16.0888         16.0888 
        1.40515         73.7198         15.9258         15.9258 
         1.4113         73.1642         15.7651         15.7651 
        1.41742         72.9332         15.6073         15.6073 
        1.42355         72.3342         15.4514         15.4514 
         1.4297         71.9883         15.2971         15.2971 
        1.43585         71.4976          15.145          15.145 
        1.44198         71.2415         14.9956         14.9956 
        1.44809         70.8195         14.8485         14.8485 
        1.45423         70.5218         14.7029         14.7029 
        1.46036         70.1398         14.5595         14.5595 
        1.46649         69.7015         14.4179         14.4179 
        1.47263         69.3149         14.2782         14.2782 
        1.47877         69.1061         14.1403         14.1403 
        1.48491         68.6922         14.0041         14.0041 
        1.49104         68.2199           13.87           13.87 
        1.49718         67.7993         13.7376         13.7376 
        1.50333         67.4953         13.6067         13.6067 
        1.50947         67.0683         13.4778         13.4778 
         1.5156          66.827         13.3507         13.3507 
        1.52172         66.4503         13.2254         13.2254 
        1.52787         66.2285         13.1013         13.1013 
          1.534         65.8652         12.9791         12.9791 
        1.54013          65.439         12.8585         12.8585 
        1.54627         65.1626         12.7393         12.7393 
        1.55241         64.7091         12.6215         12.6215 
        1.55855         64.3051         12.5055         12.5055 
        1.56467         63.8538         12.3912         12.3912 
         1.5708         63.8046          12.278          12.278 
        1.57695         63.4831         12.1661         12.1661 
        1.58308         63.0708         12.0558         12.0558 
        1.58922         62.9247         11.9469         11.9469 
        1.59535         62.6236         11.8393         11.8393 
         1.6015         62.0556         11.7329         11.7329 
        1.60764         61.9272         11.6279         11.6279 
        1.61376         61.5158         11.5245         11.5245 
        1.61989         61.0788         11.4223         11.4223 
        1.62604         60.9279         11.3211         11.3211 
        1.63218         60.7227         11.2211         11.2211 
        1.63831         60.3255         11.1227         11.1227 
        1.64444          60.044         11.0253         11.0253 
        1.65059         59.5294          10.929          10.929 
        1.65673         59.3673         10.8339         10.8339 
        1.66285         59.0661         10.7401         10.7401 
        1.66898         58.7627         10.6475         10.6475 
        1.67512         58.3839         10.5558         10.5558 
        1.68127         58.0445         10.4651         10.4651 
         1.6874         57.8817         10.3757         10.3757 
        1.69353         57.5189         10.2874         10.2874 
        1.69967         57.2739         10.1999         10.1999 
        1.70581         57.1249         10.1135         10.1135 
        1.71193         56.7989         10.0284         10.0284 
        1.71806         56.3015          9.9441          9.9441 
        1.72421         56.1948         9.86062         9.86062 
        1.73035         55.8181          9.7782          9.7782 
        1.73649         55.4371         9.69674         9.69674 
        1.74262         55.3353         9.61629         9.61629 
        1.74876         55.1182          9.5367          9.5367 
        1.75489         54.7031         9.45818         9.45818 
        1.76101         54.5417         9.38057         9.38057 
        1.76715         54.1497         9.30374         9.30374 
        1.77329         53.8962         9.22767         9.22767 
        1.77943         53.7025         9.15244         9.15244 
        1.78557         53.4925         9.07815         9.07815 
        1.79171         53.1306         9.00469         9.00469 
        1.79785         52.9018         8.93203         8.93203 
        1.80399         52.5992         8.86019         8.86019 
        1.81012         52.4766         8.78925         8.78925 
        1.81625         51.9526         8.71912         8.71912 
        1.82239          51.827         8.64965         8.64965 
        1.82853         51.4187         8.58098         8.58098 
        1.83466         51.3395         8.51313         8.51313 
        1.84078         50.9094         8.44609         8.44609 
        1.84692         50.7053         8.37967         8.37967 
        1.85306         50.4823         8.31388         8.31388 
         1.8592         50.1869         8.24891         8.24891 
        1.86533          49.969         8.18468         8.18468 
        1.87147         49.7464         8.12105         8.12105 
        1.87761         49.5575         8.05809         8.05809 
