# k  (h/Mpc)    P(k)  (Mpc/h)^3    P_linear(k)  (Mpc/h)^3     P_NL(k)  ShotnoiseSubtracted = false
     0.00783031         4229.17         4277.67         4277.67 
       0.013688         5424.87         5409.24         5409.24 
       0.019231         5581.52         5575.87         5575.87 
      0.0249154         5195.13         5251.69         5251.69 
      0.0312784         4634.02         4652.91         4652.91 
      0.0375637         4067.13         4060.01         4060.01 
      0.0433917         3584.19         3611.92         3611.92 
      0.0492413         3270.44         3277.93         3277.93 
      0.0555754         2973.81         3016.13         3016.13 
      0.0619321         2815.84         2805.25         2805.25 
       0.067871          2582.6         2613.04         2613.04 
      0.0738098         2374.64         2404.55         2404.55 
      0.0800417         2130.35         2169.55         2169.55 
      0.0862327         1917.41         1937.63         1937.63 
      0.0921407         1734.39         1738.18         1738.18 
      0.0982031         1559.69         1570.03         1570.03 
       0.104506         1453.76         1438.29         1438.29 
       0.110769         1355.32          1343.9          1343.9 
       0.116806         1274.81          1274.5          1274.5 
       0.122832         1220.36         1212.73         1212.73 
       0.129052         1139.69         1145.98         1145.98 
       0.135211         1068.97         1072.21         1072.21 
       0.141259         1004.26         994.117         994.117 
       0.147318         934.407          916.02          916.02 
       0.153489         856.451         843.255         843.255 
       0.159709         802.497         781.618         781.618 
       0.165845         765.726         733.634         733.634 
       0.171974         720.925         696.593         696.593 
       0.178125         690.661         666.511         666.511 
       0.184229         665.376         639.406         639.406 
        0.19034         624.122          611.65          611.65 
       0.196428         606.267         581.786         581.786 
       0.202534         582.397         549.904         549.904 
       0.208729          548.19         517.244         517.244 
       0.214876         514.975         486.608         486.608 
       0.220989         496.943         459.521         459.521 
       0.227147         468.189         436.363         436.363 
        0.23329         449.871         417.102         417.102 
       0.239377         438.177         400.803         400.803 
       0.245482         412.623         385.969         385.969 
       0.251667         405.953         371.339         371.339 
       0.257832         391.562         356.441         356.441 
       0.263955         376.308         341.225         341.225 
       0.270079         362.088         325.928         325.928 
        0.27624         353.967         311.029         311.029 
       0.282372         339.243         297.242         297.242 
        0.28843         326.868         284.944         284.944 
       0.294538         313.351         273.924         273.924 
       0.300721         309.174         263.961         263.961 
        0.30691         295.377          254.82          254.82 
       0.313033         287.875         246.222         246.222 
       0.319153         276.072         237.802         237.802 
       0.325316         269.901          229.37          229.37 
        0.33145         260.586         221.058         221.058 
       0.337538         256.014         213.011         213.011 
       0.343633         247.338         205.318         205.318 
       0.349808         239.743         198.007         198.007 
       0.355968         235.048          191.26          191.26 
       0.362074          228.55         185.068         185.068 
       0.368217         222.425          179.26          179.26 
       0.374374         215.664         173.744         173.744 
       0.380519         211.253         168.441         168.441 
       0.386598         205.795         163.338         163.338 
       0.392688          202.53         158.339         158.339 
        0.39888         197.146         153.393         153.393 
       0.405048         192.645         148.641         148.641 
       0.411186         188.379         144.118         144.118 
       0.417313         183.941         139.831         139.831 
       0.423458         179.975         135.765         135.765 
       0.429607         175.543         131.906         131.906 
       0.435692         170.191         128.268         128.268 
       0.441815         168.844         124.755         124.755 
       0.447964         165.976         121.347         121.347 
       0.454126         158.846         118.035         118.035 
       0.460267         156.979         114.836         114.836 
       0.466387         154.391          111.75          111.75 
        0.47254         151.457         108.755         108.755 
       0.478662         149.568         105.891         105.891 
       0.484765         145.609         103.154         103.154 
       0.490885         143.105         100.522         100.522 
       0.497035         141.164         97.9804         97.9804 
       0.503198          137.35         95.5301         95.5301 
       0.509342         134.812         93.1733         93.1733 
       0.515458          132.88          90.904          90.904 
       0.521598         131.144         88.6951         88.6951 
       0.527764          128.98          86.545          86.545 
       0.533884          126.78         84.4794         84.4794 
           0.54         124.575         82.4842         82.4842 
       0.546137         123.358         80.5497         80.5497 
       0.552299         121.489         78.6732         78.6732 
       0.558452         118.663         76.8632         76.8632 
       0.564573         116.515         75.1226         75.1226 
       0.570708         115.158         73.4348         73.4348 
       0.576825          113.29          71.805          71.805 
       0.582926         111.282         70.2288         70.2288 
       0.589034         109.095         68.6966         68.6966 
       0.595184         107.867          67.199          67.199 
       0.601379         106.728         65.7358         65.7358 
       0.607522          104.06         64.3286         64.3286 
       0.613639         103.903           62.97           62.97 
       0.619772         101.442         61.6489         61.6489 
       0.625918         100.541         60.3644         60.3644 
       0.632068         99.3365         59.1169         59.1169 
       0.638161         98.0061         57.9162         57.9162 
         0.6443         96.6509         56.7406         56.7406 
       0.650464         95.3376         55.5936         55.5936 
       0.656582         94.2749         54.4868         54.4868 
       0.662703          92.458         53.4102         53.4102 
       0.668861         91.5381          52.357          52.357 
       0.675024         90.3459         51.3319         51.3319 
       0.681124         89.1734          50.345          50.345 
       0.687237         87.6424         49.3826         49.3826 
       0.693381         86.7953         48.4413         48.4413 
       0.699536         85.5471         47.5233         47.5233 
       0.705665         85.8905         46.6333         46.6333 
       0.711789         83.5295         45.7673         45.7673 
       0.717957         82.9991         44.9177         44.9177 
        0.72409         81.8149         44.0947         44.0947 
       0.730186         80.4894         43.2976         43.2976 
       0.736317         80.2708         42.5161         42.5161 
       0.742472         79.1332         41.7514         41.7514 
       0.748622         78.4715         41.0064         41.0064 
        0.75476         77.5206         40.2815         40.2815 
       0.760888         76.4624         39.5755         39.5755 
       0.767043          75.674         38.8838         38.8838 
       0.773185         74.7824         38.2103         38.2103 
       0.779291         74.2904         37.5569         37.5569 
       0.785407         73.6252          36.918          36.918 
       0.791564         72.5181         36.2901         36.2901 
       0.797719         71.4935         35.6773         35.6773 
       0.803834         71.2652         35.0828         35.0828 
       0.809972         70.0277         34.4998         34.4998 
       0.816124         69.3134          33.929          33.929 
       0.822261         68.8923         33.3728         33.3728 
       0.828378          68.271         32.8309         32.8309 
       0.834502         67.5218         32.3008         32.3008 
       0.840667         66.9396         31.7791         31.7791 
       0.846816         66.0868         31.2705         31.2705 
       0.852925         65.5113         30.7764         30.7764 
       0.859047         64.6243          30.292          30.292 
       0.865192         64.3277         29.8167         29.8167 
       0.871341         63.9392         29.3513         29.3513 
       0.877463         62.7509         28.8981         28.8981 
       0.883569         62.3656         28.4558         28.4558 
       0.889708         62.0204         28.0206         28.0206 
       0.895864         61.3946         27.5934         27.5934 
       0.902008         60.8976         27.1762         27.1762 
       0.908149           60.38          26.768          26.768 
       0.914301         59.9012         26.3676         26.3676 
       0.920448         59.1959         25.9759         25.9759 
       0.926574         58.7777         25.5936         25.5936 
       0.932687         58.2821         25.2199         25.2199 
       0.938823         57.4474         24.8524         24.8524 
       0.944975         57.3151         24.4915         24.4915 
       0.951105         56.7293         24.1391         24.1391 
       0.957225         56.0378         23.7944         23.7944 
       0.963368         55.8926         23.4553         23.4553 
       0.969511         55.4519         23.1229         23.1229 
       0.975621         54.9901         22.7987         22.7987 
       0.981748         54.3608         22.4801         22.4801 
       0.987916          54.039         22.1656         22.1656 
        0.99406           53.72         21.8583         21.8583 
        1.00019         52.9872         21.5576         21.5576 
        1.00632         52.8138         21.2628         21.2628 
        1.01246         52.3395         20.9732         20.9732 
        1.01859         51.7013         20.6895         20.6895 
        1.02471         51.7777         20.4115         20.4115 
        1.03085         51.1941         20.1376         20.1376 
        1.03698         50.6131         19.8694         19.8694 
        1.04314         50.1461         19.6051         19.6051 
        1.04929         49.9573         19.3462         19.3462 
        1.05541          49.414          19.093          19.093 
        1.06154         49.2884         18.8439         18.8439 
        1.06769          48.816         18.5988         18.5988 
        1.07382         48.5211          18.359          18.359 
        1.07993         48.3348          18.124          18.124 
        1.08607         47.7412         17.8921         17.8921 
        1.09222         47.5815         17.6641         17.6641 
        1.09836         47.1374         17.4404         17.4404 
        1.10449         46.8303         17.2209         17.2209 
        1.11063          46.231         17.0049         17.0049 
        1.11677         46.0529         16.7928         16.7928 
         1.1229         45.9025         16.5847         16.5847 
        1.12903         45.2341         16.3799         16.3799 
        1.13518         45.1747         16.1785         16.1785 
        1.14131         45.0373         15.9807         15.9807 
        1.14745         44.4651         15.7862         15.7862 
        1.15359         44.3441         15.5951         15.5951 
        1.15973         43.8351          15.407          15.407 
        1.16584         43.5136         15.2229         15.2229 
        1.17197         43.4655         15.0416         15.0416 
        1.17811         43.0223         14.8627         14.8627 
        1.18424         42.6221         14.6873         14.6873 
        1.19038         42.5873         14.5142         14.5142 
        1.19652         42.3214          14.344          14.344 
        1.20267         41.9966         14.1766         14.1766 
        1.20881          41.675         14.0119         14.0119 
        1.21495         41.3621         13.8501         13.8501 
        1.22108         41.1011         13.6909         13.6909 
         1.2272         40.6573         13.5346         13.5346 
        1.23334         40.5502         13.3804         13.3804 
        1.23949         40.3746         13.2283         13.2283 
        1.24562         40.1235          13.079          13.079 
        1.25174         39.9158         12.9322         12.9322 
        1.25789         39.6373         12.7873         12.7873 
        1.26402          39.408         12.6448         12.6448 
        1.27014         39.0153         12.5049         12.5049 
        1.27628         38.8469         12.3668         12.3668 
        1.28244         38.5846         12.2304         12.2304 
        1.28858         38.4508         12.0963         12.0963 
        1.29471          38.246         11.9646         11.9646 
        1.30084         37.9834         11.8349         11.8349 
        1.30697         37.6674          11.707          11.707 
        1.31312         37.3694         11.5808         11.5808 
        1.31925         37.2611         11.4569         11.4569 
        1.32537         37.0896         11.3349         11.3349 
        1.33151         36.7971         11.2143         11.2143 
        1.33765         36.7323         11.0955         11.0955 
        1.34378         36.5337         10.9787         10.9787 
        1.34992         36.0119         10.8635         10.8635 
        1.35606         35.9079         10.7497         10.7497 
         1.3622         35.6985         10.6378         10.6378 
        1.36833         35.5138         10.5277         10.5277 
        1.37445         35.4835         10.4193         10.4193 
        1.38059         35.2673         10.3121         10.3121 
        1.38675          34.932         10.2061         10.2061 
        1.39288         34.8066         10.1021         10.1021 
        1.39901         34.5056         9.99959         9.99959 
        1.40515         34.3629         9.89827         9.89827 
         1.4113          34.237         9.79841         9.79841 
        1.41742         33.8719         9.70032         9.70032 
        1.42355         33.8298          9.6034          9.6034 
         1.4297         33.5848         9.50752         9.50752 
        1.43585         33.5337           9.413           9.413 
        1.44198         33.2017         9.32014         9.32014 
        1.44809         33.0744         9.22872         9.22872 
        1.45423         32.9502         9.13819         9.13819 
        1.46036         32.8027         9.04905         9.04905 
        1.46649         32.5557         8.96108         8.96108 
        1.47263         32.3768         8.87422         8.87422 
        1.47877           32.25         8.78856         8.78856 
        1.48491         32.0425         8.70391         8.70391 
        1.49104         31.9553         8.62056         8.62056 
        1.49718         31.6581         8.53825         8.53825 
        1.50333         31.5726         8.45689         8.45689 
        1.50947         31.4215         8.37676         8.37676 
         1.5156         31.1946         8.29781         8.29781 
        1.52172         30.9531         8.21987         8.21987 
        1.52787          30.988          8.1428          8.1428 
          1.534         30.7076         8.06681         8.06681 
        1.54013         30.4955         7.99187         7.99187 
        1.54627         30.4598         7.91776         7.91776 
        1.55241         30.2422         7.84459         7.84459 
        1.55855         30.0767         7.77244         7.77244 
        1.56467          29.926         7.70141         7.70141 
         1.5708         29.8295         7.63108         7.63108 
        1.57695         29.5271         7.56152         7.56152 
        1.58308         29.6046         7.49299         7.49299 
        1.58922          29.367         7.42527         7.42527 
        1.59535         29.1557         7.35842         7.35842 
         1.6015         29.0426         7.29231         7.29231 
        1.60764          28.967         7.22704         7.22704 
        1.61376         28.7784         7.16276         7.16276 
        1.61989         28.5315         7.09922         7.09922 
        1.62604         28.4959         7.03631         7.03631 
        1.63218         28.2781         6.97421         6.97421 
        1.63831           28.22         6.91301         6.91301 
        1.64444         28.0581         6.85252         6.85252 
        1.65059         27.8679         6.79262         6.79262 
        1.65673         27.7889          6.7335          6.7335 
        1.66285         27.6322         6.67526         6.67526 
        1.66898         27.4934          6.6177          6.6177 
        1.67512         27.4101          6.5607          6.5607 
        1.68127         27.1846         6.50433         6.50433 
         1.6874         27.0919         6.44876         6.44876 
        1.69353         27.0122         6.39387         6.39387 
        1.69967         26.8071         6.33949         6.33949 
        1.70581         26.6829         6.28577         6.28577 
        1.71193         26.5398         6.23289         6.23289 
        1.71806         26.4598          6.1805          6.1805 
        1.72421         26.3097         6.12861         6.12861 
        1.73035         26.2134         6.07739         6.07739 
        1.73649         26.0559         6.02676         6.02676 
        1.74262         25.9508         5.97675         5.97675 
        1.74876         25.8457         5.92729         5.92729 
        1.75489         25.6844         5.87849         5.87849 
        1.76101         25.5961         5.83025         5.83025 
        1.76715         25.4736          5.7825          5.7825 
        1.77329         25.3954         5.73522         5.73522 
        1.77943         25.2453         5.68846         5.68846 
        1.78557         25.1249         5.64229         5.64229 
        1.79171         25.0335         5.59663         5.59663 
        1.79785         24.8826         5.55147         5.55147 
        1.80399         24.7649         5.50682         5.50682 
        1.81012         24.7149         5.46273         5.46273 
        1.81625         24.5844         5.41914         5.41914 
        1.82239         24.5122         5.37597         5.37597 
        1.82853         24.2899         5.33329         5.33329 
        1.83466         24.1856         5.29112         5.29112 
        1.84078         24.0203         5.24945         5.24945 
        1.84692         24.0195         5.20817         5.20817 
        1.85306           23.85         5.16728         5.16728 
         1.8592         23.7649          5.1269          5.1269 
        1.86533         23.6423         5.08697         5.08697 
        1.87147         23.5415         5.04743         5.04743 
        1.87761         23.5169         5.00829         5.00829 
