# k  (h/Mpc)    P(k)  (Mpc/h)^3    P_linear(k)  (Mpc/h)^3     P_NL(k)  ShotnoiseSubtracted = false
     0.00783031         321.916         324.859         324.859 
       0.013688         409.767         411.065         411.065 
       0.019231         423.541         423.837         423.837 
      0.0249154         397.701         399.249         399.249 
      0.0312784         353.609         353.759         353.759 
      0.0375637         309.274         308.697         308.697 
      0.0433917         274.558         274.636         274.636 
      0.0492413         249.485         249.246         249.246 
      0.0555754          228.88         229.344         229.344 
      0.0619321         213.818         213.312         213.312 
       0.067871         198.337         198.697         198.697 
      0.0738098         182.406         182.845         182.845 
      0.0800417         164.375         164.977         164.977 
      0.0862327         147.117         147.342         147.342 
      0.0921407         132.171         132.176         132.176 
      0.0982031         119.214          119.39          119.39 
       0.104506         109.666         109.373         109.373 
       0.110769         102.367         102.194         102.194 
       0.116806         96.7123         96.9177         96.9177 
       0.122832         92.2504         92.2203         92.2203 
       0.129052         86.8993         87.1448         87.1448 
       0.135211         81.2556         81.5352         81.5352 
       0.141259         75.5656         75.5966         75.5966 
       0.147318         69.8351         69.6579         69.6579 
       0.153489         64.1779         64.1246         64.1246 
       0.159709         59.5205         59.4375         59.4375 
       0.165845          56.145         55.7887         55.7887 
       0.171974         53.0131         52.9719         52.9719 
       0.178125         50.7587         50.6844         50.6844 
       0.184229         48.7806         48.6232         48.6232 
        0.19034         46.3989         46.5125         46.5125 
       0.196428         44.3022         44.2416         44.2416 
       0.202534         42.1065         41.8172         41.8172 
       0.208729         39.4971         39.3336         39.3336 
       0.214876         37.0428         37.0039         37.0039 
       0.220989         35.2473         34.9441         34.9441 
       0.227147         33.2457          33.183          33.183 
        0.23329         31.7899         31.7184         31.7184 
       0.239377         30.5878          30.479          30.479 
       0.245482         29.3677         29.3509         29.3509 
       0.251667         28.3987         28.2383         28.2383 
       0.257832         27.2218         27.1054         27.1054 
       0.263955          26.085         25.9484         25.9484 
       0.270079         24.9522         24.7851         24.7851 
        0.27624         23.9332         23.6521         23.6521 
       0.282372         22.8787         22.6037         22.6037 
        0.28843         21.8635         21.6685         21.6685 
       0.294538          21.027         20.8305         20.8305 
       0.300721         20.3551         20.0729         20.0729 
        0.30691         19.5656         19.3778         19.3778 
       0.313033         18.9194         18.7239         18.7239 
       0.319153         18.1331         18.0836         18.0836 
       0.325316         17.6961         17.4424         17.4424 
        0.33145         17.0267         16.8103         16.8103 
       0.337538         16.4193         16.1984         16.1984 
       0.343633         15.8011         15.6134         15.6134 
       0.349808         15.2826         15.0574         15.0574 
       0.355968         14.7805         14.5443         14.5443 
       0.362074         14.2905         14.0735         14.0735 
       0.368217         13.8513         13.6318         13.6318 
       0.374374         13.3786         13.2124         13.2124 
       0.380519         13.0253         12.8091         12.8091 
       0.386598         12.6509          12.421          12.421 
       0.392688         12.3041         12.0409         12.0409 
        0.39888         11.9023         11.6647         11.6647 
       0.405048         11.5568         11.3034         11.3034 
       0.411186         11.2268         10.9594         10.9594 
       0.417313         10.8578         10.6334         10.6334 
       0.423458         10.5732         10.3243         10.3243 
       0.429607         10.2496         10.0308         10.0308 
       0.435692         9.96859         9.75414         9.75414 
       0.441815         9.71095         9.48701         9.48701 
       0.447964         9.49788         9.22785         9.22785 
       0.454126         9.18675         8.97596         8.97596 
       0.460267         8.94842         8.73269         8.73269 
       0.466387         8.68783         8.49802         8.49802 
        0.47254         8.48569         8.27028         8.27028 
       0.478662         8.28425         8.05245         8.05245 
       0.484765         8.05201         7.84431         7.84431 
       0.490885          7.8538         7.64416         7.64416 
       0.497035         7.70941         7.45092         7.45092 
       0.503198         7.49877         7.26459         7.26459 
       0.509342         7.32753         7.08536         7.08536 
       0.515458         7.13262          6.9128          6.9128 
       0.521598         6.97322         6.74482         6.74482 
       0.527764         6.79098         6.58132         6.58132 
       0.533884         6.66354         6.42424         6.42424 
           0.54         6.50234         6.27251         6.27251 
       0.546137         6.36449          6.1254          6.1254 
       0.552299         6.21991          5.9827          5.9827 
       0.558452          6.0501         5.84506         5.84506 
       0.564573         5.94099          5.7127          5.7127 
       0.570708         5.81264         5.58435         5.58435 
       0.576825         5.66924         5.46041         5.46041 
       0.582926         5.56717         5.34055         5.34055 
       0.589034         5.40703         5.22403         5.22403 
       0.595184         5.30794         5.11015         5.11015 
       0.601379         5.19297         4.99888         4.99888 
       0.607522         5.10468         4.89187         4.89187 
       0.613639         5.01961         4.78855         4.78855 
       0.619772         4.88714         4.68809         4.68809 
       0.625918         4.80591         4.59041         4.59041 
       0.632068         4.72379         4.49554         4.49554 
       0.638161         4.61115         4.40424         4.40424 
         0.6443         4.51777         4.31484         4.31484 
       0.650464         4.41569         4.22761         4.22761 
       0.656582         4.35325         4.14345         4.14345 
       0.662703         4.26976         4.06158         4.06158 
       0.668861         4.19871         3.98149         3.98149 
       0.675024         4.10525         3.90353         3.90353 
       0.681124         4.02208         3.82849         3.82849 
       0.687237          3.9609          3.7553          3.7553 
       0.693381         3.89027         3.68372         3.68372 
       0.699536         3.79013         3.61391         3.61391 
       0.705665         3.72945         3.54623         3.54623 
       0.711789         3.67082         3.48038         3.48038 
       0.717957         3.59728         3.41577         3.41577 
        0.72409         3.53508         3.35318         3.35318 
       0.730186         3.47495         3.29257         3.29257 
       0.736317         3.43294         3.23314         3.23314 
       0.742472         3.37097         3.17499         3.17499 
       0.748622         3.30578         3.11834         3.11834 
        0.75476         3.23384         3.06321         3.06321 
       0.760888         3.18457         3.00952         3.00952 
       0.767043         3.14811         2.95692         2.95692 
       0.773185         3.08054         2.90571         2.90571 
       0.779291         3.03711         2.85601         2.85601 
       0.785407         2.98623         2.80743         2.80743 
       0.791564         2.93862         2.75968         2.75968 
       0.797719         2.89563         2.71308         2.71308 
       0.803834         2.85256         2.66787         2.66787 
       0.809972          2.8066         2.62354         2.62354 
       0.816124         2.75304         2.58013         2.58013 
       0.822261         2.70398         2.53784         2.53784 
       0.828378          2.6706         2.49663         2.49663 
       0.834502         2.63689         2.45631         2.45631 
       0.840667         2.58142         2.41664         2.41664 
       0.846816         2.54234         2.37796         2.37796 
       0.852925         2.51547         2.34039         2.34039 
       0.859047          2.4761         2.30356         2.30356 
       0.865192         2.43731         2.26741         2.26741 
       0.871341         2.40165         2.23202         2.23202 
       0.877463         2.37296         2.19756         2.19756 
       0.883569         2.32827         2.16392         2.16392 
       0.889708         2.29266         2.13083         2.13083 
       0.895864         2.26131         2.09834         2.09834 
       0.902008         2.22496         2.06662         2.06662 
       0.908149         2.19529         2.03557         2.03557 
       0.914301         2.15349         2.00513         2.00513 
       0.920448         2.12658         1.97534         1.97534 
       0.926574         2.09469         1.94627         1.94627 
       0.932687         2.06788         1.91785         1.91785 
       0.938823         2.04629          1.8899          1.8899 
       0.944975         2.01562         1.86246         1.86246 
       0.951105         1.98939         1.83566         1.83566 
       0.957225         1.97035         1.80944         1.80944 
       0.963368         1.93925         1.78366         1.78366 
       0.969511         1.90847         1.75838         1.75838 
       0.975621         1.87859         1.73373         1.73373 
       0.981748         1.86203          1.7095          1.7095 
       0.987916         1.83433         1.68558         1.68558 
        0.99406         1.80553         1.66222         1.66222 
        1.00019         1.78763         1.63935         1.63935 
        1.00632         1.75865         1.61693         1.61693 
        1.01246         1.73725         1.59491         1.59491 
        1.01859         1.71759         1.57333         1.57333 
        1.02471         1.69288         1.55219         1.55219 
        1.03085         1.67545         1.53137         1.53137 
        1.03698         1.65014         1.51097         1.51097 
        1.04314         1.63161         1.49087         1.49087 
        1.04929         1.60857         1.47118         1.47118 
        1.05541         1.59137         1.45193         1.45193 
        1.06154         1.56917         1.43298         1.43298 
        1.06769         1.54982         1.41435         1.41435 
        1.07382         1.53189         1.39611         1.39611 
        1.07993         1.50795         1.37824         1.37824 
        1.08607         1.49769         1.36061         1.36061 
        1.09222         1.47523         1.34327         1.34327 
        1.09836         1.46382         1.32626         1.32626 
        1.10449         1.44526         1.30956         1.30956 
        1.11063         1.42236         1.29314         1.29314 
        1.11677         1.40452         1.27701         1.27701 
         1.1229         1.38915         1.26118         1.26118 
        1.12903         1.37124         1.24561         1.24561 
        1.13518         1.35991          1.2303          1.2303 
        1.14131          1.3394         1.21525         1.21525 
        1.14745         1.31666         1.20047         1.20047 
        1.15359         1.30897         1.18593         1.18593 
        1.15973         1.28763         1.17163         1.17163 
        1.16584         1.28285         1.15763         1.15763 
        1.17197         1.26434         1.14384         1.14384 
        1.17811         1.25121         1.13024         1.13024 
        1.18424         1.24138          1.1169          1.1169 
        1.19038         1.22259         1.10373         1.10373 
        1.19652         1.20726         1.09079         1.09079 
        1.20267         1.19848         1.07806         1.07806 
        1.20881         1.18062         1.06553         1.06553 
        1.21495         1.17196         1.05323         1.05323 
        1.22108         1.15876         1.04112         1.04112 
         1.2272          1.1483         1.02924         1.02924 
        1.23334         1.13267         1.01751         1.01751 
        1.23949         1.12006         1.00595         1.00595 
        1.24562         1.11007        0.994591        0.994591 
        1.25174          1.0977        0.983431        0.983431 
        1.25789         1.08705        0.972409        0.972409 
        1.26402         1.07124        0.961578        0.961578 
        1.27014         1.06073         0.95094         0.95094 
        1.27628         1.05431        0.940432        0.940432 
        1.28244         1.03764        0.930064        0.930064 
        1.28858         1.02888        0.919868        0.919868 
        1.29471         1.01999        0.909848        0.909848 
        1.30084         1.00713        0.899988        0.899988 
        1.30697        0.997385         0.89026         0.89026 
        1.31312        0.982641        0.880664        0.880664 
        1.31925         0.97652         0.87124         0.87124 
        1.32537        0.967647        0.861964        0.861964 
        1.33151         0.95928        0.852791        0.852791 
        1.33765        0.948099        0.843758        0.843758 
        1.34378        0.935967        0.834876        0.834876 
        1.34992        0.930145        0.826116        0.826116 
        1.35606        0.918522        0.817463        0.817463 
         1.3622          0.9108        0.808952        0.808952 
        1.36833        0.901273        0.800583        0.800583 
        1.37445        0.889829        0.792337        0.792337 
        1.38059        0.881779        0.784184        0.784184 
        1.38675        0.879525        0.776127        0.776127 
        1.39288        0.866441        0.768216        0.768216 
        1.39901        0.858454         0.76042         0.76042 
        1.40515        0.850891        0.752715        0.752715 
         1.4113        0.841178        0.745121        0.745121 
        1.41742        0.833406        0.737662        0.737662 
        1.42355        0.829582        0.730292        0.730292 
         1.4297        0.817518        0.723001        0.723001 
        1.43585        0.811164        0.715813        0.715813 
        1.44198        0.806861        0.708751        0.708751 
        1.44809        0.795238        0.701799        0.701799 
        1.45423        0.788715        0.694915        0.694915 
        1.46036         0.78144        0.688136        0.688136 
        1.46649        0.774525        0.681447        0.681447 
        1.47263        0.766291        0.674841        0.674841 
        1.47877        0.758697        0.668327        0.668327 
        1.48491        0.752419         0.66189         0.66189 
        1.49104        0.744509        0.655551        0.655551 
        1.49718          0.7396        0.649292        0.649292 
        1.50333         0.73222        0.643105        0.643105 
        1.50947        0.726311        0.637012        0.637012 
         1.5156        0.719116        0.631008        0.631008 
        1.52172        0.712592        0.625081        0.625081 
        1.52787        0.705772         0.61922         0.61922 
          1.534        0.700834        0.613441        0.613441 
        1.54013        0.692048        0.607743        0.607743 
        1.54627         0.68688        0.602107        0.602107 
        1.55241         0.68063        0.596543        0.596543 
        1.55855        0.673941        0.591057        0.591057 
        1.56467        0.670753        0.585655        0.585655 
         1.5708        0.662754        0.580306        0.580306 
        1.57695        0.658694        0.575017        0.575017 
        1.58308         0.65222        0.569806        0.569806 
        1.58922        0.646916        0.564656        0.564656 
        1.59535        0.641051        0.559572        0.559572 
         1.6015        0.635638        0.554545        0.554545 
        1.60764        0.630747        0.549582        0.549582 
        1.61376        0.623583        0.544694        0.544694 
        1.61989        0.619823        0.539861        0.539861 
        1.62604        0.614558        0.535077        0.535077 
        1.63218        0.610337        0.530355        0.530355 
        1.63831         0.60447        0.525701        0.525701 
        1.64444        0.598933        0.521101        0.521101 
        1.65059         0.59423        0.516546        0.516546 
        1.65673        0.589167         0.51205         0.51205 
        1.66285        0.584255        0.507621        0.507621 
        1.66898        0.580675        0.503244        0.503244 
        1.67512        0.574005         0.49891         0.49891 
        1.68127        0.569591        0.494623        0.494623 
         1.6874        0.566557        0.490397        0.490397 
        1.69353        0.560718        0.486223        0.486223 
        1.69967        0.556693        0.482087        0.482087 
        1.70581        0.551815        0.478003        0.478003 
        1.71193        0.547551        0.473981        0.473981 
        1.71806        0.543019        0.469997        0.469997 
        1.72421        0.539089        0.466051        0.466051 
        1.73035        0.533956        0.462156        0.462156 
        1.73649         0.53118        0.458306        0.458306 
        1.74262        0.526465        0.454503        0.454503 
        1.74876        0.521741        0.450741        0.450741 
        1.75489        0.517835         0.44703         0.44703 
        1.76101        0.512918        0.443362        0.443362 
        1.76715        0.509542        0.439731        0.439731 
        1.77329        0.505613        0.436136        0.436136 
        1.77943        0.501276         0.43258         0.43258 
        1.78557        0.497845        0.429069        0.429069 
        1.79171         0.49415        0.425597        0.425597 
        1.79785        0.490197        0.422163        0.422163 
        1.80399        0.486324        0.418767        0.418767 
        1.81012         0.48305        0.415414        0.415414 
        1.81625        0.478871          0.4121          0.4121 
        1.82239        0.476186        0.408816        0.408816 
        1.82853         0.47051        0.405571        0.405571 
        1.83466         0.46809        0.402364        0.402364 
        1.84078        0.464159        0.399195        0.399195 
        1.84692        0.461394        0.396056        0.396056 
        1.85306        0.458089        0.392947        0.392947 
         1.8592        0.454492        0.389876        0.389876 
        1.86533        0.451394         0.38684         0.38684 
        1.87147        0.447712        0.383833        0.383833 
        1.87761        0.445071        0.380857        0.380857 
