# k  (h/Mpc)    Pcb(k)  (Mpc/h)^3    Pcb_linear(k) (Mpc/h)^3    Pcb_NL(k) (Mpc/h)^3   ShotnoiseSubtracted = false
     0.00783031         106.604         107.543         107.543 
       0.013688         135.541         136.117         136.117 
       0.019231         140.199         140.358         140.358 
      0.0249154         131.825         132.222         132.222 
      0.0312784         117.137          117.16          117.16 
      0.0375637         102.394         102.237         102.237 
      0.0433917         90.9995         90.9575         90.9575 
      0.0492413         82.6357          82.549          82.549 
      0.0555754         75.9017         75.9577         75.9577 
      0.0619321         70.7501         70.6481         70.6481 
       0.067871         65.7384         65.8081         65.8081 
      0.0738098         60.4703         60.5581         60.5581 
      0.0800417         54.5298         54.6402         54.6402 
      0.0862327         48.7683         48.7995         48.7995 
      0.0921407          43.786         43.7766         43.7766 
      0.0982031          39.523          39.542          39.542 
       0.104506         36.2887         36.2243         36.2243 
       0.110769         33.8819         33.8469         33.8469 
       0.116806         32.0531         32.0992         32.0992 
       0.122832         30.5397         30.5434         30.5434 
       0.129052         28.8059         28.8624         28.8624 
       0.135211         26.9388         27.0045         27.0045 
       0.141259         25.0202         25.0377         25.0377 
       0.147318         23.0968         23.0708         23.0708 
       0.153489         21.2424         21.2382         21.2382 
       0.159709          19.691         19.6858         19.6858 
       0.165845          18.535         18.4773         18.4773 
       0.171974         17.5367         17.5444         17.5444 
       0.178125         16.7839         16.7868         16.7868 
       0.184229         16.1179         16.1041         16.1041 
        0.19034         15.3687          15.405          15.405 
       0.196428         14.6457         14.6529         14.6529 
       0.202534         13.8882         13.8499         13.8499 
       0.208729         13.0394         13.0274         13.0274 
       0.214876         12.2436         12.2558         12.2558 
       0.220989         11.6138         11.5736         11.5736 
       0.227147         10.9821         10.9903         10.9903 
        0.23329         10.4974         10.5052         10.5052 
       0.239377          10.091         10.0947         10.0947 
       0.245482         9.70542         9.72108         9.72108 
       0.251667         9.36264         9.35257         9.35257 
       0.257832         8.97511         8.97738         8.97738 
       0.263955         8.59901         8.59416         8.59416 
       0.270079         8.21917         8.20889         8.20889 
        0.27624         7.86493         7.83365         7.83365 
       0.282372         7.51616         7.48638         7.48638 
        0.28843          7.1889         7.17664         7.17664 
       0.294538         6.91278         6.89912         6.89912 
       0.300721         6.67797         6.64817         6.64817 
        0.30691         6.42928         6.41795         6.41795 
       0.313033         6.21496         6.20141         6.20141 
       0.319153         5.97462         5.98932         5.98932 
       0.325316         5.80339         5.77696         5.77696 
        0.33145         5.58824         5.56762         5.56762 
       0.337538         5.38375         5.36495         5.36495 
       0.343633         5.18305         5.17118         5.17118 
       0.349808         5.00668         4.98706         4.98706 
       0.355968         4.83938         4.81711         4.81711 
       0.362074         4.67864         4.66119         4.66119 
       0.368217         4.53328         4.51487         4.51487 
       0.374374         4.38184         4.37597         4.37597 
       0.380519         4.26026          4.2424          4.2424 
       0.386598          4.1354         4.11385         4.11385 
       0.392688         4.01554         3.98798         3.98798 
        0.39888         3.88547         3.86339         3.86339 
       0.405048         3.76784         3.74372         3.74372 
       0.411186         3.65653         3.62979         3.62979 
       0.417313         3.54149         3.52182         3.52182 
       0.423458         3.44585         3.41942         3.41942 
       0.429607          3.3411         3.32223         3.32223 
       0.435692         3.24939         3.23059         3.23059 
       0.441815          3.1623         3.14212         3.14212 
       0.447964          3.0858         3.05629         3.05629 
       0.454126         2.99183         2.97286         2.97286 
       0.460267         2.91012         2.89229         2.89229 
       0.466387         2.82967         2.81456         2.81456 
        0.47254          2.7571         2.73914         2.73914 
       0.478662         2.68794         2.66699         2.66699 
       0.484765         2.61506         2.59805         2.59805 
       0.490885         2.55031         2.53177         2.53177 
       0.497035         2.49603         2.46776         2.46776 
       0.503198         2.42874         2.40605         2.40605 
       0.509342         2.37301         2.34669         2.34669 
       0.515458         2.31074         2.28953         2.28953 
       0.521598         2.25622          2.2339          2.2339 
       0.527764         2.19749         2.17975         2.17975 
       0.533884         2.15316         2.12772         2.12772 
           0.54         2.10063         2.07747         2.07747 
       0.546137          2.0542         2.02875         2.02875 
       0.552299         2.00554         1.98148         1.98148 
       0.558452         1.95552          1.9359          1.9359 
       0.564573         1.91494         1.89206         1.89206 
       0.570708         1.87257         1.84955         1.84955 
       0.576825         1.82912          1.8085          1.8085 
       0.582926         1.79348          1.7688          1.7688 
       0.589034         1.74602         1.73021         1.73021 
       0.595184          1.7106         1.69249         1.69249 
       0.601379         1.67421         1.65564         1.65564 
       0.607522         1.64238          1.6202          1.6202 
       0.613639           1.612         1.58598         1.58598 
       0.619772         1.57219         1.55271         1.55271 
       0.625918         1.54164         1.52036         1.52036 
       0.632068         1.51307         1.48893         1.48893 
       0.638161         1.47993          1.4587          1.4587 
         0.6443         1.45016         1.42909         1.42909 
       0.650464         1.41807          1.4002          1.4002 
       0.656582         1.39316         1.37232         1.37232 
       0.662703         1.36639         1.34521         1.34521 
       0.668861         1.34325         1.31868         1.31868 
       0.675024         1.31418         1.29286         1.29286 
       0.681124         1.28614         1.26801         1.26801 
       0.687237         1.26552         1.24377         1.24377 
       0.693381         1.24247         1.22006         1.22006 
       0.699536         1.21345         1.19694         1.19694 
       0.705665         1.19227         1.17452         1.17452 
       0.711789         1.17295         1.15271         1.15271 
       0.717957         1.14917         1.13131         1.13131 
        0.72409         1.12957         1.11058         1.11058 
       0.730186         1.10824         1.09051         1.09051 
       0.736317         1.09264         1.07082         1.07082 
       0.742472         1.07213         1.05156         1.05156 
       0.748622         1.05205          1.0328          1.0328 
        0.75476         1.03152         1.01454         1.01454 
       0.760888         1.01321         0.99676         0.99676 
       0.767043         1.00118        0.979339        0.979339 
       0.773185        0.980707        0.962377        0.962377 
       0.779291        0.964422        0.945919        0.945919 
       0.785407        0.948619        0.929827        0.929827 
       0.791564         0.93316        0.914014        0.914014 
       0.797719        0.918883         0.89858         0.89858 
       0.803834        0.903992        0.883606        0.883606 
       0.809972        0.888267        0.868923        0.868923 
       0.816124         0.87298        0.854546        0.854546 
       0.822261        0.857709        0.840538        0.840538 
       0.828378        0.845849         0.82689         0.82689 
       0.834502        0.833605        0.813537        0.813537 
       0.840667        0.817565        0.800397        0.800397 
       0.846816        0.805087        0.787588        0.787588 
       0.852925        0.795089        0.775143        0.775143 
       0.859047        0.782433        0.762945        0.762945 
       0.865192        0.768959        0.750972        0.750972 
       0.871341         0.75688        0.739251        0.739251 
       0.877463        0.748044        0.727837        0.727837 
       0.883569         0.73491        0.716697        0.716697 
       0.889708        0.723824        0.705735        0.705735 
       0.895864        0.712875        0.694977        0.694977 
       0.902008        0.701656        0.684469        0.684469 
       0.908149        0.691175        0.674188        0.674188 
       0.914301        0.678774        0.664103        0.664103 
       0.920448        0.670115        0.654237        0.654237 
       0.926574         0.66016        0.644608        0.644608 
       0.932687        0.650356        0.635196        0.635196 
       0.938823        0.643438         0.62594         0.62594 
       0.944975        0.633475         0.61685         0.61685 
       0.951105        0.624969        0.607975        0.607975 
       0.957225        0.617392        0.599293        0.599293 
       0.963368        0.608001        0.590752        0.590752 
       0.969511        0.598338         0.58238         0.58238 
       0.975621        0.589603        0.574217        0.574217 
       0.981748        0.583667        0.566191        0.566191 
       0.987916        0.574969        0.558269        0.558269 
        0.99406         0.56656        0.550531        0.550531 
        1.00019        0.560161        0.542956        0.542956 
        1.00632        0.550695        0.535532        0.535532 
        1.01246        0.543347        0.528238        0.528238 
        1.01859        0.537159        0.521092        0.521092 
        1.02471        0.529548         0.51409         0.51409 
        1.03085        0.524253        0.507193        0.507193 
        1.03698        0.516062        0.500438        0.500438 
        1.04314          0.5097         0.49378         0.49378 
        1.04929        0.502417        0.487259        0.487259 
        1.05541        0.497042        0.480884        0.480884 
        1.06154         0.48972        0.474608        0.474608 
        1.06769        0.482958        0.468436        0.468436 
        1.07382        0.477426        0.462395        0.462395 
        1.07993        0.470593        0.456476        0.456476 
        1.08607        0.466586        0.450636        0.450636 
        1.09222        0.459549        0.444894        0.444894 
        1.09836        0.455305         0.43926         0.43926 
        1.10449        0.449449        0.433731        0.433731 
        1.11063        0.442677        0.428292        0.428292 
        1.11677        0.436781        0.422949        0.422949 
         1.1229        0.432383        0.417707        0.417707 
        1.12903        0.426545        0.412551        0.412551 
        1.13518        0.422137        0.407478        0.407478 
        1.14131        0.416503        0.402494        0.402494 
        1.14745        0.409955        0.397598        0.397598 
        1.15359        0.406405        0.392782        0.392782 
        1.15973        0.400564        0.388046        0.388046 
        1.16584        0.397472        0.383409        0.383409 
        1.17197        0.392394        0.378843        0.378843 
        1.17811        0.388343        0.374337        0.374337 
        1.18424         0.38458        0.369919        0.369919 
        1.19038        0.379075         0.36556         0.36556 
        1.19652        0.373756        0.361273        0.361273 
        1.20267        0.370968        0.357056        0.357056 
        1.20881         0.36619        0.352908        0.352908 
        1.21495        0.362909        0.348833        0.348833 
        1.22108        0.358275        0.344823        0.344823 
         1.2272        0.354743        0.340887        0.340887 
        1.23334        0.350302        0.337003        0.337003 
        1.23949        0.346483        0.333172        0.333172 
        1.24562        0.342659        0.329411        0.329411 
        1.25174        0.339138        0.325715        0.325715 
        1.25789        0.335914        0.322064        0.322064 
        1.26402        0.331035        0.318477        0.318477 
        1.27014        0.327844        0.314954        0.314954 
        1.27628        0.324875        0.311473        0.311473 
        1.28244        0.320224         0.30804         0.30804 
        1.28858        0.317406        0.304662        0.304662 
        1.29471        0.314853        0.301344        0.301344 
        1.30084        0.310691        0.298078        0.298078 
        1.30697        0.307474        0.294857        0.294857 
        1.31312        0.303262        0.291678        0.291678 
        1.31925        0.300596        0.288557        0.288557 
        1.32537        0.297914        0.285485        0.285485 
        1.33151        0.295161        0.282447        0.282447 
        1.33765        0.291982        0.279455        0.279455 
        1.34378        0.288333        0.276513        0.276513 
        1.34992        0.285698        0.273612        0.273612 
        1.35606        0.282788        0.270746        0.270746 
         1.3622        0.279949        0.267927        0.267927 
        1.36833        0.276901        0.265155        0.265155 
        1.37445        0.273444        0.262424        0.262424 
        1.38059        0.270979        0.259724        0.259724 
        1.38675        0.269538        0.257055        0.257055 
        1.39288        0.266261        0.254435        0.254435 
        1.39901        0.263612        0.251853        0.251853 
        1.40515        0.261364        0.249301        0.249301 
         1.4113         0.25805        0.246786        0.246786 
        1.41742         0.25562        0.244316        0.244316 
        1.42355        0.253807        0.241874        0.241874 
         1.4297        0.250718         0.23946         0.23946 
        1.43585        0.248566        0.237079        0.237079 
        1.44198        0.246606         0.23474         0.23474 
        1.44809        0.243695        0.232438        0.232438 
        1.45423        0.241646        0.230158        0.230158 
        1.46036        0.239122        0.227913        0.227913 
        1.46649        0.237426        0.225697        0.225697 
        1.47263        0.234871        0.223509        0.223509 
        1.47877        0.232054        0.221352        0.221352 
        1.48491        0.230389         0.21922         0.21922 
        1.49104        0.227579         0.21712         0.21712 
        1.49718         0.22562        0.215047        0.215047 
        1.50333        0.224132        0.212998        0.212998 
        1.50947        0.221711         0.21098         0.21098 
         1.5156        0.219554        0.208991        0.208991 
        1.52172        0.217744        0.207029        0.207029 
        1.52787        0.215671        0.205087        0.205087 
          1.534        0.213453        0.203173        0.203173 
        1.54013        0.211501        0.201286        0.201286 
        1.54627        0.210036         0.19942         0.19942 
        1.55241        0.207669        0.197576        0.197576 
        1.55855        0.205619        0.195759        0.195759 
        1.56467        0.204732        0.193971        0.193971 
         1.5708        0.202466        0.192199        0.192199 
        1.57695        0.200628        0.190447        0.190447 
        1.58308        0.198761        0.188721        0.188721 
        1.58922        0.197147        0.187016        0.187016 
        1.59535        0.195327        0.185332        0.185332 
         1.6015        0.193443        0.183667        0.183667 
        1.60764        0.192024        0.182023        0.182023 
        1.61376         0.18992        0.180404        0.180404 
        1.61989        0.188571        0.178803        0.178803 
        1.62604        0.187129        0.177219        0.177219 
        1.63218        0.185471        0.175655        0.175655 
        1.63831        0.183918        0.174113        0.174113 
        1.64444        0.182331         0.17259         0.17259 
        1.65059        0.180842        0.171081        0.171081 
        1.65673        0.179305        0.169592        0.169592 
        1.66285        0.178028        0.168125        0.168125 
        1.66898        0.176404        0.166676        0.166676 
        1.67512         0.17463         0.16524         0.16524 
        1.68127        0.173057         0.16382         0.16382 
         1.6874        0.172054        0.162421        0.162421 
        1.69353        0.170175        0.161038        0.161038 
        1.69967        0.169345        0.159669        0.159669 
        1.70581        0.167332        0.158316        0.158316 
        1.71193        0.166183        0.156984        0.156984 
        1.71806        0.164569        0.155664        0.155664 
        1.72421        0.163758        0.154357        0.154357 
        1.73035          0.1621        0.153067        0.153067 
        1.73649        0.161026        0.151792        0.151792 
        1.74262         0.15961        0.150533        0.150533 
        1.74876        0.158276        0.149287        0.149287 
        1.75489        0.157251        0.148058        0.148058 
        1.76101        0.155659        0.146843        0.146843 
        1.76715        0.154449         0.14564         0.14564 
        1.77329        0.152996        0.144449        0.144449 
        1.77943        0.151935        0.143272        0.143272 
        1.78557        0.151044        0.142109        0.142109 
        1.79171        0.149787        0.140959        0.140959 
        1.79785        0.148606        0.139821        0.139821 
        1.80399        0.147368        0.138697        0.138697 
        1.81012        0.146364        0.137586        0.137586 
        1.81625        0.145074        0.136488        0.136488 
        1.82239        0.143965        0.135401        0.135401 
        1.82853        0.142762        0.134326        0.134326 
        1.83466        0.141792        0.133264        0.133264 
        1.84078         0.14064        0.132215        0.132215 
        1.84692        0.139441        0.131175        0.131175 
        1.85306        0.138677        0.130145        0.130145 
         1.8592        0.137314        0.129128        0.129128 
        1.86533        0.136509        0.128122        0.128122 
        1.87147        0.135393        0.127126        0.127126 
