# k  (h/Mpc)    P(k)  (Mpc/h)^3    P_linear(k)  (Mpc/h)^3     P_NL(k)  ShotnoiseSubtracted = false
     0.00783031         10911.9         11061.8         11061.8 
       0.013688           14084         13983.5         13983.5 
       0.019231         14427.2         14412.3         14412.3 
      0.0249154         13319.3         13573.3         13573.3 
      0.0312784         11900.7         12025.1         12025.1 
      0.0375637         10474.7         10492.4         10492.4 
      0.0433917         9166.02          9334.2          9334.2 
      0.0492413         8391.86         8470.93         8470.93 
      0.0555754          7559.3         7794.29         7794.29 
      0.0619321         7231.37         7249.27         7249.27 
       0.067871         6564.02         6752.51         6752.51 
      0.0738098         6039.02         6213.71         6213.71 
      0.0800417         5395.32         5606.42         5606.42 
      0.0862327          4881.9         5007.07         5007.07 
      0.0921407         4452.74         4491.65         4491.65 
      0.0982031            4004         4057.14         4057.14 
       0.104506            3771         3716.71         3716.71 
       0.110769         3512.28         3472.77         3472.77 
       0.116806         3309.25         3293.44         3293.44 
       0.122832          3160.5         3133.81         3133.81 
       0.129052         2932.28         2961.32         2961.32 
       0.135211         2762.47         2770.69         2770.69 
       0.141259         2620.08         2568.88         2568.88 
       0.147318         2453.98         2367.07         2367.07 
       0.153489          2249.3         2179.04         2179.04 
       0.159709         2128.89         2019.76         2019.76 
       0.165845         2051.27         1895.77         1895.77 
       0.171974         1940.61         1800.05         1800.05 
       0.178125         1853.21         1722.31         1722.31 
       0.184229         1781.74         1652.27         1652.27 
        0.19034         1673.92         1580.55         1580.55 
       0.196428         1638.82         1503.38         1503.38 
       0.202534         1576.13         1420.99         1420.99 
       0.208729         1497.53         1336.59         1336.59 
       0.214876         1425.83         1257.43         1257.43 
       0.220989         1380.29         1187.43         1187.43 
       0.227147         1316.05         1127.59         1127.59 
        0.23329         1267.29         1077.82         1077.82 
       0.239377         1246.54          1035.7          1035.7 
       0.245482         1168.35         997.371         997.371 
       0.251667         1160.08         959.563         959.563 
       0.257832          1115.9         921.067         921.067 
       0.263955         1078.72         881.748         881.748 
       0.270079         1041.39         842.219         842.219 
        0.27624         1029.29          803.72          803.72 
       0.282372         985.482         768.092         768.092 
        0.28843          972.26         736.312         736.312 
       0.294538         924.767         707.838         707.838 
       0.300721          921.61         682.092         682.092 
        0.30691         881.766         658.472         658.472 
       0.313033         865.232         636.254         636.254 
       0.319153         846.035         614.494         614.494 
       0.325316         819.393         592.705         592.705 
        0.33145          798.89         571.228         571.228 
       0.337538           787.6         550.434         550.434 
       0.343633         765.728         530.554         530.554 
       0.349808         740.328         511.663         511.663 
       0.355968         735.931         494.227         494.227 
       0.362074         725.394         478.228         478.228 
       0.368217         704.808         463.218         463.218 
       0.374374         675.876         448.966         448.966 
       0.380519          674.36         435.262         435.262 
       0.386598         657.562         422.075         422.075 
       0.392688         654.992         409.158         409.158 
        0.39888         635.964         396.376         396.376 
       0.405048         625.032         384.098         384.098 
       0.411186         615.314         372.409         372.409 
       0.417313         603.587         361.331         361.331 
       0.423458         593.286         350.826         350.826 
       0.429607          583.23         340.854         340.854 
       0.435692         570.135         331.452         331.452 
       0.441815         566.323         322.375         322.375 
       0.447964         554.295         313.569         313.569 
       0.454126         543.029         305.009         305.009 
       0.460267         533.835         296.743         296.743 
       0.466387         528.186         288.768         288.768 
        0.47254         518.464          281.03          281.03 
       0.478662         517.139         273.628         273.628 
       0.484765         501.291         266.555         266.555 
       0.490885         496.994         259.754         259.754 
       0.497035         487.713         253.187         253.187 
       0.503198         481.563         246.855         246.855 
       0.509342          477.53         240.765         240.765 
       0.515458         473.494         234.901         234.901 
       0.521598         462.896         229.193         229.193 
       0.527764         453.922         223.637         223.637 
       0.533884         452.299           218.3           218.3 
           0.54         446.344         213.144         213.144 
       0.546137          444.35         208.145         208.145 
       0.552299         435.792         203.296         203.296 
       0.558452         433.543         198.619         198.619 
       0.564573         426.901         194.121         194.121 
       0.570708         420.606          189.76          189.76 
       0.576825          411.53         185.548         185.548 
       0.582926         410.473         181.475         181.475 
       0.589034         406.591         177.516         177.516 
       0.595184         402.709         173.646         173.646 
       0.601379         397.851         169.865         169.865 
       0.607522         391.986         166.229         166.229 
       0.613639         390.554         162.718         162.718 
       0.619772         380.837         159.304         159.304 
       0.625918         380.103         155.985         155.985 
       0.632068         374.328         152.761         152.761 
       0.638161         372.915         149.659         149.659 
         0.6443         366.183         146.621         146.621 
       0.650464         363.527         143.657         143.657 
       0.656582         362.027         140.797         140.797 
       0.662703         359.761         138.015         138.015 
       0.668861         353.248         135.293         135.293 
       0.675024         349.886         132.644         132.644 
       0.681124         347.942         130.094         130.094 
       0.687237         344.263         127.608         127.608 
       0.693381         339.568         125.175         125.175 
       0.699536         336.315         122.803         122.803 
       0.705665         333.871         120.503         120.503 
       0.711789         331.192         118.265         118.265 
       0.717957         328.523          116.07          116.07 
        0.72409         325.562         113.943         113.943 
       0.730186         321.983         111.883         111.883 
       0.736317          318.96         109.864         109.864 
       0.742472         317.575         107.888         107.888 
       0.748622         314.332         105.963         105.963 
        0.75476         311.243          104.09          104.09 
       0.760888         307.615         102.265         102.265 
       0.767043          307.95         100.478         100.478 
       0.773185         303.791         98.7377         98.7377 
       0.779291         299.029         97.0491         97.0491 
       0.785407         298.195         95.3981         95.3981 
       0.791564          294.82         93.7757         93.7757 
       0.797719         292.444         92.1922         92.1922 
       0.803834         290.358         90.6559         90.6559 
       0.809972         288.648         89.1495         89.1495 
       0.816124         288.604         87.6745         87.6745 
       0.822261             284         86.2372         86.2372 
       0.828378         282.119          84.837          84.837 
       0.834502         281.059          83.467          83.467 
       0.840667           277.1         82.1189         82.1189 
       0.846816         275.642         80.8047         80.8047 
       0.852925         273.973         79.5279         79.5279 
       0.859047         272.091         78.2763         78.2763 
       0.865192          269.34          77.048          77.048 
       0.871341         267.165         75.8455         75.8455 
       0.877463         265.375         74.6744         74.6744 
       0.883569         264.075         73.5314         73.5314 
       0.889708         261.487         72.4067         72.4067 
       0.895864         258.408          71.303          71.303 
       0.902008         257.774         70.2249         70.2249 
       0.908149         256.422           69.17           69.17 
       0.914301         253.085         68.1354         68.1354 
       0.920448         251.292         67.1231         67.1231 
       0.926574         249.532         66.1353         66.1353 
       0.932687         249.583         65.1696         65.1696 
       0.938823         246.475           64.22           64.22 
       0.944975         245.147         63.2874         63.2874 
       0.951105         243.622         62.3768         62.3768 
       0.957225         241.458          61.486          61.486 
       0.963368         238.471         60.6097         60.6097 
       0.969511         237.502         59.7508         59.7508 
       0.975621         235.399         58.9132         58.9132 
       0.981748         235.637         58.0898         58.0898 
       0.987916         233.013         57.2771         57.2771 
        0.99406         230.452         56.4832         56.4832 
        1.00019         230.441          55.706          55.706 
        1.00632         228.422         54.9443         54.9443 
        1.01246         226.644         54.1959         54.1959 
        1.01859         226.249         53.4628         53.4628 
        1.02471         223.666         52.7443         52.7443 
        1.03085         221.315         52.0367         52.0367 
        1.03698         220.534         51.3437         51.3437 
        1.04314         218.661         50.6606         50.6606 
        1.04929         217.208         49.9916         49.9916 
        1.05541         216.913         49.3375         49.3375 
        1.06154         214.517         48.6936         48.6936 
        1.06769          214.08         48.0604         48.0604 
        1.07382         212.449         47.4406         47.4406 
        1.07993         210.533         46.8333         46.8333 
        1.08607         209.898         46.2342         46.2342 
        1.09222         208.552         45.6451         45.6451 
        1.09836         206.641          45.067          45.067 
        1.10449         204.632         44.4997         44.4997 
        1.11063         202.974         43.9417         43.9417 
        1.11677         202.708         43.3935         43.3935 
         1.1229         201.068         42.8557         42.8557 
        1.12903         199.899         42.3267         42.3267 
        1.13518         198.836         41.8062         41.8062 
        1.14131         197.076         41.2949         41.2949 
        1.14745         196.727         40.7925         40.7925 
        1.15359         195.087         40.2985         40.2985 
        1.15973         194.196         39.8125         39.8125 
        1.16584         192.106         39.3368         39.3368 
        1.17197         191.715         38.8683         38.8683 
        1.17811         190.208         38.4061         38.4061 
        1.18424         189.119         37.9527         37.9527 
        1.19038          188.51         37.5055         37.5055 
        1.19652         187.035         37.0657         37.0657 
        1.20267         186.304         36.6331         36.6331 
        1.20881         184.476         36.2075         36.2075 
        1.21495         183.718         35.7894         35.7894 
        1.22108          182.71          35.378          35.378 
         1.2272         181.077         34.9741         34.9741 
        1.23334         180.346         34.5757         34.5757 
        1.23949         178.994         34.1826         34.1826 
        1.24562         178.137         33.7968         33.7968 
        1.25174         176.101         33.4175         33.4175 
        1.25789          175.21          33.043          33.043 
        1.26402         174.325          32.675          32.675 
        1.27014         173.113         32.3135         32.3135 
        1.27628         172.279         31.9564         31.9564 
        1.28244         171.863         31.6041         31.6041 
        1.28858         170.411         31.2576         31.2576 
        1.29471         168.706         30.9171         30.9171 
        1.30084         168.082         30.5821         30.5821 
        1.30697          166.97         30.2515         30.2515 
        1.31312         166.134         29.9254         29.9254 
        1.31925         165.204         29.6052         29.6052 
        1.32537         164.198           29.29           29.29 
        1.33151          162.67         28.9783         28.9783 
        1.33765          162.16         28.6714         28.6714 
        1.34378         161.106         28.3695         28.3695 
        1.34992         160.439         28.0719         28.0719 
        1.35606         159.808         27.7779         27.7779 
         1.3622         158.444         27.4886         27.4886 
        1.36833          157.22         27.2042         27.2042 
        1.37445         156.212         26.9241         26.9241 
        1.38059         155.556          26.647          26.647 
        1.38675         154.626         26.3732         26.3732 
        1.39288         153.873         26.1044         26.1044 
        1.39901         153.556         25.8395         25.8395 
        1.40515          152.03         25.5777         25.5777 
         1.4113         150.702         25.3196         25.3196 
        1.41742         150.164         25.0662         25.0662 
        1.42355         149.135         24.8157         24.8157 
         1.4297         148.338          24.568          24.568 
        1.43585         146.996         24.3237         24.3237 
        1.44198         146.724         24.0838         24.0838 
        1.44809         145.797         23.8475         23.8475 
        1.45423         144.694         23.6136         23.6136 
        1.46036         144.054         23.3832         23.3832 
        1.46649         143.007         23.1559         23.1559 
        1.47263         142.415         22.9315         22.9315 
        1.47877         141.696         22.7101         22.7101 
        1.48491          140.16         22.4914         22.4914 
        1.49104         140.019          22.276          22.276 
        1.49718         138.481         22.0633         22.0633 
        1.50333         138.053         21.8531         21.8531 
        1.50947          137.45          21.646          21.646 
         1.5156          136.43          21.442          21.442 
        1.52172         135.531         21.2406         21.2406 
        1.52787         134.795         21.0414         21.0414 
          1.534         134.083         20.8451         20.8451 
        1.54013         133.065         20.6514         20.6514 
        1.54627         132.582         20.4599         20.4599 
        1.55241         131.508         20.2708         20.2708 
        1.55855         130.921         20.0844         20.0844 
        1.56467          130.34         19.9009         19.9009 
         1.5708         129.367         19.7191         19.7191 
        1.57695         128.752         19.5394         19.5394 
        1.58308         128.035         19.3623         19.3623 
        1.58922          127.47         19.1873         19.1873 
        1.59535         126.395         19.0146         19.0146 
         1.6015          125.92         18.8437         18.8437 
        1.60764         125.127         18.6751         18.6751 
        1.61376         124.651          18.509          18.509 
        1.61989         123.602         18.3448         18.3448 
        1.62604         123.082         18.1822         18.1822 
        1.63218         122.357         18.0217         18.0217 
        1.63831          121.43         17.8636         17.8636 
        1.64444         121.069         17.7073         17.7073 
        1.65059         120.432         17.5525         17.5525 
        1.65673         119.169         17.3997         17.3997 
        1.66285         119.113         17.2492         17.2492 
        1.66898         118.274         17.1005         17.1005 
        1.67512         117.701         16.9532         16.9532 
        1.68127         116.786         16.8075         16.8075 
         1.6874         115.801         16.6639         16.6639 
        1.69353         115.438         16.5221         16.5221 
        1.69967          114.93         16.3816         16.3816 
        1.70581         114.162         16.2428         16.2428 
        1.71193         113.665         16.1061         16.1061 
        1.71806         112.933         15.9707         15.9707 
        1.72421         112.241         15.8367         15.8367 
        1.73035         111.774         15.7043         15.7043 
        1.73649         110.979         15.5735         15.5735 
        1.74262         110.295         15.4443         15.4443 
        1.74876          109.95         15.3164         15.3164 
        1.75489         108.911         15.1903         15.1903 
        1.76101         108.534         15.0657         15.0657 
        1.76715         107.653         14.9423         14.9423 
        1.77329          107.44         14.8201         14.8201 
        1.77943         106.487         14.6993         14.6993 
        1.78557         106.005           14.58           14.58 
        1.79171         105.355          14.462          14.462 
        1.79785         104.771         14.3453         14.3453 
        1.80399         104.183         14.2299         14.2299 
        1.81012         103.694          14.116          14.116 
        1.81625         102.972         14.0034         14.0034 
        1.82239         102.699         13.8918         13.8918 
        1.82853         102.169         13.7815         13.7815 
        1.83466          101.31         13.6725         13.6725 
        1.84078          101.08         13.5649         13.5649 
        1.84692         100.193         13.4582         13.4582 
        1.85306         99.6172         13.3525         13.3525 
         1.8592         99.0498         13.2482         13.2482 
        1.86533         98.5236          13.145          13.145 
        1.87147         97.7433         13.0428         13.0428 
        1.87761         97.4903         12.9417         12.9417 
