# k  (h/Mpc)    Pcb(k)  (Mpc/h)^3    Pcb_linear(k) (Mpc/h)^3    Pcb_NL(k) (Mpc/h)^3   ShotnoiseSubtracted = false
     0.00783031           14456         14668.2         14668.2 
       0.013688         18701.6         18540.6         18540.6 
       0.019231         19122.6         19108.3         19108.3 
      0.0249154         17595.3         17995.4         17995.4 
      0.0312784         15728.5         15942.5         15942.5 
      0.0375637         13859.4         13910.4         13910.4 
      0.0433917           12093         12374.8         12374.8 
      0.0492413           11086         11230.3         11230.3 
      0.0555754         9946.62         10333.2         10333.2 
      0.0619321         9549.75         9610.57         9610.57 
       0.067871         8633.39         8951.98         8951.98 
      0.0738098         7946.69         8237.67         8237.67 
      0.0800417         7088.66         7432.55         7432.55 
      0.0862327         6428.11         6637.97         6637.97 
      0.0921407         5884.04         5954.66         5954.66 
      0.0982031         5295.11         5378.62         5378.62 
       0.104506         5004.27          4927.3          4927.3 
       0.110769         4660.63          4603.9          4603.9 
       0.116806         4398.83         4366.16         4366.16 
       0.122832         4194.19         4154.53         4154.53 
       0.129052         3884.01         3925.86         3925.86 
       0.135211         3663.48         3673.14         3673.14 
       0.141259         3488.51          3405.6          3405.6 
       0.147318          3277.9         3138.05         3138.05 
       0.153489         3006.31         2888.78         2888.78 
       0.159709         2853.12         2677.62         2677.62 
       0.165845         2761.77         2513.24         2513.24 
       0.171974         2617.35         2386.34         2386.34 
       0.178125          2497.8         2283.29         2283.29 
       0.184229         2395.25         2190.43         2190.43 
        0.19034         2264.36         2095.35         2095.35 
       0.196428          2216.4         1993.04         1993.04 
       0.202534         2128.39         1883.82         1883.82 
       0.208729         2031.47         1771.93         1771.93 
       0.214876         1948.27         1666.99         1666.99 
       0.220989          1885.1         1574.19         1574.19 
       0.227147         1807.32         1494.86         1494.86 
        0.23329          1741.4         1428.87         1428.87 
       0.239377         1718.51         1373.04         1373.04 
       0.245482         1614.47         1322.22         1322.22 
       0.251667         1605.96          1272.1          1272.1 
       0.257832         1543.47         1221.06         1221.06 
       0.263955         1492.81         1168.94         1168.94 
       0.270079         1443.84         1116.54         1116.54 
        0.27624         1427.63          1065.5          1065.5 
       0.282372          1368.1         1018.26         1018.26 
        0.28843         1362.43         976.133         976.133 
       0.294538         1296.87         938.386         938.386 
       0.300721          1290.8         904.254         904.254 
        0.30691         1240.53          872.94          872.94 
       0.313033         1216.85         843.486         843.486 
       0.319153         1198.93         814.639         814.639 
       0.325316         1159.37         785.754         785.754 
        0.33145         1134.35         757.281         757.281 
       0.337538         1115.38         729.714         729.714 
       0.343633         1091.11         703.359         703.359 
       0.349808         1055.83         678.316         678.316 
       0.355968         1048.97         655.199         655.199 
       0.362074         1038.97         633.991         633.991 
       0.368217         1007.21          614.09          614.09 
       0.374374         969.605         595.197         595.197 
       0.380519         971.994          577.03          577.03 
       0.386598          945.81         559.545         559.545 
       0.392688         942.183         542.424         542.424 
        0.39888         915.892         525.479         525.479 
       0.405048         904.428         509.201         509.201 
       0.411186         892.113         493.705         493.705 
       0.417313         873.957          479.02          479.02 
       0.423458         859.275         465.092         465.092 
       0.429607         848.133         451.872         451.872 
       0.435692         830.817         439.408         439.408 
       0.441815         825.088         427.375         427.375 
       0.447964         807.463           415.7           415.7 
       0.454126         800.062         404.353         404.353 
       0.460267         781.692         393.394         393.394 
       0.466387         772.811         382.822         382.822 
        0.47254          766.02         372.563         372.563 
       0.478662         759.855          362.75          362.75 
       0.484765         738.674         353.373         353.373 
       0.490885         734.126         344.357         344.357 
       0.497035          718.89         335.652         335.652 
       0.503198         714.382         327.258         327.258 
       0.509342         706.878         319.184         319.184 
       0.515458         703.221          311.41          311.41 
       0.521598         686.405         303.843         303.843 
       0.527764         673.122         296.478         296.478 
       0.533884         672.321         289.401         289.401 
           0.54         665.042         282.566         282.566 
       0.546137         659.888         275.939         275.939 
       0.552299         650.529         269.511         269.511 
       0.558452         646.468          263.31          263.31 
       0.564573         637.666         257.348         257.348 
       0.570708         630.883         251.566         251.566 
       0.576825         613.759         245.983         245.983 
       0.582926         616.775         240.583         240.583 
       0.589034           610.7         235.334         235.334 
       0.595184         604.811         230.204         230.204 
       0.601379         596.629         225.191         225.191 
       0.607522         588.788         220.371         220.371 
       0.613639         588.972         215.716         215.716 
       0.619772         575.277         211.191         211.191 
       0.625918         572.831          206.79          206.79 
       0.632068         565.225         202.517         202.517 
       0.638161         563.319         198.404         198.404 
         0.6443         553.109         194.376         194.376 
       0.650464         551.201         190.447         190.447 
       0.656582         547.688         186.655         186.655 
       0.662703         545.086         182.967         182.967 
       0.668861         535.641         179.359         179.359 
       0.675024         531.417         175.848         175.848 
       0.681124         528.129         172.467         172.467 
       0.687237         523.553          169.17          169.17 
       0.693381          517.16         165.945         165.945 
       0.699536         509.158           162.8           162.8 
       0.705665         508.442         159.752         159.752 
       0.711789         505.251         156.785         156.785 
       0.717957         500.531         153.875         153.875 
        0.72409         498.129         151.055         151.055 
       0.730186         490.721         148.325         148.325 
       0.736317         487.699         145.648         145.648 
       0.742472         485.528         143.028         143.028 
       0.748622         479.909         140.476         140.476 
        0.75476         473.238         137.992         137.992 
       0.760888         468.993         135.574         135.574 
       0.767043         469.565         133.204         133.204 
       0.773185         464.311         130.897         130.897 
       0.779291         459.346         128.659         128.659 
       0.785407         456.206          126.47          126.47 
       0.791564         450.991         124.319         124.319 
       0.797719         448.884          122.22          122.22 
       0.803834         444.536         120.183         120.183 
       0.809972         443.208         118.186         118.186 
       0.816124         442.033         116.231         116.231 
       0.822261         435.567         114.325         114.325 
       0.828378         433.112         112.469         112.469 
       0.834502         428.922         110.653         110.653 
       0.840667         425.302         108.865         108.865 
       0.846816         423.362         107.123         107.123 
       0.852925         419.927         105.431         105.431 
       0.859047         418.734         103.771         103.771 
       0.865192         413.623         102.143         102.143 
       0.871341         410.321         100.549         100.549 
       0.877463         409.514         98.9963         98.9963 
       0.883569         405.769         97.4809         97.4809 
       0.889708         402.914           95.99           95.99 
       0.895864         400.528         94.5268         94.5268 
       0.902008         397.635         93.0976         93.0976 
       0.908149         393.443         91.6991         91.6991 
       0.914301         390.691         90.3275         90.3275 
       0.920448          388.49         88.9855         88.9855 
       0.926574         382.817         87.6759         87.6759 
       0.932687         383.236         86.3957         86.3957 
       0.938823         378.895         85.1368         85.1368 
       0.944975         379.209         83.9004         83.9004 
       0.951105         374.374         82.6933         82.6933 
       0.957225         372.081         81.5123         81.5123 
       0.963368         367.998         80.3507         80.3507 
       0.969511         366.856         79.2119         79.2119 
       0.975621         364.239         78.1016         78.1016 
       0.981748         362.707           77.01           77.01 
       0.987916         360.479         75.9326         75.9326 
        0.99406         354.546           74.88           74.88 
        1.00019         353.603         73.8498         73.8498 
        1.00632         351.899           72.84           72.84 
        1.01246          349.08         71.8479         71.8479 
        1.01859         349.375          70.876          70.876 
        1.02471         344.295         69.9235         69.9235 
        1.03085          342.24         68.9854         68.9854 
        1.03698         341.312         68.0667         68.0667 
        1.04314         337.982          67.161          67.161 
        1.04929         334.882         66.2741         66.2741 
        1.05541         335.426          65.407          65.407 
        1.06154         329.912         64.5534         64.5534 
        1.06769         328.767         63.7139         63.7139 
        1.07382          326.71         62.8923         62.8923 
        1.07993         324.557         62.0872         62.0872 
        1.08607         323.703         61.2929         61.2929 
        1.09222         320.633         60.5119         60.5119 
        1.09836         318.584         59.7456         59.7456 
        1.10449         315.453         58.9935         58.9935 
        1.11063         312.479         58.2537         58.2537 
        1.11677         312.426          57.527          57.527 
         1.1229         310.389         56.8141         56.8141 
        1.12903         308.053         56.1127         56.1127 
        1.13518         305.391         55.4228         55.4228 
        1.14131         303.794         54.7449         54.7449 
        1.14745         302.296         54.0789         54.0789 
        1.15359         300.202         53.4239         53.4239 
        1.15973         298.124         52.7797         52.7797 
        1.16584         296.011         52.1491         52.1491 
        1.17197         295.672         51.5279         51.5279 
        1.17811         292.191         50.9151         50.9151 
        1.18424         290.049         50.3142         50.3142 
        1.19038         289.024         49.7213         49.7213 
        1.19652         286.721         49.1382         49.1382 
        1.20267         286.016         48.5646         48.5646 
        1.20881         283.855         48.0004         48.0004 
        1.21495         281.606         47.4461         47.4461 
        1.22108         280.046         46.9008         46.9008 
         1.2272         278.231         46.3654         46.3654 
        1.23334         276.552         45.8372         45.8372 
        1.23949          274.89         45.3161         45.3161 
        1.24562         273.579         44.8046         44.8046 
        1.25174         271.236         44.3018         44.3018 
        1.25789         269.012         43.8053         43.8053 
        1.26402         267.302         43.3174         43.3174 
        1.27014         265.632         42.8381         42.8381 
        1.27628         264.171         42.3648         42.3648 
        1.28244         263.634         41.8977         41.8977 
        1.28858         260.947         41.4384         41.4384 
        1.29471         259.073          40.987          40.987 
        1.30084         257.706         40.5428         40.5428 
        1.30697         256.153         40.1046         40.1046 
        1.31312         253.617         39.6723         39.6723 
        1.31925         253.159         39.2478         39.2478 
        1.32537         251.925         38.8299         38.8299 
        1.33151         249.402         38.4167         38.4167 
        1.33765         247.687         38.0098         38.0098 
        1.34378         246.888         37.6096         37.6096 
        1.34992         245.328          37.215          37.215 
        1.35606         244.806         36.8253         36.8253 
         1.3622         242.548         36.4418         36.4418 
        1.36833          240.42         36.0648         36.0648 
        1.37445         239.391         35.6934         35.6934 
        1.38059         237.266         35.3261         35.3261 
        1.38675         236.441         34.9631         34.9631 
        1.39288         234.814         34.6067         34.6067 
        1.39901         234.161         34.2555         34.2555 
        1.40515         232.071         33.9085         33.9085 
         1.4113         230.795         33.5664         33.5664 
        1.41742         229.085         33.2303         33.2303 
        1.42355          227.87         32.8983         32.8983 
         1.4297          226.01         32.5699         32.5699 
        1.43585         224.898         32.2461         32.2461 
        1.44198         223.682          31.928          31.928 
        1.44809         222.517         31.6148         31.6148 
        1.45423         221.003         31.3047         31.3047 
        1.46036         219.844         30.9993         30.9993 
        1.46649          217.98         30.6979         30.6979 
        1.47263         216.737         30.4004         30.4004 
        1.47877         215.485         30.1069         30.1069 
        1.48491         213.627         29.8169         29.8169 
        1.49104         213.005         29.5314         29.5314 
        1.49718         211.024         29.2494         29.2494 
        1.50333         210.317         28.9707         28.9707 
        1.50947         208.947         28.6962         28.6962 
         1.5156         207.019         28.4258         28.4258 
        1.52172          206.19         28.1588         28.1588 
        1.52787         204.656         27.8947         27.8947 
          1.534         204.002         27.6344         27.6344 
        1.54013         202.297         27.3777         27.3777 
        1.54627          201.26         27.1238         27.1238 
        1.55241         199.933         26.8732         26.8732 
        1.55855          198.63          26.626          26.626 
        1.56467         197.287         26.3827         26.3827 
         1.5708         196.793         26.1417         26.1417 
        1.57695         195.208         25.9035         25.9035 
        1.58308         194.131         25.6687         25.6687 
        1.58922         192.438         25.4367         25.4367 
        1.59535         190.988         25.2077         25.2077 
         1.6015         190.596         24.9812         24.9812 
        1.60764          189.19         24.7577         24.7577 
        1.61376         188.005         24.5374         24.5374 
        1.61989         186.987         24.3198         24.3198 
        1.62604         185.771         24.1043         24.1043 
        1.63218         184.725         23.8915         23.8915 
        1.63831         183.387         23.6818         23.6818 
        1.64444         182.591         23.4746         23.4746 
        1.65059         181.261         23.2694         23.2694 
        1.65673         180.037         23.0669         23.0669 
        1.66285         179.055         22.8674         22.8674 
        1.66898         177.848         22.6702         22.6702 
        1.67512         177.518          22.475          22.475 
        1.68127         175.511         22.2819         22.2819 
         1.6874         174.659         22.0915         22.0915 
        1.69353         173.742         21.9034         21.9034 
        1.69967         172.231         21.7172         21.7172 
        1.70581         171.618         21.5331         21.5331 
        1.71193         170.161          21.352          21.352 
        1.71806         169.709         21.1725         21.1725 
        1.72421         168.378         20.9948         20.9948 
        1.73035         167.655         20.8193         20.8193 
        1.73649         166.675         20.6458         20.6458 
        1.74262         165.447         20.4745         20.4745 
        1.74876         164.512         20.3051         20.3051 
        1.75489         163.443         20.1379         20.1379 
        1.76101         162.187         19.9727         19.9727 
        1.76715         161.788         19.8091         19.8091 
        1.77329         160.811         19.6471         19.6471 
        1.77943         159.789         19.4869         19.4869 
        1.78557          158.85         19.3288         19.3288 
        1.79171         157.988         19.1723         19.1723 
        1.79785          156.72         19.0176         19.0176 
        1.80399         155.852         18.8647         18.8647 
        1.81012         154.884         18.7136         18.7136 
        1.81625         154.282         18.5643         18.5643 
        1.82239         153.106         18.4164         18.4164 
        1.82853         152.606         18.2702         18.2702 
        1.83466         151.301         18.1257         18.1257 
        1.84078         150.735          17.983          17.983 
        1.84692         149.175         17.8416         17.8416 
        1.85306         148.963         17.7015         17.7015 
         1.8592         147.833         17.5632         17.5632 
        1.86533         146.944         17.4264         17.4264 
        1.87147         145.882          17.291          17.291 
