# k  (h/Mpc)    P(k)  (Mpc/h)^3    P_linear(k)  (Mpc/h)^3     P_NL(k)  ShotnoiseSubtracted = false
     0.00783031         1270.71         1283.38         1283.38 
       0.013688         1622.17         1623.42         1623.42 
       0.019231         1673.93         1673.66         1673.66 
      0.0249154          1566.8         1576.47         1576.47 
      0.0312784         1394.99         1396.79         1396.79 
      0.0375637          1221.7         1218.84         1218.84 
      0.0433917         1081.74         1084.34         1084.34 
      0.0492413         984.483         984.085         984.085 
      0.0555754         900.462         905.498         905.498 
      0.0619321         845.556         842.195         842.195 
       0.067871         781.164         784.493         784.493 
      0.0738098         718.248         721.904         721.904 
      0.0800417         646.226         651.354         651.354 
      0.0862327         579.519         581.726         581.726 
      0.0921407         521.713         521.847         521.847 
      0.0982031         469.897         471.367         471.367 
       0.104506         434.329         431.817         431.817 
       0.110769         405.234         403.476         403.476 
       0.116806         381.913         382.643         382.643 
       0.122832         365.084         364.097         364.097 
       0.129052         342.826         344.058         344.058 
       0.135211          320.73          321.91          321.91 
       0.141259         299.316         298.464         298.464 
       0.147318         277.337         275.017         275.017 
       0.153489          254.53         253.171         253.171 
       0.159709         236.707         234.665         234.665 
       0.165845         224.319         220.259         220.259 
       0.171974         211.198         209.139         209.139 
       0.178125         202.389         200.107         200.107 
       0.184229         194.768         191.969         191.969 
        0.19034         184.179         183.636         183.636 
       0.196428         176.923          174.67          174.67 
       0.202534         168.984         165.098         165.098 
       0.208729         158.473         155.293         155.293 
       0.214876         148.447         146.095         146.095 
       0.220989         142.182         137.963         137.963 
       0.227147         133.666          131.01          131.01 
        0.23329         128.026         125.227         125.227 
       0.239377         123.657         120.334         120.334 
       0.245482         117.958          115.88          115.88 
       0.251667         114.809         111.488         111.488 
       0.257832         110.295         107.015         107.015 
       0.263955         105.701         102.447         102.447 
       0.270079         101.358          97.854          97.854 
        0.27624         97.8698         93.3809         93.3809 
       0.282372         93.6806         89.2415         89.2415 
        0.28843         89.5721         85.5492         85.5492 
       0.294538         86.1562         82.2409         82.2409 
       0.300721         83.9152         79.2495         79.2495 
        0.30691         80.4408         76.5052         76.5052 
       0.313033         77.9079         73.9238         73.9238 
       0.319153         74.3694         71.3956         71.3956 
       0.325316         73.0471         68.8641         68.8641 
        0.33145         70.2238         66.3687         66.3687 
       0.337538         68.1272         63.9528         63.9528 
       0.343633         65.6285          61.643          61.643 
       0.349808         63.6121         59.4482         59.4482 
       0.355968          61.695         57.4223         57.4223 
       0.362074         59.7294         55.5635         55.5635 
       0.368217         57.9742         53.8195         53.8195 
       0.374374         56.1412         52.1636         52.1636 
       0.380519         54.7235         50.5714         50.5714 
       0.386598         53.2028         49.0393         49.0393 
       0.392688         51.9705         47.5385         47.5385 
        0.39888         50.3561         46.0535         46.0535 
       0.405048         49.0747         44.6269         44.6269 
       0.411186         47.8469         43.2688         43.2688 
       0.417313         46.2269         41.9817         41.9817 
       0.423458         45.0541         40.7611         40.7611 
       0.429607         43.7883         39.6026         39.6026 
       0.435692         42.5091         38.5102         38.5102 
       0.441815         41.6937         37.4556         37.4556 
       0.447964         40.9456         36.4324         36.4324 
       0.454126         39.3867         35.4379         35.4379 
       0.460267         38.5954         34.4774         34.4774 
       0.466387         37.4426         33.5509         33.5509 
        0.47254         36.8139         32.6518         32.6518 
       0.478662         36.0881         31.7918         31.7918 
       0.484765         35.0643         30.9701         30.9701 
       0.490885         34.2391         30.1798         30.1798 
       0.497035         33.7384         29.4169         29.4169 
       0.503198         32.8622         28.6812         28.6812 
       0.509342         32.0437         27.9737         27.9737 
       0.515458         31.3114         27.2923         27.2923 
       0.521598          30.748         26.6292         26.6292 
       0.527764         30.0542         25.9836         25.9836 
       0.533884         29.5177         25.3635         25.3635 
           0.54         28.8776         24.7644         24.7644 
       0.546137         28.3582         24.1836         24.1836 
       0.552299         27.8535         23.6202         23.6202 
       0.558452         26.9916         23.0768         23.0768 
       0.564573         26.6208         22.5542         22.5542 
       0.570708         26.1476         22.0475         22.0475 
       0.576825          25.465         21.5582         21.5582 
       0.582926           25.02          21.085          21.085 
       0.589034         24.3187         20.6249         20.6249 
       0.595184         23.9828         20.1753         20.1753 
       0.601379         23.5107          19.736          19.736 
       0.607522         23.1154         19.3135         19.3135 
       0.613639         22.8447         18.9056         18.9056 
       0.619772         22.2405          18.509          18.509 
       0.625918         22.0788         18.1234         18.1234 
       0.632068         21.7079         17.7488         17.7488 
       0.638161         21.2011         17.3883         17.3883 
         0.6443         20.7705         17.0354         17.0354 
       0.650464         20.3733          16.691          16.691 
       0.656582         20.2244         16.3587         16.3587 
       0.662703         19.8424         16.0355         16.0355 
       0.668861         19.4653         15.7193         15.7193 
       0.675024          19.094         15.4115         15.4115 
       0.681124         18.7672         15.1152         15.1152 
       0.687237         18.4589         14.8263         14.8263 
       0.693381          18.243         14.5437         14.5437 
       0.699536         17.7588          14.268          14.268 
       0.705665         17.6091         14.0008         14.0008 
       0.711789         17.2761         13.7408         13.7408 
       0.717957         17.0117         13.4858         13.4858 
        0.72409         16.7329         13.2387         13.2387 
       0.730186         16.5148         12.9993         12.9993 
       0.736317         16.3192         12.7647         12.7647 
       0.742472          16.049         12.5351         12.5351 
       0.748622         15.8217         12.3115         12.3115 
        0.75476         15.4857         12.0938         12.0938 
       0.760888         15.3078         11.8818         11.8818 
       0.767043         15.1136         11.6742         11.6742 
       0.773185         14.8104          11.472          11.472 
       0.779291         14.7002         11.2758         11.2758 
       0.785407         14.4835          11.084          11.084 
       0.791564         14.2278         10.8955         10.8955 
       0.797719         13.9685         10.7115         10.7115 
       0.803834         13.8895          10.533          10.533 
       0.809972         13.7508          10.358          10.358 
       0.816124         13.4248         10.1866         10.1866 
       0.822261         13.2702         10.0196         10.0196 
       0.828378         13.1147         9.85691         9.85691 
       0.834502         12.9803         9.69775         9.69775 
       0.840667         12.7683         9.54111         9.54111 
       0.846816         12.5426         9.38842         9.38842 
       0.852925         12.4258         9.24007         9.24007 
       0.859047         12.2694         9.09466         9.09466 
       0.865192         12.1547         8.95194         8.95194 
       0.871341         12.0233         8.81222         8.81222 
       0.877463         11.8211         8.67616         8.67616 
       0.883569         11.6332         8.54336         8.54336 
       0.889708         11.4428         8.41269         8.41269 
       0.895864         11.3654         8.28445         8.28445 
       0.902008         11.2487         8.15919         8.15919 
       0.908149         11.1154         8.03663         8.03663 
       0.914301         10.9748         7.91642         7.91642 
       0.920448         10.7882         7.79881         7.79881 
       0.926574         10.6711         7.68403         7.68403 
       0.932687         10.5679         7.57183         7.57183 
       0.938823         10.4198          7.4615          7.4615 
       0.944975         10.2783         7.35314         7.35314 
       0.951105         10.1889         7.24735         7.24735 
       0.957225         10.1195         7.14385         7.14385 
       0.963368         9.97615         7.04204         7.04204 
       0.969511         9.87432         6.94224         6.94224 
       0.975621         9.75468         6.84493         6.84493 
       0.981748         9.64434         6.74926         6.74926 
       0.987916         9.55173         6.65483         6.65483 
        0.99406          9.4045         6.56259         6.56259 
        1.00019         9.25807         6.47229         6.47229 
        1.00632         9.23542          6.3838          6.3838 
        1.01246         9.12771         6.29684         6.29684 
        1.01859         8.99069         6.21166         6.21166 
        1.02471          8.9193         6.12819         6.12819 
        1.03085         8.82697         6.04597         6.04597 
        1.03698         8.69408         5.96546         5.96546 
        1.04314         8.63194         5.88608         5.88608 
        1.04929         8.51576         5.80835         5.80835 
        1.05541         8.41748         5.73236         5.73236 
        1.06154         8.34643         5.65755         5.65755 
        1.06769         8.30372         5.58397         5.58397 
        1.07382         8.16919         5.51197         5.51197 
        1.07993         8.09065          5.4414          5.4414 
        1.08607          8.0279          5.3718          5.3718 
        1.09222         7.94459         5.30335         5.30335 
        1.09836         7.85504         5.23618         5.23618 
        1.10449         7.77839         5.17027         5.17027 
        1.11063         7.70264         5.10544         5.10544 
        1.11677          7.6433         5.04174         5.04174 
         1.1229         7.57198         4.97926         4.97926 
        1.12903          7.4881          4.9178          4.9178 
        1.13518         7.40202         4.85733         4.85733 
        1.14131         7.31916         4.79792         4.79792 
        1.14745         7.24105         4.73955         4.73955 
        1.15359         7.19834         4.68215         4.68215 
        1.15973          7.1246         4.62568         4.62568 
        1.16584         7.02966         4.57041         4.57041 
        1.17197         6.97546         4.51598         4.51598 
        1.17811         6.93211         4.46227         4.46227 
        1.18424         6.87006          4.4096          4.4096 
        1.19038         6.82404         4.35764         4.35764 
        1.19652         6.74851         4.30654         4.30654 
        1.20267         6.66677         4.25627         4.25627 
        1.20881         6.63538         4.20682         4.20682 
        1.21495         6.57574         4.15825         4.15825 
        1.22108         6.49644         4.11045         4.11045 
         1.2272         6.45841         4.06353         4.06353 
        1.23334         6.37122         4.01723         4.01723 
        1.23949         6.31944         3.97156         3.97156 
        1.24562         6.28504         3.92673         3.92673 
        1.25174         6.21585         3.88267         3.88267 
        1.25789         6.17063         3.83916         3.83916 
        1.26402         6.12596         3.79639         3.79639 
        1.27014         6.06609         3.75439         3.75439 
        1.27628         6.00775         3.71291         3.71291 
        1.28244         5.93641         3.67197         3.67197 
        1.28858         5.92269         3.63172         3.63172 
        1.29471         5.85513         3.59216         3.59216 
        1.30084         5.79652         3.55323         3.55323 
        1.30697         5.79264         3.51483         3.51483 
        1.31312         5.67964         3.47694         3.47694 
        1.31925         5.65448         3.43973         3.43973 
        1.32537         5.60406         3.40311         3.40311 
        1.33151         5.58542         3.36689         3.36689 
        1.33765         5.51013         3.33123         3.33123 
        1.34378         5.46813         3.29616         3.29616 
        1.34992         5.43913         3.26158         3.26158 
        1.35606         5.37777         3.22742         3.22742 
         1.3622         5.34988         3.19381         3.19381 
        1.36833         5.30283         3.16077         3.16077 
        1.37445          5.2629         3.12822         3.12822 
        1.38059         5.24141         3.09603         3.09603 
        1.38675         5.19259         3.06422         3.06422 
        1.39288         5.14906         3.03298         3.03298 
        1.39901          5.0926          3.0022          3.0022 
        1.40515         5.06507         2.97178         2.97178 
         1.4113         5.02731          2.9418          2.9418 
        1.41742         4.98992         2.91235         2.91235 
        1.42355          4.9431         2.88326         2.88326 
         1.4297         4.90335         2.85447         2.85447 
        1.43585         4.88434         2.82609         2.82609 
        1.44198         4.85747         2.79821         2.79821 
        1.44809         4.80132         2.77076         2.77076 
        1.45423         4.76259         2.74358         2.74358 
        1.46036          4.7265         2.71682         2.71682 
        1.46649         4.68884         2.69041         2.69041 
        1.47263          4.6508         2.66433         2.66433 
        1.47877         4.61508         2.63861         2.63861 
        1.48491         4.58711          2.6132          2.6132 
        1.49104         4.55749         2.58817         2.58817 
        1.49718         4.52286         2.56346         2.56346 
        1.50333         4.49555         2.53903         2.53903 
        1.50947         4.45724         2.51498         2.51498 
         1.5156         4.42839         2.49127         2.49127 
        1.52172         4.40167         2.46788         2.46788 
        1.52787         4.37294         2.44473         2.44473 
          1.534         4.33331         2.42192         2.42192 
        1.54013         4.31263         2.39942         2.39942 
        1.54627          4.2675         2.37717         2.37717 
        1.55241         4.23837          2.3552          2.3552 
        1.55855         4.22141         2.33354         2.33354 
        1.56467         4.18851         2.31222         2.31222 
         1.5708         4.15892          2.2911          2.2911 
        1.57695         4.12306         2.27022         2.27022 
        1.58308         4.09177         2.24964         2.24964 
        1.58922         4.07851         2.22931         2.22931 
        1.59535         4.05147         2.20924         2.20924 
         1.6015         4.01969         2.18939         2.18939 
        1.60764         3.99169          2.1698          2.1698 
        1.61376         3.96698          2.1505          2.1505 
        1.61989         3.94132         2.13142         2.13142 
        1.62604         3.91063         2.11253         2.11253 
        1.63218          3.8984         2.09389         2.09389 
        1.63831         3.86725         2.07551         2.07551 
        1.64444         3.84049         2.05735         2.05735 
        1.65059         3.80362         2.03937         2.03937 
        1.65673          3.7937         2.02162         2.02162 
        1.66285         3.75502         2.00413         2.00413 
        1.66898         3.73867         1.98685         1.98685 
        1.67512          3.7105         1.96974         1.96974 
        1.68127         3.68903         1.95281         1.95281 
         1.6874         3.67397         1.93613         1.93613 
        1.69353         3.63648         1.91965         1.91965 
        1.69967         3.61987         1.90332         1.90332 
        1.70581         3.60046          1.8872          1.8872 
        1.71193         3.57769         1.87132         1.87132 
        1.71806         3.55768         1.85559         1.85559 
        1.72421         3.53293         1.84001         1.84001 
        1.73035          3.5156         1.82463         1.82463 
        1.73649         3.48889         1.80943         1.80943 
        1.74262         3.46304         1.79442         1.79442 
        1.74876         3.45284         1.77957         1.77957 
        1.75489          3.4311         1.76491         1.76491 
        1.76101         3.40007         1.75043         1.75043 
        1.76715         3.38717          1.7361          1.7361 
        1.77329            3.37          1.7219          1.7219 
        1.77943         3.33497         1.70786         1.70786 
        1.78557         3.32651           1.694           1.694 
        1.79171         3.30495         1.68029         1.68029 
        1.79785         3.28306         1.66673         1.66673 
        1.80399         3.26347         1.65333         1.65333 
        1.81012         3.24811         1.64009         1.64009 
        1.81625         3.22579           1.627           1.627 
        1.82239         3.20653         1.61404         1.61404 
        1.82853         3.18565         1.60123         1.60123 
        1.83466         3.17659         1.58857         1.58857 
        1.84078         3.15736         1.57606         1.57606 
        1.84692         3.14095         1.56366         1.56366 
        1.85306         3.11298         1.55139         1.55139 
         1.8592         3.09397         1.53926         1.53926 
        1.86533         3.07864         1.52728         1.52728 
        1.87147         3.06685         1.51541         1.51541 
        1.87761         3.04587         1.50365         1.50365 
