# k  (h/Mpc)    Pcb(k)  (Mpc/h)^3    Pcb_linear(k) (Mpc/h)^3    Pcb_NL(k) (Mpc/h)^3   ShotnoiseSubtracted = false
     0.00783031         2092.81         2114.69         2114.69 
       0.013688            2676         2674.64         2674.64 
       0.019231         2758.75         2757.27         2757.27 
      0.0249154         2577.44         2597.08         2597.08 
      0.0312784         2296.37         2301.04         2301.04 
      0.0375637         2012.59         2007.87         2007.87 
      0.0433917         1779.29         1786.29         1786.29 
      0.0492413         1620.75         1621.12         1621.12 
      0.0555754         1479.68         1491.66         1491.66 
      0.0619321         1393.43         1387.37         1387.37 
       0.067871         1284.27         1292.32         1292.32 
      0.0738098         1180.79         1189.21         1189.21 
      0.0800417         1061.39         1072.99         1072.99 
      0.0862327         952.965         958.289         958.289 
      0.0921407         859.144         859.649         859.649 
      0.0982031         773.319         776.492         776.492 
       0.104506         716.795         711.339         711.339 
       0.110769         668.614         664.654         664.654 
       0.116806         629.525         630.334         630.334 
       0.122832         602.276         599.782         599.782 
       0.129052         564.523         566.772         566.772 
       0.135211         528.502         530.287         530.287 
       0.141259         494.288         491.664         491.664 
       0.147318         458.643         453.039         453.039 
       0.153489         420.695         417.052         417.052 
       0.159709         392.125         386.567         386.567 
       0.165845         372.493         362.836         362.836 
       0.171974         350.501         344.517         344.517 
       0.178125          335.95         329.639         329.639 
       0.184229         323.476         316.234         316.234 
        0.19034         304.923         302.506         302.506 
       0.196428          294.05         287.737         287.737 
       0.202534         281.515         271.969         271.969 
       0.208729          264.21         255.816         255.816 
       0.214876         247.565         240.664         240.664 
       0.220989         237.842         227.268         227.268 
       0.227147          223.54         215.814         215.814 
        0.23329         214.353         206.288         206.288 
       0.239377          207.61         198.227         198.227 
       0.245482         197.148         190.891         190.891 
       0.251667         192.623         183.654         183.654 
       0.257832         185.369         176.287         176.287 
       0.263955         177.734         168.761         168.761 
       0.270079         170.657         161.196         161.196 
        0.27624          165.47         153.827         153.827 
       0.282372         158.499         147.008         147.008 
        0.28843         151.796         140.926         140.926 
       0.294538         145.938         135.476         135.476 
       0.300721         142.742         130.548         130.548 
        0.30691         136.658         126.028         126.028 
       0.313033         132.575         121.775         121.775 
       0.319153          126.55         117.611         117.611 
       0.325316         124.323         113.441         113.441 
        0.33145         119.592          109.33          109.33 
       0.337538         116.561          105.35          105.35 
       0.343633         112.411         101.545         101.545 
       0.349808         108.999         97.9296         97.9296 
       0.355968         106.022         94.5923         94.5923 
       0.362074         102.747         91.5305         91.5305 
       0.368217         99.8278         88.6573         88.6573 
       0.374374         96.8702         85.9297         85.9297 
       0.380519         94.4731         83.3068         83.3068 
       0.386598          91.895         80.7826         80.7826 
       0.392688         89.9803         78.3108         78.3108 
        0.39888         87.3447         75.8643         75.8643 
       0.405048         85.2414         73.5144         73.5144 
       0.411186         83.2597         71.2771         71.2771 
       0.417313         80.6023          69.157          69.157 
       0.423458         78.6347         67.1462         67.1462 
       0.429607         76.5455         65.2377         65.2377 
       0.435692         74.1933         63.4383         63.4383 
       0.441815         73.1476         61.7009         61.7009 
       0.447964          71.909         60.0154         60.0154 
       0.454126         68.9791         58.3772         58.3772 
       0.460267         67.8284          56.795          56.795 
       0.466387          66.025         55.2688         55.2688 
        0.47254         64.9944         53.7877         53.7877 
       0.478662         63.8503         52.3709         52.3709 
       0.484765         62.0951         51.0172         51.0172 
       0.490885         60.7444         49.7155         49.7155 
       0.497035         59.8856         48.4587         48.4587 
       0.503198         58.3404         47.2469         47.2469 
       0.509342         56.8824         46.0813         46.0813 
       0.515458         55.7864         44.9589         44.9589 
       0.521598         54.9199         43.8665         43.8665 
       0.527764         53.8177         42.8031         42.8031 
       0.533884         52.8758         41.7815         41.7815 
           0.54         51.8007         40.7947         40.7947 
       0.546137          51.015         39.8379         39.8379 
       0.552299         50.2191         38.9098         38.9098 
       0.558452         48.7079         38.0147         38.0147 
       0.564573         47.9727         37.1538         37.1538 
       0.570708         47.2952         36.3191         36.3191 
       0.576825         46.1719          35.513          35.513 
       0.582926         45.3274         34.7334         34.7334 
       0.589034          44.165         33.9757         33.9757 
       0.595184         43.6176          33.235          33.235 
       0.601379          42.918         32.5113         32.5113 
       0.607522         42.0378         31.8154         31.8154 
       0.613639          41.727         31.1434         31.1434 
       0.619772          40.649           30.49           30.49 
       0.625918         40.4329         29.8548         29.8548 
       0.632068         39.7838         29.2378         29.2378 
       0.638161         38.9931          28.644          28.644 
         0.6443          38.255         28.0625         28.0625 
       0.650464         37.6109         27.4952         27.4952 
       0.656582         37.3628         26.9478         26.9478 
       0.662703         36.6381         26.4154         26.4154 
       0.668861         36.0158         25.8945         25.8945 
       0.675024         35.4129         25.3875         25.3875 
       0.681124         34.8093         24.8994         24.8994 
       0.687237         34.2241         24.4235         24.4235 
       0.693381         33.9364         23.9579         23.9579 
       0.699536         33.1242         23.5039         23.5039 
       0.705665         33.0535         23.0637         23.0637 
       0.711789            32.3         22.6354         22.6354 
       0.717957         31.9074         22.2152         22.2152 
        0.72409         31.4412         21.8082         21.8082 
       0.730186         31.0004         21.4139         21.4139 
       0.736317          30.692         21.0275         21.0275 
       0.742472         30.1564         20.6492         20.6492 
       0.748622         29.8679         20.2808         20.2808 
        0.75476         29.3403         19.9223         19.9223 
       0.760888         28.9547         19.5731         19.5731 
       0.767043         28.6155          19.231          19.231 
       0.773185         28.1189         18.8979         18.8979 
       0.779291         27.9634         18.5747         18.5747 
       0.785407         27.6307         18.2587         18.2587 
       0.791564         27.1205         17.9482         17.9482 
       0.797719         26.5899         17.6451         17.6451 
       0.803834         26.5377         17.3511         17.3511 
       0.809972         26.2754         17.0628         17.0628 
       0.816124         25.6454         16.7805         16.7805 
       0.822261         25.4911         16.5054         16.5054 
       0.828378         25.2242         16.2374         16.2374 
       0.834502         24.9468         15.9752         15.9752 
       0.840667         24.6342         15.7172         15.7172 
       0.846816         24.2153         15.4656         15.4656 
       0.852925         24.0035         15.2212         15.2212 
       0.859047         23.7262         14.9817         14.9817 
       0.865192         23.4983         14.7466         14.7466 
       0.871341         23.3208         14.5165         14.5165 
       0.877463         22.8934         14.2923         14.2923 
       0.883569         22.6137         14.0735         14.0735 
       0.889708         22.3107         13.8583         13.8583 
       0.895864         22.1625          13.647          13.647 
       0.902008         21.9851         13.4407         13.4407 
       0.908149         21.7374         13.2388         13.2388 
       0.914301         21.5974         13.0408         13.0408 
       0.920448         21.1582          12.847          12.847 
       0.926574         21.0091          12.658          12.658 
       0.932687         20.7812         12.4731         12.4731 
       0.938823         20.5181         12.2914         12.2914 
       0.944975         20.2929         12.1129         12.1129 
       0.951105         20.1394         11.9386         11.9386 
       0.957225         19.9299         11.7681         11.7681 
       0.963368          19.738         11.6004         11.6004 
       0.969511         19.5773          11.436          11.436 
       0.975621         19.4071         11.2757         11.2757 
       0.981748         19.1504         11.1181         11.1181 
       0.987916          19.013         10.9626         10.9626 
        0.99406         18.7739         10.8106         10.8106 
        1.00019         18.5144         10.6619         10.6619 
        1.00632          18.476         10.5161         10.5161 
        1.01246         18.2865         10.3728         10.3728 
        1.01859         18.0115         10.2325         10.2325 
        1.02471         17.9415          10.095          10.095 
        1.03085         17.7685         9.95958         9.95958 
        1.03698          17.482         9.82695         9.82695 
        1.04314         17.3893         9.69619         9.69619 
        1.04929         17.1736         9.56815         9.56815 
        1.05541         16.9974         9.44296         9.44296 
        1.06154         16.8794         9.31973         9.31973 
        1.06769         16.7897         9.19853         9.19853 
        1.07382         16.5761         9.07991         9.07991 
        1.07993         16.4776         8.96367         8.96367 
        1.08607         16.2873         8.84901         8.84901 
        1.09222         16.1665         8.73625         8.73625 
        1.09836         15.9678         8.62561         8.62561 
        1.10449         15.8788         8.51704         8.51704 
        1.11063         15.7062         8.41023         8.41023 
        1.11677         15.6342         8.30531         8.30531 
         1.1229         15.5301         8.20238         8.20238 
        1.12903         15.3393         8.10113         8.10113 
        1.13518         15.1647         8.00152         8.00152 
        1.14131         15.0831         7.90365         7.90365 
        1.14745         14.9597          7.8075          7.8075 
        1.15359          14.858         7.71294         7.71294 
        1.15973         14.7252         7.61993         7.61993 
        1.16584         14.5172         7.52888         7.52888 
        1.17197         14.4676         7.43921         7.43921 
        1.17811         14.3557         7.35074         7.35074 
        1.18424         14.2226         7.26398         7.26398 
        1.19038         14.1604         7.17838         7.17838 
        1.19652         14.0198          7.0942          7.0942 
        1.20267         13.8738         7.01139         7.01139 
        1.20881         13.8406         6.92994         6.92994 
        1.21495          13.727         6.84991         6.84991 
        1.22108          13.568         6.77118         6.77118 
         1.2272          13.465         6.69388         6.69388 
        1.23334         13.3432         6.61763         6.61763 
        1.23949         13.2354         6.54239         6.54239 
        1.24562         13.1854         6.46854         6.46854 
        1.25174         13.0922         6.39596         6.39596 
        1.25789         12.9919         6.32428         6.32428 
        1.26402          12.932         6.25383         6.25383 
        1.27014         12.8096         6.18464         6.18464 
        1.27628         12.6478          6.1163          6.1163 
        1.28244         12.5736         6.04887         6.04887 
        1.28858         12.5529         5.98256         5.98256 
        1.29471         12.4158         5.91739         5.91739 
        1.30084         12.2988         5.85327         5.85327 
        1.30697         12.2636            5.79            5.79 
        1.31312         12.1008         5.72759         5.72759 
        1.31925         12.0244          5.6663          5.6663 
        1.32537         11.9692         5.60597         5.60597 
        1.33151         11.8907         5.54631         5.54631 
        1.33765         11.7936         5.48757         5.48757 
        1.34378         11.7075          5.4298          5.4298 
        1.34992         11.6096         5.37282         5.37282 
        1.35606         11.5623         5.31655         5.31655 
         1.3622         11.4898         5.26119         5.26119 
        1.36833         11.3832         5.20676         5.20676 
        1.37445         11.3257         5.15314         5.15314 
        1.38059         11.2718         5.10011         5.10011 
        1.38675         11.1576         5.04771         5.04771 
        1.39288         11.1013         4.99626         4.99626 
        1.39901         10.9919         4.94555         4.94555 
        1.40515         10.9532         4.89545         4.89545 
         1.4113         10.8803         4.84606         4.84606 
        1.41742         10.8025         4.79755         4.79755 
        1.42355         10.7211         4.74961         4.74961 
         1.4297         10.6522         4.70219         4.70219 
        1.43585         10.6139         4.65545         4.65545 
        1.44198         10.5491         4.60952         4.60952 
        1.44809         10.4648          4.5643          4.5643 
        1.45423         10.3824         4.51953         4.51953 
        1.46036         10.3303         4.47544         4.47544 
        1.46649         10.2737         4.43194         4.43194 
        1.47263         10.1788         4.38898         4.38898 
        1.47877         10.1266         4.34661         4.34661 
        1.48491         10.0666         4.30474         4.30474 
        1.49104         10.0065         4.26352         4.26352 
        1.49718         9.95179         4.22281         4.22281 
        1.50333         9.88872         4.18257         4.18257 
        1.50947         9.81918         4.14295         4.14295 
         1.5156         9.76398          4.1039          4.1039 
        1.52172         9.71169         4.06535         4.06535 
        1.52787          9.6408         4.02723         4.02723 
          1.534         9.58269         3.98965         3.98965 
        1.54013         9.53133         3.95259         3.95259 
        1.54627         9.45411         3.91594         3.91594 
        1.55241          9.4138         3.87975         3.87975 
        1.55855         9.36983         3.84407         3.84407 
        1.56467         9.29645         3.80894         3.80894 
         1.5708         9.27439         3.77415         3.77415 
        1.57695         9.18303         3.73975         3.73975 
        1.58308         9.13224         3.70586         3.70586 
        1.58922         9.09926         3.67236         3.67236 
        1.59535         9.05898          3.6393          3.6393 
         1.6015         8.98322          3.6066          3.6066 
        1.60764         8.92152         3.57432         3.57432 
        1.61376          8.8998         3.54253         3.54253 
        1.61989         8.83456         3.51111         3.51111 
        1.62604         8.78601         3.47999         3.47999 
        1.63218         8.75239         3.44928         3.44928 
        1.63831         8.70806         3.41901         3.41901 
        1.64444          8.6506         3.38909         3.38909 
        1.65059         8.57235         3.35947         3.35947 
        1.65673         8.55877         3.33023         3.33023 
        1.66285         8.47076         3.30142         3.30142 
        1.66898         8.44384         3.27295         3.27295 
        1.67512         8.41109         3.24477         3.24477 
        1.68127         8.35383         3.21689         3.21689 
         1.6874         8.32051          3.1894          3.1894 
        1.69353          8.2656         3.16225         3.16225 
        1.69967         8.21587         3.13536         3.13536 
        1.70581         8.17576         3.10879         3.10879 
        1.71193         8.12674         3.08264         3.08264 
        1.71806          8.1066         3.05673         3.05673 
        1.72421         8.04129         3.03107         3.03107 
        1.73035          8.0224         3.00573         3.00573 
        1.73649         7.97854         2.98069         2.98069 
        1.74262         7.91785         2.95596         2.95596 
        1.74876         7.89048         2.93149         2.93149 
        1.75489          7.8597         2.90736         2.90736 
        1.76101          7.7926          2.8835          2.8835 
        1.76715         7.77387         2.85988         2.85988 
        1.77329          7.7249          2.8365          2.8365 
        1.77943         7.67357         2.81338         2.81338 
        1.78557         7.65929         2.79054         2.79054 
        1.79171         7.61305         2.76796         2.76796 
        1.79785         7.56551         2.74563         2.74563 
        1.80399         7.51769         2.72354         2.72354 
        1.81012         7.49342         2.70174         2.70174 
        1.81625         7.44511         2.68018         2.68018 
        1.82239         7.42076         2.65883         2.65883 
        1.82853         7.37287         2.63772         2.63772 
        1.83466         7.34122         2.61686         2.61686 
        1.84078         7.30177         2.59625         2.59625 
        1.84692         7.28757         2.57584         2.57584 
        1.85306         7.23116         2.55561         2.55561 
         1.8592         7.19085         2.53564         2.53564 
        1.86533         7.15995          2.5159          2.5159 
        1.87147         7.13215         2.49634         2.49634 
