# k  (h/Mpc)    P(k)  (Mpc/h)^3    P_linear(k)  (Mpc/h)^3     P_NL(k)  ShotnoiseSubtracted = false
     0.00783031         2074.88         2096.58         2096.58 
       0.013688         2653.09         2651.73         2651.73 
       0.019231         2735.12         2733.66         2733.66 
      0.0249154         2555.37         2574.84         2574.84 
      0.0312784         2276.71         2281.34         2281.34 
      0.0375637         1995.36         1990.68         1990.68 
      0.0433917         1764.06         1770.99         1770.99 
      0.0492413         1606.87         1607.24         1607.24 
      0.0555754         1467.01         1478.88         1478.88 
      0.0619321          1381.5         1375.49         1375.49 
       0.067871         1273.27         1281.25         1281.25 
      0.0738098         1170.67         1179.03         1179.03 
      0.0800417          1052.3          1063.8          1063.8 
      0.0862327         944.804         950.083         950.083 
      0.0921407         851.787         852.287         852.287 
      0.0982031         766.696         769.842         769.842 
       0.104506         710.657         705.247         705.247 
       0.110769         662.889         658.962         658.962 
       0.116806         624.134         624.936         624.936 
       0.122832         597.118         594.646         594.646 
       0.129052         559.688         561.918         561.918 
       0.135211         523.976         525.746         525.746 
       0.141259         490.055         487.453         487.453 
       0.147318         454.715         449.159         449.159 
       0.153489         417.092          413.48          413.48 
       0.159709         388.767         383.257         383.257 
       0.165845         369.304         359.729         359.729 
       0.171974         347.499         341.566         341.566 
       0.178125         333.073         326.816         326.816 
       0.184229         320.705         313.525         313.525 
        0.19034         302.312         299.916         299.916 
       0.196428         291.532         285.272         285.272 
       0.202534         279.104         269.639         269.639 
       0.208729         261.948         253.625         253.625 
       0.214876         245.445         238.603         238.603 
       0.220989         235.806         225.321         225.321 
       0.227147         221.626         213.966         213.966 
        0.23329         212.517         204.521         204.521 
       0.239377         205.832          196.53          196.53 
       0.245482          195.46         189.256         189.256 
       0.251667         190.974         182.082         182.082 
       0.257832         183.781         174.777         174.777 
       0.263955         176.212         167.316         167.316 
       0.270079         169.196         159.815         159.815 
        0.27624         164.053          152.51          152.51 
       0.282372         157.142         145.749         145.749 
        0.28843         150.496         139.719         139.719 
       0.294538         144.688         134.316         134.316 
       0.300721         141.519         129.431         129.431 
        0.30691         135.487         124.949         124.949 
       0.313033          131.44         120.733         120.733 
       0.319153         125.466         116.604         116.604 
       0.325316         123.259         112.469         112.469 
        0.33145         118.568         108.394         108.394 
       0.337538         115.563         104.448         104.448 
       0.343633         111.448         100.675         100.675 
       0.349808         108.066         97.0909         97.0909 
       0.355968         105.114         93.7823         93.7823 
       0.362074         101.867         90.7464         90.7464 
       0.368217         98.9729         87.8981         87.8981 
       0.374374         96.0406         85.1938         85.1938 
       0.380519         93.6641         82.5934         82.5934 
       0.386598          91.108         80.0911         80.0911 
       0.392688         89.2097           77.64           77.64 
        0.39888         86.5967         75.2147         75.2147 
       0.405048         84.5114         72.8848         72.8848 
       0.411186         82.5467         70.6667         70.6667 
       0.417313          79.912         68.5647         68.5647 
       0.423458         77.9613         66.5712         66.5712 
       0.429607           75.89          64.679          64.679 
       0.435692         73.5579          62.895          62.895 
       0.441815         72.5212         61.1725         61.1725 
       0.447964         71.2931         59.5015         59.5015 
       0.454126         68.3884         57.8773         57.8773 
       0.460267         67.2475         56.3086         56.3086 
       0.466387         65.4596         54.7955         54.7955 
        0.47254         64.4378          53.327          53.327 
       0.478662         63.3035         51.9224         51.9224 
       0.484765         61.5634         50.5804         50.5804 
       0.490885         60.2242         49.2898         49.2898 
       0.497035         59.3727         48.0437         48.0437 
       0.503198         57.8408         46.8423         46.8423 
       0.509342         56.3953         45.6866         45.6866 
       0.515458         55.3087         44.5739         44.5739 
       0.521598         54.4496         43.4908         43.4908 
       0.527764         53.3568         42.4365         42.4365 
       0.533884          52.423         41.4237         41.4237 
           0.54         51.3571         40.4453         40.4453 
       0.546137         50.5781         39.4968         39.4968 
       0.552299          49.789         38.5766         38.5766 
       0.558452         48.2907         37.6891         37.6891 
       0.564573         47.5619         36.8356         36.8356 
       0.570708         46.8902          36.008          36.008 
       0.576825         45.7765         35.2089         35.2089 
       0.582926         44.9392          34.436          34.436 
       0.589034         43.7867         33.6847         33.6847 
       0.595184         43.2441         32.9504         32.9504 
       0.601379         42.5504         32.2329         32.2329 
       0.607522         41.6778         31.5429         31.5429 
       0.613639         41.3697         30.8767         30.8767 
       0.619772         40.3008         30.2289         30.2289 
       0.625918         40.0866         29.5991         29.5991 
       0.632068         39.4431         28.9874         28.9874 
       0.638161         38.6592         28.3987         28.3987 
         0.6443         37.9274         27.8222         27.8222 
       0.650464         37.2888         27.2598         27.2598 
       0.656582         37.0429         26.7171         26.7171 
       0.662703         36.3244         26.1892         26.1892 
       0.668861         35.7074         25.6727         25.6727 
       0.675024         35.1096         25.1701         25.1701 
       0.681124         34.5112         24.6862         24.6862 
       0.687237          33.931         24.2143         24.2143 
       0.693381         33.6458         23.7527         23.7527 
       0.699536         32.8406         23.3026         23.3026 
       0.705665         32.7704         22.8662         22.8662 
       0.711789         32.0234         22.4416         22.4416 
       0.717957         31.6342          22.025          22.025 
        0.72409         31.1719         21.6214         21.6214 
       0.730186         30.7349         21.2306         21.2306 
       0.736317         30.4291         20.8474         20.8474 
       0.742472         29.8981         20.4724         20.4724 
       0.748622         29.6121         20.1071         20.1071 
        0.75476         29.0891         19.7516         19.7516 
       0.760888         28.7067         19.4054         19.4054 
       0.767043         28.3704         19.0663         19.0663 
       0.773185         27.8781         18.7361         18.7361 
       0.779291         27.7239         18.4156         18.4156 
       0.785407         27.3941         18.1024         18.1024 
       0.791564         26.8883         17.7945         17.7945 
       0.797719         26.3622          17.494          17.494 
       0.803834         26.3105         17.2025         17.2025 
       0.809972         26.0503         16.9167         16.9167 
       0.816124         25.4258         16.6368         16.6368 
       0.822261         25.2728          16.364          16.364 
       0.828378         25.0082         16.0983         16.0983 
       0.834502         24.7332         15.8384         15.8384 
       0.840667         24.4232         15.5826         15.5826 
       0.846816          24.008         15.3332         15.3332 
       0.852925         23.7979         15.0909         15.0909 
       0.859047          23.523         14.8534         14.8534 
       0.865192          23.297         14.6203         14.6203 
       0.871341         23.1211         14.3921         14.3921 
       0.877463         22.6974         14.1699         14.1699 
       0.883569           22.42          13.953          13.953 
       0.889708         22.1196         13.7396         13.7396 
       0.895864         21.9727         13.5302         13.5302 
       0.902008         21.7968         13.3256         13.3256 
       0.908149         21.5512         13.1254         13.1254 
       0.914301         21.4124         12.9291         12.9291 
       0.920448          20.977          12.737          12.737 
       0.926574         20.8292         12.5496         12.5496 
       0.932687         20.6033         12.3663         12.3663 
       0.938823         20.3423         12.1861         12.1861 
       0.944975         20.1191         12.0092         12.0092 
       0.951105          19.967         11.8364         11.8364 
       0.957225         19.7592         11.6673         11.6673 
       0.963368         19.5689         11.5011         11.5011 
       0.969511         19.4097         11.3381         11.3381 
       0.975621         19.2409         11.1791         11.1791 
       0.981748         18.9864         11.0229         11.0229 
       0.987916         18.8501         10.8687         10.8687 
        0.99406         18.6131          10.718          10.718 
        1.00019         18.3558         10.5706         10.5706 
        1.00632         18.3178          10.426          10.426 
        1.01246         18.1299          10.284          10.284 
        1.01859         17.8573         10.1449         10.1449 
        1.02471         17.7879         10.0086         10.0086 
        1.03085         17.6163         9.87429         9.87429 
        1.03698         17.3323         9.74279         9.74279 
        1.04314         17.2404         9.61316         9.61316 
        1.04929         17.0266         9.48621         9.48621 
        1.05541         16.8518         9.36209         9.36209 
        1.06154         16.7349         9.23991         9.23991 
        1.06769         16.6459         9.11975         9.11975 
        1.07382         16.4341         9.00215         9.00215 
        1.07993         16.3365         8.88691         8.88691 
        1.08607         16.1478         8.77322         8.77322 
        1.09222         16.0281         8.66143         8.66143 
        1.09836         15.8311         8.55174         8.55174 
        1.10449         15.7428          8.4441          8.4441 
        1.11063         15.5717          8.3382          8.3382 
        1.11677         15.5003         8.23418         8.23418 
         1.1229         15.3971         8.13214         8.13214 
        1.12903          15.208         8.03175         8.03175 
        1.13518         15.0349         7.93299         7.93299 
        1.14131          14.954         7.83597         7.83597 
        1.14745         14.8316         7.74063         7.74063 
        1.15359         14.7307         7.64689         7.64689 
        1.15973         14.5991         7.55467         7.55467 
        1.16584         14.3929         7.46441         7.46441 
        1.17197         14.3437          7.3755          7.3755 
        1.17811         14.2328         7.28779         7.28779 
        1.18424         14.1008         7.20177         7.20177 
        1.19038         14.0392          7.1169          7.1169 
        1.19652         13.8997         7.03345         7.03345 
        1.20267          13.755         6.95135         6.95135 
        1.20881         13.7221         6.87059         6.87059 
        1.21495         13.6094         6.79125         6.79125 
        1.22108         13.4518         6.71319         6.71319 
         1.2272         13.3497         6.63656         6.63656 
        1.23334         13.2289         6.56095         6.56095 
        1.23949          13.122         6.48636         6.48636 
        1.24562         13.0725         6.41315         6.41315 
        1.25174         12.9801         6.34118         6.34118 
        1.25789         12.8807         6.27012         6.27012 
        1.26402         12.8212         6.20028         6.20028 
        1.27014         12.6999         6.13168         6.13168 
        1.27628         12.5395         6.06392         6.06392 
        1.28244          12.466         5.99707         5.99707 
        1.28858         12.4454         5.93133         5.93133 
        1.29471         12.3094         5.86672         5.86672 
        1.30084         12.1935         5.80314         5.80314 
        1.30697         12.1586         5.74042         5.74042 
        1.31312         11.9971         5.67854         5.67854 
        1.31925         11.9214         5.61777         5.61777 
        1.32537         11.8667         5.55796         5.55796 
        1.33151         11.7888         5.49882         5.49882 
        1.33765         11.6926         5.44057         5.44057 
        1.34378         11.6073          5.3833          5.3833 
        1.34992         11.5102         5.32681         5.32681 
        1.35606         11.4633         5.27102         5.27102 
         1.3622         11.3914         5.21614         5.21614 
        1.36833         11.2858         5.16217         5.16217 
        1.37445         11.2287         5.10901         5.10901 
        1.38059         11.1753         5.05643         5.05643 
        1.38675         11.0621         5.00448         5.00448 
        1.39288         11.0063         4.95347         4.95347 
        1.39901         10.8978          4.9032          4.9032 
        1.40515         10.8594         4.85352         4.85352 
         1.4113         10.7871         4.80456         4.80456 
        1.41742           10.71         4.75646         4.75646 
        1.42355         10.6293         4.70894         4.70894 
         1.4297          10.561         4.66192         4.66192 
        1.43585          10.523         4.61558         4.61558 
        1.44198         10.4588         4.57004         4.57004 
        1.44809         10.3751         4.52521         4.52521 
        1.45423         10.2935         4.48083         4.48083 
        1.46036         10.2418         4.43712         4.43712 
        1.46649         10.1857         4.39398         4.39398 
        1.47263         10.0916         4.35139         4.35139 
        1.47877         10.0399         4.30939         4.30939 
        1.48491         9.98036         4.26788         4.26788 
        1.49104         9.92076         4.22701         4.22701 
        1.49718         9.86656         4.18665         4.18665 
        1.50333         9.80404         4.14676         4.14676 
        1.50947         9.73509         4.10747         4.10747 
         1.5156         9.68036         4.06875         4.06875 
        1.52172         9.62852         4.03054         4.03054 
        1.52787         9.55823         3.99274         3.99274 
          1.534         9.50063         3.95548         3.95548 
        1.54013          9.4497         3.91874         3.91874 
        1.54627         9.37315          3.8824          3.8824 
        1.55241         9.33318         3.84652         3.84652 
        1.55855         9.28959         3.81115         3.81115 
        1.56467         9.21684         3.77632         3.77632 
         1.5708         9.19496         3.74183         3.74183 
        1.57695         9.10439         3.70772         3.70772 
        1.58308         9.05404         3.67412         3.67412 
        1.58922         9.02133         3.64091         3.64091 
        1.59535          8.9814         3.60813         3.60813 
         1.6015         8.90629         3.57572         3.57572 
        1.60764         8.84512         3.54371         3.54371 
        1.61376         8.82358         3.51219         3.51219 
        1.61989          8.7589         3.48104         3.48104 
        1.62604         8.71076         3.45019         3.45019 
        1.63218         8.67744         3.41974         3.41974 
        1.63831         8.63349         3.38973         3.38973 
        1.64444         8.57652         3.36007         3.36007 
        1.65059         8.49894          3.3307          3.3307 
        1.65673         8.48547         3.30171         3.30171 
        1.66285         8.39822         3.27315         3.27315 
        1.66898         8.37152         3.24493         3.24493 
        1.67512         8.33906         3.21698         3.21698 
        1.68127         8.28229         3.18934         3.18934 
         1.6874         8.24926         3.16209         3.16209 
        1.69353         8.19481         3.13517         3.13517 
        1.69967         8.14551         3.10851         3.10851 
        1.70581         8.10574         3.08217         3.08217 
        1.71193         8.05714         3.05624         3.05624 
        1.71806         8.03717         3.03055         3.03055 
        1.72421         7.97242         3.00511         3.00511 
        1.73035         7.95369         2.97999         2.97999 
        1.73649         7.91021         2.95517         2.95517 
        1.74262         7.85005         2.93065         2.93065 
        1.74876         7.82291         2.90639         2.90639 
        1.75489         7.79239         2.88246         2.88246 
        1.76101         7.72586         2.85881         2.85881 
        1.76715          7.7073         2.83539         2.83539 
        1.77329         7.65874         2.81221         2.81221 
        1.77943         7.60786         2.78928         2.78928 
        1.78557          7.5937         2.76665         2.76665 
        1.79171         7.54785         2.74426         2.74426 
        1.79785         7.50072         2.72211         2.72211 
        1.80399         7.45331         2.70022         2.70022 
        1.81012         7.42925          2.6786          2.6786 
        1.81625         7.38136         2.65723         2.65723 
        1.82239         7.35721         2.63606         2.63606 
        1.82853         7.30973         2.61513         2.61513 
        1.83466         7.27835         2.59445         2.59445 
        1.84078         7.23924         2.57402         2.57402 
        1.84692         7.22516         2.55378         2.55378 
        1.85306         7.16924         2.53373         2.53373 
         1.8592         7.12927         2.51393         2.51393 
        1.86533         7.09863         2.49435         2.49435 
        1.87147         7.07107         2.47496         2.47496 
        1.87761           7.038         2.45577         2.45577 
