# k  (h/Mpc)    Pcb(k)  (Mpc/h)^3    Pcb_linear(k) (Mpc/h)^3    Pcb_NL(k) (Mpc/h)^3   ShotnoiseSubtracted = false
     0.00783031         8336.48         8444.25         8444.25 
       0.013688         10737.4         10675.6         10675.6 
       0.019231         11016.2         11003.5         11003.5 
      0.0249154         10199.6         10363.2         10363.2 
      0.0312784         9108.94         9181.27         9181.27 
      0.0375637         8009.56         8011.16         8011.16 
      0.0433917         7026.36         7126.89         7126.89 
      0.0492413          6425.6          6467.8          6467.8 
      0.0555754         5807.75         5951.19         5951.19 
      0.0619321         5537.08         5535.07         5535.07 
       0.067871          5044.2         5155.78         5155.78 
      0.0738098         4639.38          4744.4          4744.4 
      0.0800417         4150.81         4280.72         4280.72 
      0.0862327         3748.81          3823.1          3823.1 
      0.0921407         3408.78         3429.56         3429.56 
      0.0982031         3064.41         3097.79         3097.79 
       0.104506         2876.37         2837.86         2837.86 
       0.110769          2679.7          2651.6          2651.6 
       0.116806         2522.09         2514.68         2514.68 
       0.122832         2411.68          2392.8          2392.8 
       0.129052         2242.12          2261.1          2261.1 
       0.135211         2109.19         2115.54         2115.54 
       0.141259         1993.75         1961.45         1961.45 
       0.147318         1862.62         1807.36         1807.36 
       0.153489          1706.9          1663.8          1663.8 
       0.159709         1610.61         1542.18         1542.18 
       0.165845         1546.23          1447.5          1447.5 
       0.171974         1460.08         1374.42         1374.42 
       0.178125         1395.94         1315.06         1315.06 
       0.184229         1343.87         1261.58         1261.58 
        0.19034         1259.04         1206.82         1206.82 
       0.196428            1231          1147.9          1147.9 
       0.202534         1184.49         1084.99         1084.99 
       0.208729         1121.39         1020.55         1020.55 
       0.214876         1061.47         960.105         960.105 
       0.220989         1027.39          906.66          906.66 
       0.227147         974.987         860.966         860.966 
        0.23329         938.338         822.964         822.964 
       0.239377          920.12         790.806         790.806 
       0.245482         861.958         761.538         761.538 
       0.251667         853.764         732.669         732.669 
       0.257832         822.502         703.276         703.276 
       0.263955         794.003         673.255         673.255 
       0.270079         765.616         643.073         643.073 
        0.27624         754.943         613.677         613.677 
       0.282372         722.982         586.473         586.473 
        0.28843         706.736         562.208         562.208 
       0.294538         673.363         540.467         540.467 
       0.300721         670.161         520.808         520.808 
        0.30691          639.96         502.773         502.773 
       0.313033         627.269         485.809         485.809 
       0.319153         608.975         469.195         469.195 
       0.325316         591.141         452.558         452.558 
        0.33145         574.362         436.159         436.159 
       0.337538         566.724         420.282         420.282 
       0.343633         548.912         405.102         405.102 
       0.349808          531.22         390.679         390.679 
       0.355968          526.54         377.365         377.365 
       0.362074         516.372          365.15          365.15 
       0.368217         502.418         353.688         353.688 
       0.374374         482.628         342.806         342.806 
       0.380519         478.601         332.343         332.343 
       0.386598         467.135         322.273         322.273 
       0.392688         463.902         312.411         312.411 
        0.39888         450.835         302.652         302.652 
       0.405048         441.611         293.277         293.277 
       0.411186         433.304         284.351         284.351 
       0.417313         425.675         275.893         275.893 
       0.423458         417.909         267.872         267.872 
       0.429607         409.421         260.258         260.258 
       0.435692         399.583         253.079         253.079 
       0.441815         396.733         246.148         246.148 
       0.447964         388.792         239.424         239.424 
       0.454126         376.506         232.889         232.889 
       0.460267         371.852         226.577         226.577 
       0.466387         367.753         220.488         220.488 
        0.47254         359.724         214.579         214.579 
       0.478662         358.567         208.927         208.927 
       0.484765         347.928         203.527         203.527 
       0.490885         343.875         198.334         198.334 
       0.497035         338.305          193.32          193.32 
       0.503198         331.517         188.486         188.486 
       0.509342         328.758         183.836         183.836 
       0.515458         325.034         179.358         179.358 
       0.521598         319.045             175             175 
       0.527764         313.466         170.758         170.758 
       0.533884         310.574         166.682         166.682 
           0.54         306.329         162.745         162.745 
       0.546137         304.818         158.928         158.928 
       0.552299         298.708         155.226         155.226 
       0.558452         295.961         151.655         151.655 
       0.564573         291.283         148.221         148.221 
       0.570708         286.149          144.89          144.89 
       0.576825         282.081         141.675         141.675 
       0.582926         279.283         138.565         138.565 
       0.589034         276.032         135.542         135.542 
       0.595184         273.268         132.587         132.587 
       0.601379         270.625           129.7           129.7 
       0.607522         265.588         126.923         126.923 
       0.613639         264.222         124.243         124.243 
       0.619772         258.104         121.636         121.636 
       0.625918         256.686         119.102         119.102 
       0.632068         253.217          116.64          116.64 
       0.638161         252.037         114.271         114.271 
         0.6443         247.804         111.952         111.952 
       0.650464         245.503         109.689         109.689 
       0.656582         243.942         107.505         107.505 
       0.662703         241.444         105.381         105.381 
       0.668861         237.504         103.303         103.303 
       0.675024         234.822          101.28          101.28 
       0.681124          233.91         99.3332         99.3332 
       0.687237         230.499         97.4343         97.4343 
       0.693381         227.233          95.577          95.577 
       0.699536         225.738         93.7657         93.7657 
       0.705665         224.621         92.0098         92.0098 
       0.711789         221.099         90.3012         90.3012 
       0.717957          219.92         88.6248         88.6248 
        0.72409         217.342          87.001          87.001 
       0.730186         214.473         85.4282         85.4282 
       0.736317         212.811         83.8864         83.8864 
       0.742472         211.661         82.3775         82.3775 
       0.748622          209.89         80.9076         80.9076 
        0.75476         208.068         79.4773         79.4773 
       0.760888         205.236         78.0843         78.0843 
       0.767043         204.612         76.7196         76.7196 
       0.773185         202.366         75.3908         75.3908 
       0.779291         198.908         74.1015         74.1015 
       0.785407         198.275         72.8409         72.8409 
       0.791564         196.408         71.6021         71.6021 
       0.797719         194.042         70.3931         70.3931 
       0.803834         193.109           69.22           69.22 
       0.809972         191.059         68.0698         68.0698 
       0.816124         191.083         66.9435         66.9435 
       0.822261         188.303         65.8461         65.8461 
       0.828378         186.682          64.777          64.777 
       0.834502         186.572          63.731          63.731 
       0.840667         183.507         62.7016         62.7016 
       0.846816         182.242         61.6981         61.6981 
       0.852925         181.191         60.7232         60.7232 
       0.859047         179.275         59.7676         59.7676 
       0.865192         178.033         58.8297         58.8297 
       0.871341         176.281         57.9115         57.9115 
       0.877463         175.067         57.0174         57.0174 
       0.883569         173.861         56.1446         56.1446 
       0.889708         172.483         55.2859         55.2859 
       0.895864          170.59         54.4432         54.4432 
       0.902008         169.847           53.62           53.62 
       0.908149         168.958         52.8146         52.8146 
       0.914301         167.023         52.0246         52.0246 
       0.920448         165.822         51.2517         51.2517 
       0.926574             165         50.4974         50.4974 
       0.932687         164.257           49.76           49.76 
       0.938823           162.2          49.035          49.035 
       0.944975          160.86         48.3229         48.3229 
       0.951105          160.11         47.6276         47.6276 
       0.957225         158.236         46.9474         46.9474 
       0.963368         156.888         46.2784         46.2784 
       0.969511         156.408         45.6225         45.6225 
       0.975621         155.502          44.983          44.983 
       0.981748         154.836         44.3543         44.3543 
       0.987916         152.879         43.7337         43.7337 
        0.99406         152.091         43.1275         43.1275 
        1.00019         151.418         42.5341         42.5341 
        1.00632         150.123         41.9526         41.9526 
        1.01246         149.165         41.3811         41.3811 
        1.01859         147.754         40.8214         40.8214 
        1.02471         147.234         40.2728         40.2728 
        1.03085         145.702         39.7325         39.7325 
        1.03698         144.734         39.2033         39.2033 
        1.04314         143.649         38.6817         38.6817 
        1.04929          142.72         38.1709         38.1709 
        1.05541         141.953         37.6715         37.6715 
        1.06154         140.986         37.1799         37.1799 
        1.06769         140.774         36.6964         36.6964 
        1.07382         139.748         36.2231         36.2231 
        1.07993         138.563         35.7594         35.7594 
        1.08607          137.56          35.302          35.302 
        1.09222         136.911         34.8522         34.8522 
        1.09836         135.712         34.4108         34.4108 
        1.10449         134.758         33.9776         33.9776 
        1.11063         133.918         33.5515         33.5515 
        1.11677         133.469          33.133          33.133 
         1.1229         131.992         32.7224         32.7224 
        1.12903         131.183         32.3184         32.3184 
        1.13518         131.198          31.921          31.921 
        1.14131         129.825         31.5306         31.5306 
        1.14745         129.092          31.147          31.147 
        1.15359         128.213         30.7698         30.7698 
        1.15973         127.863         30.3987         30.3987 
        1.16584         126.604         30.0355         30.0355 
        1.17197         125.994         29.6778         29.6778 
        1.17811         125.206         29.3248         29.3248 
        1.18424         124.471         28.9787         28.9787 
        1.19038         123.861         28.6372         28.6372 
        1.19652         123.082         28.3014         28.3014 
        1.20267         122.237         27.9711         27.9711 
        1.20881         121.371         27.6461         27.6461 
        1.21495         120.669         27.3268         27.3268 
        1.22108         120.057         27.0127         27.0127 
         1.2272         119.113         26.7044         26.7044 
        1.23334         118.543         26.4002         26.4002 
        1.23949         117.314            26.1            26.1 
        1.24562         117.087         25.8054         25.8054 
        1.25174         116.001         25.5158         25.5158 
        1.25789         115.554         25.2299         25.2299 
        1.26402         115.076         24.9489         24.9489 
        1.27014         114.111         24.6728         24.6728 
        1.27628         113.643         24.4002         24.4002 
        1.28244         112.856         24.1312         24.1312 
        1.28858         112.452         23.8666         23.8666 
        1.29471         111.418         23.6067         23.6067 
        1.30084         110.837         23.3509         23.3509 
        1.30697         110.221         23.0985         23.0985 
        1.31312         109.857         22.8495         22.8495 
        1.31925         108.938          22.605          22.605 
        1.32537         108.523         22.3643         22.3643 
        1.33151         107.458         22.1263         22.1263 
        1.33765         106.993         21.8919         21.8919 
        1.34378         106.282         21.6615         21.6615 
        1.34992         106.154         21.4342         21.4342 
        1.35606         105.363         21.2097         21.2097 
         1.3622          104.46         20.9889         20.9889 
        1.36833         104.127         20.7717         20.7717 
        1.37445         103.362         20.5578         20.5578 
        1.38059         102.931         20.3462         20.3462 
        1.38675         102.153         20.1372         20.1372 
        1.39288         101.635         19.9319         19.9319 
        1.39901         101.344         19.7297         19.7297 
        1.40515         100.698         19.5298         19.5298 
         1.4113         99.7379         19.3327         19.3327 
        1.41742         99.6597         19.1392         19.1392 
        1.42355         98.8065          18.948          18.948 
         1.4297         98.2795         18.7588         18.7588 
        1.43585         97.5156         18.5723         18.5723 
        1.44198         97.2666         18.3891         18.3891 
        1.44809         96.5936         18.2087         18.2087 
        1.45423         95.9539         18.0301         18.0301 
        1.46036         95.7289         17.8542         17.8542 
        1.46649         95.1324         17.6806         17.6806 
        1.47263         94.6037         17.5093         17.5093 
        1.47877         94.2527         17.3402         17.3402 
        1.48491         93.4606         17.1732         17.1732 
        1.49104         93.0443         17.0088         17.0088 
        1.49718         92.4572         16.8464         16.8464 
        1.50333         91.9323         16.6858         16.6858 
        1.50947          91.357         16.5277         16.5277 
         1.5156         91.0762          16.372          16.372 
        1.52172         90.3487         16.2182         16.2182 
        1.52787         90.1733         16.0661         16.0661 
          1.534         89.6061         15.9162         15.9162 
        1.54013         88.9074         15.7683         15.7683 
        1.54627         88.4912         15.6221         15.6221 
        1.55241         88.0027         15.4777         15.4777 
        1.55855         87.6722         15.3354         15.3354 
        1.56467         87.0205         15.1953         15.1953 
         1.5708         86.6287         15.0565         15.0565 
        1.57695         86.3755         14.9192         14.9192 
        1.58308          85.466          14.784          14.784 
        1.58922          85.363         14.6504         14.6504 
        1.59535         84.9921         14.5185         14.5185 
         1.6015         84.3431         14.3881         14.3881 
        1.60764         83.9487         14.2593         14.2593 
        1.61376         83.4996         14.1325         14.1325 
        1.61989         83.0001         14.0071         14.0071 
        1.62604           82.62          13.883          13.883 
        1.63218         82.3136         13.7604         13.7604 
        1.63831         81.6675         13.6397         13.6397 
        1.64444         81.3051         13.5203         13.5203 
        1.65059         80.7145         13.4022         13.4022 
        1.65673         80.3134         13.2855         13.2855 
        1.66285          80.006         13.1706         13.1706 
        1.66898         79.5126          13.057          13.057 
        1.67512         78.9943         12.9446         12.9446 
        1.68127         78.5915         12.8334         12.8334 
         1.6874         78.2064         12.7237         12.7237 
        1.69353         77.8383         12.6154         12.6154 
        1.69967         77.3526         12.5081         12.5081 
        1.70581         77.0953         12.4021         12.4021 
        1.71193         76.8326         12.2978         12.2978 
        1.71806         76.0813         12.1944         12.1944 
        1.72421         75.8901          12.092          12.092 
        1.73035         75.4337          11.991          11.991 
        1.73649         74.9949         11.8911         11.8911 
        1.74262         74.6968         11.7924         11.7924 
        1.74876         74.3342         11.6948         11.6948 
        1.75489         73.7772         11.5985         11.5985 
        1.76101         73.5475         11.5034         11.5034 
        1.76715         73.0642         11.4091         11.4091 
        1.77329         72.7512         11.3159         11.3159 
        1.77943         72.2727         11.2236         11.2236 
        1.78557         72.0263         11.1325         11.1325 
        1.79171         71.6123         11.0424         11.0424 
        1.79785         71.3053         10.9533         10.9533 
        1.80399         70.8821         10.8652         10.8652 
        1.81012         70.6406         10.7782         10.7782 
        1.81625         70.0217         10.6922         10.6922 
        1.82239          69.745          10.607          10.607 
        1.82853         69.3921         10.5228         10.5228 
        1.83466         69.0541         10.4396         10.4396 
        1.84078         68.6537         10.3574         10.3574 
        1.84692         68.2107          10.276          10.276 
        1.85306         67.9427         10.1953         10.1953 
         1.8592         67.4045         10.1156         10.1156 
        1.86533         67.1945         10.0368         10.0368 
        1.87147         66.7509         9.95882         9.95882 
