# k  (h/Mpc)    Pcb(k)  (Mpc/h)^3    Pcb_linear(k) (Mpc/h)^3    Pcb_NL(k) (Mpc/h)^3   ShotnoiseSubtracted = false
     0.00783031         7596.22         7692.59         7692.59 
       0.013688         9777.59         9725.67         9725.67 
       0.019231         10036.2         10024.5         10024.5 
      0.0249154         9300.29         9441.22         9441.22 
      0.0312784         8304.38         8364.51         8364.51 
      0.0375637         7299.92         7298.52         7298.52 
      0.0433917         6408.63         6492.92         6492.92 
      0.0492413         5858.63         5892.47         5892.47 
      0.0555754         5300.62         5421.82         5421.82 
      0.0619321         5048.24         5042.71         5042.71 
       0.067871         4603.89         4697.17         4697.17 
      0.0738098         4234.12         4322.39         4322.39 
      0.0800417          3789.9         3899.95         3899.95 
      0.0862327         3420.91         3483.03         3483.03 
      0.0921407         3107.85          3124.5          3124.5 
      0.0982031         2793.83         2822.25         2822.25 
       0.104506         2619.57         2585.44         2585.44 
       0.110769         2440.71         2415.75         2415.75 
       0.116806         2296.62         2291.01         2291.01 
       0.122832         2196.74         2179.96         2179.96 
       0.129052         2043.68         2059.98         2059.98 
       0.135211         1921.59         1927.37         1927.37 
       0.141259         1814.61         1786.99         1786.99 
       0.147318         1694.06          1646.6          1646.6 
       0.153489         1552.38          1515.8          1515.8 
       0.159709         1463.29            1405            1405 
       0.165845         1403.36         1318.75         1318.75 
       0.171974         1324.41         1252.17         1252.17 
       0.178125         1266.72         1198.09         1198.09 
       0.184229         1219.76         1149.37         1149.37 
        0.19034         1142.38         1099.48         1099.48 
       0.196428         1116.15         1045.79         1045.79 
       0.202534         1073.95         988.485         988.485 
       0.208729         1015.69         929.775         929.775 
       0.214876         959.933         874.706         874.706 
       0.220989         928.886         826.015         826.015 
       0.227147         880.326         784.386         784.386 
        0.23329         847.071         749.763         749.763 
       0.239377         829.812         720.466         720.466 
       0.245482          777.54         693.801         693.801 
       0.251667         769.459           667.5           667.5 
       0.257832         741.621         640.722         640.722 
       0.263955         715.476         613.371         613.371 
       0.270079         689.675         585.874         585.874 
        0.27624         679.346         559.092         559.092 
       0.282372         650.689         534.308         534.308 
        0.28843         634.334         512.201         512.201 
       0.294538         604.915         492.394         492.394 
       0.300721         601.497         474.484         474.484 
        0.30691         574.246         458.053         458.053 
       0.313033         562.515         442.598         442.598 
       0.319153         544.911         427.461         427.461 
       0.325316         529.416         412.304         412.304 
        0.33145         513.874         397.364         397.364 
       0.337538         506.957         382.899         382.899 
       0.343633         490.674          369.07          369.07 
       0.349808         475.039         355.929         355.929 
       0.355968         470.152         343.799         343.799 
       0.362074         460.367         332.671         332.671 
       0.368217         448.044         322.228         322.228 
       0.374374         430.979         312.315         312.315 
       0.380519         426.479         302.782         302.782 
       0.386598         416.261         293.607         293.607 
       0.392688           412.8         284.623         284.623 
        0.39888         401.379         275.732         275.732 
       0.405048         392.889         267.191         267.191 
       0.411186         385.126         259.059         259.059 
       0.417313         378.352         251.354         251.354 
       0.423458         371.268         244.045         244.045 
       0.429607         363.402         237.109         237.109 
       0.435692         354.331         230.569         230.569 
       0.441815         351.792         224.254         224.254 
       0.447964         344.948         218.128         218.128 
       0.454126          333.01         212.174         212.174 
       0.460267         329.146         206.423         206.423 
       0.466387         325.447         200.876         200.876 
        0.47254         318.267         195.493         195.493 
       0.478662         316.898         190.344         190.344 
       0.484765          307.69         185.424         185.424 
       0.490885         303.829         180.693         180.693 
       0.497035         299.132         176.125         176.125 
       0.503198         292.532          171.72          171.72 
       0.509342         289.865         167.484         167.484 
       0.515458         286.379         163.405         163.405 
       0.521598         281.501         159.434         159.434 
       0.527764         276.753         155.569         155.569 
       0.533884         273.657         151.856         151.856 
           0.54         269.845          148.27          148.27 
       0.546137         268.376         144.792         144.792 
       0.552299         263.142         141.419         141.419 
       0.558452         260.184         138.166         138.166 
       0.564573         256.006         135.037         135.037 
       0.570708         251.539         132.003         132.003 
       0.576825         248.237         129.073         129.073 
       0.582926         245.337          126.24          126.24 
       0.589034         242.236         123.486         123.486 
       0.595184         239.786         120.794         120.794 
       0.601379         237.539         118.164         118.164 
       0.607522         232.786         115.634         115.634 
       0.613639         231.673         113.192         113.192 
       0.619772          226.43         110.817         110.817 
       0.625918         224.805         108.508         108.508 
       0.632068         222.001         106.266         106.266 
       0.638161         220.771         104.107         104.107 
         0.6443         217.211         101.994         101.994 
       0.650464         215.105         99.9323         99.9323 
       0.656582         213.433         97.9428         97.9428 
       0.662703         210.885         96.0076         96.0076 
       0.668861         207.713         94.1144         94.1144 
       0.675024         205.318         92.2717         92.2717 
       0.681124         204.428         90.4978         90.4978 
       0.687237         201.161         88.7678         88.7678 
       0.693381         198.407         87.0757         87.0757 
       0.699536          197.12         85.4255         85.4255 
       0.705665         196.558         83.8258         83.8258 
       0.711789          192.81         82.2692         82.2692 
       0.717957         191.946         80.7419         80.7419 
        0.72409         189.533         79.2625         79.2625 
       0.730186         186.788         77.8297         77.8297 
       0.736317         185.648          76.425          76.425 
       0.742472         184.504         75.0503         75.0503 
       0.748622         182.966         73.7112         73.7112 
        0.75476         181.335         72.4081         72.4081 
       0.760888          178.85         71.1389         71.1389 
       0.767043         177.999         69.8956         69.8956 
       0.773185         176.149          68.685          68.685 
       0.779291          173.39         67.5104         67.5104 
       0.785407         172.667         66.3619         66.3619 
       0.791564         171.016         65.2333         65.2333 
       0.797719         168.837         64.1318         64.1318 
       0.803834         168.079         63.0631         63.0631 
       0.809972         166.044         62.0152         62.0152 
       0.816124         165.965         60.9891         60.9891 
       0.822261         163.747         59.9893         59.9893 
       0.828378         162.248         59.0153         59.0153 
       0.834502         162.012         58.0623         58.0623 
       0.840667         159.504         57.1245         57.1245 
       0.846816          158.28         56.2103         56.2103 
       0.852925          157.21         55.3221         55.3221 
       0.859047         155.465         54.4515         54.4515 
       0.865192         154.555          53.597          53.597 
       0.871341         153.019         52.7605         52.7605 
       0.877463         151.846         51.9459         51.9459 
       0.883569         150.732         51.1507         51.1507 
       0.889708         149.649         50.3684         50.3684 
       0.895864         148.133         49.6006         49.6006 
       0.902008         147.299         48.8507         48.8507 
       0.908149         146.469         48.1169         48.1169 
       0.914301         144.821         47.3971         47.3971 
       0.920448          143.86          46.693          46.693 
       0.926574         143.066         46.0058         46.0058 
       0.932687         142.341          45.334          45.334 
       0.938823         140.459         44.6735         44.6735 
       0.944975         139.373         44.0247         44.0247 
       0.951105         138.629         43.3913         43.3913 
       0.957225         136.961         42.7716         42.7716 
       0.963368         136.058         42.1621         42.1621 
       0.969511         135.589         41.5645         41.5645 
       0.975621          134.91         40.9819         40.9819 
       0.981748         134.033         40.4091         40.4091 
       0.987916         132.435         39.8438         39.8438 
        0.99406         131.819         39.2915         39.2915 
        1.00019         130.948         38.7509         38.7509 
        1.00632         130.024          38.221          38.221 
        1.01246         129.082         37.7004         37.7004 
        1.01859         127.622         37.1904         37.1904 
        1.02471         127.587         36.6906         36.6906 
        1.03085         126.271         36.1984         36.1984 
        1.03698         125.308         35.7163         35.7163 
        1.04314         124.302         35.2411         35.2411 
        1.04929         123.597         34.7757         34.7757 
        1.05541          122.79         34.3207         34.3207 
        1.06154         122.012         33.8728         33.8728 
        1.06769         121.678         33.4323         33.4323 
        1.07382         120.967         33.0012         33.0012 
        1.07993          119.99         32.5787         32.5787 
        1.08607         119.029          32.162          32.162 
        1.09222         118.454         31.7522         31.7522 
        1.09836         117.468           31.35           31.35 
        1.10449         116.726         30.9554         30.9554 
        1.11063         116.017         30.5672         30.5672 
        1.11677         115.495         30.1859         30.1859 
         1.1229         114.264         29.8118         29.8118 
        1.12903         113.378         29.4438         29.4438 
        1.13518         113.563         29.0817         29.0817 
        1.14131         112.462         28.7261         28.7261 
        1.14745         111.567         28.3766         28.3766 
        1.15359         110.944         28.0329         28.0329 
        1.15973         110.588         27.6949         27.6949 
        1.16584          109.62         27.3639         27.3639 
        1.17197         109.003          27.038          27.038 
        1.17811         108.309         26.7165         26.7165 
        1.18424         107.585         26.4011         26.4011 
        1.19038         107.006           26.09           26.09 
        1.19652         106.446         25.7841         25.7841 
        1.20267         105.628         25.4831         25.4831 
        1.20881          104.98         25.1871         25.1871 
        1.21495         104.277         24.8962         24.8962 
        1.22108         103.702         24.6101         24.6101 
         1.2272         102.957         24.3291         24.3291 
        1.23334         102.488          24.052          24.052 
        1.23949         101.568         23.7785         23.7785 
        1.24562         101.324         23.5101         23.5101 
        1.25174          100.54         23.2463         23.2463 
        1.25789         100.044         22.9858         22.9858 
        1.26402         99.6356         22.7297         22.7297 
        1.27014         98.6699         22.4783         22.4783 
        1.27628         98.4196         22.2299         22.2299 
        1.28244         97.5725         21.9848         21.9848 
        1.28858         97.2217         21.7438         21.7438 
        1.29471         96.5585         21.5069         21.5069 
        1.30084         95.9229         21.2739         21.2739 
        1.30697         95.3857         21.0439         21.0439 
        1.31312         94.9809         20.8171         20.8171 
        1.31925         94.4241         20.5943         20.5943 
        1.32537         93.9947         20.3751         20.3751 
        1.33151         93.0888         20.1582         20.1582 
        1.33765         92.6133         19.9447         19.9447 
        1.34378         92.0259         19.7347         19.7347 
        1.34992         91.8325         19.5277         19.5277 
        1.35606         91.2406         19.3232         19.3232 
         1.3622         90.3892          19.122          19.122 
        1.36833          90.215         18.9241         18.9241 
        1.37445         89.5308         18.7292         18.7292 
        1.38059         89.0234         18.5365         18.5365 
        1.38675         88.4739          18.346          18.346 
        1.39288         87.9201          18.159          18.159 
        1.39901         87.7811         17.9748         17.9748 
        1.40515         87.2686         17.7926         17.7926 
         1.4113         86.4744         17.6131         17.6131 
        1.41742         86.3497         17.4368         17.4368 
        1.42355         85.5791         17.2626         17.2626 
         1.4297         85.1811         17.0903         17.0903 
        1.43585         84.5289         16.9203         16.9203 
        1.44198         84.2758         16.7534         16.7534 
        1.44809         83.7535         16.5891         16.5891 
        1.45423          83.288         16.4264         16.4264 
        1.46036         82.9874         16.2661         16.2661 
        1.46649         82.4506          16.108          16.108 
        1.47263         81.9946         15.9519         15.9519 
        1.47877          81.717         15.7979         15.7979 
        1.48491         81.1369         15.6457         15.6457 
        1.49104         80.6699         15.4959         15.4959 
        1.49718         80.2157         15.3479         15.3479 
        1.50333           79.76         15.2017         15.2017 
        1.50947          79.245         15.0577         15.0577 
         1.5156         79.0303         14.9157         14.9157 
        1.52172         78.4563         14.7756         14.7756 
        1.52787         78.2547         14.6371         14.6371 
          1.534          77.808         14.5005         14.5005 
        1.54013          77.222         14.3658         14.3658 
        1.54627         76.8739         14.2326         14.2326 
        1.55241         76.4002          14.101          14.101 
        1.55855         76.0323         13.9714         13.9714 
        1.56467         75.4736         13.8437         13.8437 
         1.5708         75.2919         13.7172         13.7172 
        1.57695         74.9955         13.5922         13.5922 
        1.58308         74.3208          13.469          13.469 
        1.58922         74.1902         13.3473         13.3473 
        1.59535         73.8943         13.2271         13.2271 
         1.6015         73.2381         13.1083         13.1083 
        1.60764         73.0194          12.991          12.991 
        1.61376         72.5234         12.8754         12.8754 
        1.61989         72.1082         12.7612         12.7612 
        1.62604         71.8397         12.6481         12.6481 
        1.63218         71.5939         12.5365         12.5365 
        1.63831         71.0798         12.4265         12.4265 
        1.64444         70.7454         12.3177         12.3177 
        1.65059         70.1831         12.2101         12.2101 
        1.65673         69.9723         12.1038         12.1038 
        1.66285         69.6044         11.9991         11.9991 
        1.66898         69.2519         11.8956         11.8956 
        1.67512         68.7651         11.7932         11.7932 
        1.68127         68.4007         11.6919         11.6919 
         1.6874         68.1163          11.592          11.592 
        1.69353         67.7839         11.4933         11.4933 
        1.69967          67.407         11.3956         11.3956 
        1.70581         67.1985          11.299          11.299 
        1.71193         66.9368         11.2039         11.2039 
        1.71806         66.2923         11.1098         11.1098 
        1.72421         66.1784         11.0165         11.0165 
        1.73035         65.7412         10.9244         10.9244 
        1.73649         65.3172         10.8334         10.8334 
        1.74262         65.1345         10.7435         10.7435 
        1.74876          64.809         10.6546         10.6546 
        1.75489         64.3644         10.5669         10.5669 
        1.76101         64.1517         10.4802         10.4802 
        1.76715         63.6951         10.3943         10.3943 
        1.77329         63.4435         10.3093         10.3093 
        1.77943         63.0844         10.2253         10.2253 
        1.78557          62.869         10.1423         10.1423 
        1.79171         62.5019         10.0602         10.0602 
        1.79785         62.2511         9.97905         9.97905 
        1.80399         61.8385         9.89879         9.89879 
        1.81012         61.6854         9.81953         9.81953 
        1.81625          61.089         9.74118         9.74118 
        1.82239         60.9018         9.66357         9.66357 
        1.82853         60.4799         9.58685         9.58685 
        1.83466         60.3107         9.51105         9.51105 
        1.84078         59.8528         9.43615         9.43615 
        1.84692         59.5775         9.36194         9.36194 
        1.85306         59.3368         9.28844         9.28844 
         1.8592         58.9061         9.21586         9.21586 
        1.86533         58.7031         9.14409         9.14409 
        1.87147         58.3749         9.07301         9.07301 
