# k  (h/Mpc)    P(k)  (Mpc/h)^3    P_linear(k)  (Mpc/h)^3     P_NL(k)  ShotnoiseSubtracted = false
     0.00783031         164.796         166.266         166.266 
       0.013688         209.605         210.418         210.418 
       0.019231         216.753         216.967         216.967 
      0.0249154         203.713         204.386         204.386 
      0.0312784         181.053         181.101         181.101 
      0.0375637         158.294         158.034         158.034 
      0.0433917         140.628         140.598         140.598 
      0.0492413          127.73           127.6           127.6 
      0.0555754         117.275         117.411         117.411 
      0.0619321         109.396         109.204         109.204 
       0.067871         101.589         101.722         101.722 
      0.0738098         93.4412         93.6072         93.6072 
      0.0800417         84.2426         84.4596         84.4596 
      0.0862327         75.3597         75.4313         75.4313 
      0.0921407         67.6736         67.6671         67.6671 
      0.0982031         61.0692         61.1215         61.1215 
       0.104506         56.1062         55.9932         55.9932 
       0.110769         52.3804         52.3184         52.3184 
       0.116806         49.5301         49.6169         49.6169 
       0.122832         47.2098         47.2121         47.2121 
       0.129052         44.5102         44.6137         44.6137 
       0.135211         41.6221         41.7419         41.7419 
       0.141259         38.6736         38.7016         38.7016 
       0.147318          35.714         35.6613         35.6613 
       0.153489         32.8374         32.8286         32.8286 
       0.159709         30.4427          30.429          30.429 
       0.165845         28.6759          28.561          28.561 
       0.171974         27.1116          27.119          27.119 
       0.178125         25.9512         25.9479         25.9479 
       0.184229         24.9279         24.8927         24.8927 
        0.19034         23.7499         23.8121         23.8121 
       0.196428          22.646         22.6495         22.6495 
       0.202534         21.4911         21.4083         21.4083 
       0.208729         20.1703         20.1368         20.1368 
       0.214876         18.9311         18.9442         18.9442 
       0.220989         17.9762         17.8896         17.8896 
       0.227147         16.9828         16.9881         16.9881 
        0.23329         16.2348         16.2382         16.2382 
       0.239377         15.6102         15.6037         15.6037 
       0.245482         15.0062         15.0262         15.0262 
       0.251667         14.4873         14.4566         14.4566 
       0.257832         13.8862         13.8766         13.8766 
       0.263955         13.3053         13.2843         13.2843 
       0.270079         12.7204         12.6887         12.6887 
        0.27624         12.1813         12.1087         12.1087 
       0.282372         11.6419          11.572          11.572 
        0.28843         11.1308         11.0932         11.0932 
       0.294538         10.7038         10.6642         10.6642 
       0.300721         10.3471         10.2763         10.2763 
        0.30691         9.95607         9.92046         9.92046 
       0.313033         9.62509         9.58573         9.58573 
       0.319153         9.24298          9.2579          9.2579 
       0.325316         8.99285         8.92963         8.92963 
        0.33145         8.65715         8.60606         8.60606 
       0.337538         8.34195         8.29278         8.29278 
       0.343633         8.02944         7.99327         7.99327 
       0.349808         7.75947         7.70867         7.70867 
       0.355968         7.50147         7.44598         7.44598 
       0.362074         7.25202         7.20494         7.20494 
       0.368217         7.02739          6.9788          6.9788 
       0.374374         6.78996         6.76408         6.76408 
       0.380519         6.60507         6.55762         6.55762 
       0.386598         6.41281         6.35894         6.35894 
       0.392688         6.23006         6.16434         6.16434 
        0.39888          6.0273         5.97178         5.97178 
       0.405048         5.84695         5.78679         5.78679 
       0.411186         5.67588         5.61069         5.61069 
       0.417313         5.49453         5.44379         5.44379 
       0.423458         5.34796         5.28552         5.28552 
       0.429607         5.18432         5.13528         5.13528 
       0.435692         5.04224         4.99364         4.99364 
       0.441815         4.90817         4.85688         4.85688 
       0.447964         4.79318         4.72421         4.72421 
       0.454126         4.64351         4.59525         4.59525 
       0.460267         4.51819         4.47071         4.47071 
       0.466387         4.39119         4.35057         4.35057 
        0.47254          4.2815         4.23398         4.23398 
       0.478662         4.17581         4.12246         4.12246 
       0.484765         4.06118          4.0159          4.0159 
       0.490885         3.96089         3.91343         3.91343 
       0.497035         3.88059          3.8145          3.8145 
       0.503198         3.77507         3.71911         3.71911 
       0.509342         3.68899         3.62736         3.62736 
       0.515458         3.59129         3.53901         3.53901 
       0.521598         3.50779         3.45302         3.45302 
       0.527764         3.41585         3.36931         3.36931 
       0.533884         3.34895         3.28889         3.28889 
           0.54         3.26717         3.21121         3.21121 
       0.546137         3.19591          3.1359          3.1359 
       0.552299         3.12082         3.06285         3.06285 
       0.558452         3.04066         2.99238         2.99238 
       0.564573         2.98006         2.92462         2.92462 
       0.570708         2.91451         2.85891         2.85891 
       0.576825         2.84555         2.79546         2.79546 
       0.582926         2.79168          2.7341          2.7341 
       0.589034         2.71515         2.67445         2.67445 
       0.595184         2.66171         2.61615         2.61615 
       0.601379         2.60478         2.55918         2.55918 
       0.607522         2.55707          2.5044          2.5044 
       0.613639         2.51136          2.4515          2.4515 
       0.619772         2.44754         2.40007         2.40007 
       0.625918          2.4018         2.35007         2.35007 
       0.632068         2.35864          2.3015          2.3015 
       0.638161         2.30542         2.25475         2.25475 
         0.6443         2.25897         2.20899         2.20899 
       0.650464         2.20828         2.16433         2.16433 
       0.656582          2.1718         2.12124         2.12124 
       0.662703          2.1301         2.07933         2.07933 
       0.668861         2.09466         2.03833         2.03833 
       0.675024         2.04859         1.99842         1.99842 
       0.681124          2.0052            1.96            1.96 
       0.687237          1.9739         1.92253         1.92253 
       0.693381         1.93802         1.88588         1.88588 
       0.699536         1.89098         1.85014         1.85014 
       0.705665         1.85875          1.8155          1.8155 
       0.711789         1.82914         1.78178         1.78178 
       0.717957         1.79187         1.74871         1.74871 
        0.72409         1.76133         1.71667         1.71667 
       0.730186         1.72882         1.68563         1.68563 
       0.736317          1.7059         1.65521         1.65521 
       0.742472         1.67408         1.62544         1.62544 
       0.748622         1.64226         1.59643         1.59643 
        0.75476         1.60891         1.56821         1.56821 
       0.760888         1.58139         1.54073         1.54073 
       0.767043         1.56328          1.5138          1.5138 
       0.773185         1.53057         1.48758         1.48758 
       0.779291         1.50621         1.46214         1.46214 
       0.785407         1.48141         1.43727         1.43727 
       0.791564         1.45749         1.41282         1.41282 
       0.797719          1.4357         1.38897         1.38897 
       0.803834         1.41279         1.36582         1.36582 
       0.809972         1.38851         1.34312         1.34312 
       0.816124         1.36384          1.3209          1.3209 
       0.822261         1.33972         1.29925         1.29925 
       0.828378         1.32195         1.27815         1.27815 
       0.834502         1.30359         1.25751         1.25751 
       0.840667         1.27748          1.2372          1.2372 
       0.846816         1.25816          1.2174          1.2174 
       0.852925          1.2434         1.19816         1.19816 
       0.859047         1.22367         1.17931         1.17931 
       0.865192         1.20277          1.1608          1.1608 
       0.871341         1.18423         1.14269         1.14269 
       0.877463         1.17069         1.12504         1.12504 
       0.883569         1.14949         1.10782         1.10782 
       0.889708         1.13216         1.09088         1.09088 
       0.895864         1.11536         1.07425         1.07425 
       0.902008         1.09751         1.05801         1.05801 
       0.908149         1.08162         1.04211         1.04211 
       0.914301         1.06159         1.02653         1.02653 
       0.920448         1.04833         1.01128         1.01128 
       0.926574         1.03268        0.996392        0.996392 
       0.932687          1.0178        0.981844        0.981844 
       0.938823          1.0074        0.967537        0.967537 
       0.944975        0.991872        0.953486        0.953486 
       0.951105        0.978606        0.939768        0.939768 
       0.957225        0.967434        0.926347        0.926347 
       0.963368        0.952564        0.913145        0.913145 
       0.969511        0.937275        0.900204        0.900204 
       0.975621         0.92312        0.887586        0.887586 
       0.981748        0.914476         0.87518         0.87518 
       0.987916        0.900707        0.862936        0.862936 
        0.99406        0.887271        0.850974        0.850974 
        1.00019        0.877867        0.839266        0.839266 
        1.00632        0.862753         0.82779         0.82779 
        1.01246        0.851515        0.816515        0.816515 
        1.01859        0.841999         0.80547         0.80547 
        1.02471         0.82988        0.794645        0.794645 
        1.03085        0.821767        0.783984        0.783984 
        1.03698        0.808864        0.773544        0.773544 
        1.04314        0.799192        0.763252        0.763252 
        1.04929        0.787718        0.753172        0.753172 
        1.05541         0.77941        0.743318        0.743318 
        1.06154        0.767866        0.733617        0.733617 
        1.06769        0.757416        0.724077        0.724077 
        1.07382        0.748994         0.71474         0.71474 
        1.07993        0.737824         0.70559         0.70559 
        1.08607        0.732071        0.696564        0.696564 
        1.09222        0.720843        0.687688        0.687688 
        1.09836        0.714709        0.678979        0.678979 
        1.10449        0.705538        0.670432        0.670432 
        1.11063         0.69449        0.662025        0.662025 
        1.11677        0.685312        0.653766        0.653766 
         1.1229        0.678331        0.645664        0.645664 
        1.12903        0.669202        0.637693        0.637693 
        1.13518        0.662817        0.629852        0.629852 
        1.14131        0.653607        0.622149        0.622149 
        1.14745        0.642858         0.61458         0.61458 
        1.15359         0.63793        0.607137        0.607137 
        1.15973        0.628261        0.599815        0.599815 
        1.16584        0.624446        0.592648        0.592648 
        1.17197        0.615934         0.58559         0.58559 
        1.17811        0.609653        0.578625        0.578625 
        1.18424        0.604176        0.571796        0.571796 
        1.19038        0.595134        0.565058        0.565058 
        1.19652        0.586932        0.558432        0.558432 
        1.20267        0.582792        0.551913        0.551913 
        1.20881        0.574765        0.545501        0.545501 
        1.21495        0.570025        0.539202        0.539202 
        1.22108        0.562975        0.533004        0.533004 
         1.2272        0.557538         0.52692         0.52692 
        1.23334        0.550334        0.520917        0.520917 
        1.23949        0.544375        0.514995        0.514995 
        1.24562        0.538592        0.509182        0.509182 
        1.25174        0.533063        0.503468        0.503468 
        1.25789        0.527903        0.497826        0.497826 
        1.26402        0.520155        0.492281        0.492281 
        1.27014        0.515089        0.486834        0.486834 
        1.27628        0.510939        0.481455        0.481455 
        1.28244        0.503192        0.476147        0.476147 
        1.28858        0.498855        0.470927        0.470927 
        1.29471        0.494945        0.465797        0.465797 
        1.30084        0.488315         0.46075         0.46075 
        1.30697        0.483291         0.45577         0.45577 
        1.31312         0.47648        0.450856        0.450856 
        1.31925        0.472652        0.446032        0.446032 
        1.32537        0.468502        0.441283        0.441283 
        1.33151         0.46432        0.436587        0.436587 
        1.33765        0.459205        0.431963        0.431963 
        1.34378        0.453227        0.427415        0.427415 
        1.34992        0.449531        0.422931        0.422931 
        1.35606        0.444686        0.418501        0.418501 
         1.3622        0.440329        0.414144        0.414144 
        1.36833        0.435604        0.409859        0.409859 
        1.37445        0.430042        0.405638        0.405638 
        1.38059        0.426092        0.401464        0.401464 
        1.38675         0.42441        0.397339        0.397339 
        1.39288        0.418796        0.393289        0.393289 
        1.39901        0.414814        0.389298        0.389298 
        1.40515        0.411158        0.385353        0.385353 
         1.4113        0.405981        0.381466        0.381466 
        1.41742        0.402203        0.377647        0.377647 
        1.42355        0.399712        0.373873        0.373873 
         1.4297        0.394506        0.370141        0.370141 
        1.43585        0.391185        0.366461        0.366461 
        1.44198        0.388569        0.362846        0.362846 
        1.44809        0.383608        0.359287        0.359287 
        1.45423         0.38035        0.355762        0.355762 
        1.46036        0.376474        0.352292        0.352292 
        1.46649        0.373673        0.348867        0.348867 
        1.47263        0.369588        0.345486        0.345486 
        1.47877        0.365413        0.342151        0.342151 
        1.48491        0.362644        0.338855        0.338855 
        1.49104        0.358255         0.33561         0.33561 
        1.49718         0.35545        0.332406        0.332406 
        1.50333        0.352839        0.329238        0.329238 
        1.50947        0.349233        0.326119        0.326119 
         1.5156        0.345747        0.323045        0.323045 
        1.52172         0.34285        0.320011        0.320011 
        1.52787        0.339565         0.31701         0.31701 
          1.534        0.336372        0.314052        0.314052 
        1.54013        0.332891        0.311135        0.311135 
        1.54627        0.330693        0.308249        0.308249 
        1.55241        0.327087        0.305401        0.305401 
        1.55855        0.323734        0.302592        0.302592 
        1.56467        0.322534        0.299827        0.299827 
         1.5708         0.31883        0.297088        0.297088 
        1.57695        0.316144         0.29438         0.29438 
        1.58308        0.313036        0.291713        0.291713 
        1.58922        0.310606        0.289076        0.289076 
        1.59535        0.307646        0.286474        0.286474 
         1.6015         0.30483          0.2839          0.2839 
        1.60764         0.30251        0.281359        0.281359 
        1.61376        0.299053        0.278856        0.278856 
        1.61989        0.297135        0.276382        0.276382 
        1.62604        0.294791        0.273933        0.273933 
        1.63218        0.292331        0.271516        0.271516 
        1.63831        0.289882        0.269133        0.269133 
        1.64444        0.287221        0.266778        0.266778 
        1.65059        0.284836        0.264446        0.264446 
        1.65673        0.282481        0.262145        0.262145 
        1.66285        0.280418        0.259877        0.259877 
        1.66898        0.278023        0.257636        0.257636 
        1.67512        0.275093        0.255417        0.255417 
        1.68127         0.27265        0.253223        0.253223 
         1.6874        0.271211        0.251059        0.251059 
        1.69353        0.268263        0.248922        0.248922 
        1.69967        0.266826        0.246805        0.246805 
        1.70581        0.263769        0.244714        0.244714 
        1.71193         0.26194        0.242655        0.242655 
        1.71806        0.259414        0.240615        0.240615 
        1.72421         0.25803        0.238595        0.238595 
        1.73035        0.255457        0.236601        0.236601 
        1.73649        0.253887         0.23463         0.23463 
        1.74262        0.251594        0.232683        0.232683 
        1.74876        0.249469        0.230758        0.230758 
        1.75489        0.247798        0.228858        0.228858 
        1.76101        0.245218         0.22698         0.22698 
        1.76715        0.243458        0.225121        0.225121 
        1.77329        0.241264         0.22328         0.22328 
        1.77943        0.239444         0.22146         0.22146 
        1.78557        0.238059        0.219662        0.219662 
        1.79171        0.236071        0.217885        0.217885 
        1.79785        0.234159        0.216127        0.216127 
        1.80399        0.232255        0.214388        0.214388 
        1.81012        0.230659        0.212672        0.212672 
        1.81625        0.228674        0.210975        0.210975 
        1.82239        0.227074        0.209294        0.209294 
        1.82853        0.224872        0.207632        0.207632 
        1.83466          0.2235        0.205991        0.205991 
        1.84078        0.221625        0.204368        0.204368 
        1.84692        0.219858        0.202761        0.202761 
        1.85306        0.218638        0.201169        0.201169 
         1.8592        0.216514        0.199597        0.199597 
        1.86533        0.215267        0.198043        0.198043 
        1.87147        0.213474        0.196504        0.196504 
        1.87761         0.21221         0.19498         0.19498 
