# k  (h/Mpc)    Pcb(k)  (Mpc/h)^3    Pcb_linear(k) (Mpc/h)^3    Pcb_NL(k) (Mpc/h)^3   ShotnoiseSubtracted = false
     0.00783031         2876.97          2908.2          2908.2 
       0.013688         3683.42         3677.93         3677.93 
       0.019231         3794.34         3791.42         3791.42 
      0.0249154         3539.68         3571.09         3571.09 
      0.0312784         3155.26         3163.98         3163.98 
      0.0375637         2766.93         2760.84         2760.84 
      0.0433917         2443.11         2456.15         2456.15 
      0.0492413         2226.97         2229.04         2229.04 
      0.0555754         2029.96         2051.02         2051.02 
      0.0619321         1915.91         1907.63         1907.63 
       0.067871          1762.4         1776.92         1776.92 
      0.0738098          1620.4         1635.15         1635.15 
      0.0800417         1455.43         1475.35         1475.35 
      0.0862327         1308.02         1317.63         1317.63 
      0.0921407         1180.74            1182            1182 
      0.0982031         1062.33         1067.66         1067.66 
       0.104506         986.901         978.078         978.078 
       0.110769         920.375         913.887         913.887 
       0.116806         866.086         866.697         866.697 
       0.122832         828.933         824.689         824.689 
       0.129052         775.826           779.3           779.3 
       0.135211         726.824         729.134         729.134 
       0.141259         680.986         676.028         676.028 
       0.147318         632.578         622.919         622.919 
       0.153489         580.031         573.438         573.438 
       0.159709         541.744         531.522         531.522 
       0.165845         515.558         498.892         498.892 
       0.171974          485.11         473.703         473.703 
       0.178125         464.948         453.246         453.246 
       0.184229         447.822         434.815         434.815 
        0.19034         421.178          415.94          415.94 
       0.196428          407.41         395.632         395.632 
       0.202534         390.659         373.951         373.951 
       0.208729         367.004         351.741         351.741 
       0.214876         344.129         330.908         330.908 
       0.220989         331.286         312.488         312.488 
       0.227147         311.538         296.739         296.739 
        0.23329         298.998         283.641         283.641 
       0.239377         290.256         272.558         272.558 
       0.245482         274.633         262.471         262.471 
       0.251667         269.123         252.521         252.521 
       0.257832         259.295          242.39          242.39 
       0.263955         248.796         232.043         232.043 
       0.270079         239.112         221.641         221.641 
        0.27624         232.622         211.509         211.509 
       0.282372         222.906         202.133         202.133 
        0.28843         213.899          193.77          193.77 
       0.294538         205.472         186.277         186.277 
       0.300721         201.686         179.501         179.501 
        0.30691         192.907         173.285         173.285 
       0.313033         187.463         167.439         167.439 
       0.319153         179.154         161.712         161.712 
       0.325316         175.758         155.978         155.978 
        0.33145         169.265         150.326         150.326 
       0.337538         165.567         144.854         144.854 
       0.343633         159.804         139.622         139.622 
       0.349808         154.949         134.651         134.651 
       0.355968          151.16         130.062         130.062 
       0.362074         146.642         125.852         125.852 
       0.368217         142.586         121.902         121.902 
       0.374374         138.454         118.151         118.151 
       0.380519         135.175         114.545         114.545 
       0.386598         131.554         111.074         111.074 
       0.392688         129.056         107.676         107.676 
        0.39888         125.454         104.312         104.312 
       0.405048         122.516         101.081         101.081 
       0.411186         119.762         98.0043         98.0043 
       0.417313         116.287         95.0893         95.0893 
       0.423458         113.578         92.3245         92.3245 
       0.429607         110.654         89.7004         89.7004 
       0.435692          107.19         87.2262         87.2262 
       0.441815         106.038         84.8374         84.8374 
       0.447964         104.268         82.5198         82.5198 
       0.454126         99.8562         80.2673         80.2673 
       0.460267         98.4246         78.0918         78.0918 
       0.466387         96.2021         75.9933         75.9933 
        0.47254         94.6285         73.9568         73.9568 
       0.478662         93.1248         72.0088         72.0088 
       0.484765         90.6369         70.1475         70.1475 
       0.490885         88.8277         68.3577         68.3577 
       0.497035         87.5937         66.6296         66.6296 
       0.503198         85.2872         64.9633         64.9633 
       0.509342         83.2946         63.3607         63.3607 
       0.515458         81.9016         61.8174         61.8174 
       0.521598         80.7538         60.3154         60.3154 
       0.527764         79.2707         58.8532         58.8532 
       0.533884         77.8951         57.4485         57.4485 
           0.54         76.3887         56.0917         56.0917 
       0.546137         75.4141         54.7762         54.7762 
       0.552299         74.2965         53.5001         53.5001 
       0.558452         72.2144         52.2693         52.2693 
       0.564573         70.9938         51.0857         51.0857 
       0.570708         70.1556         49.9379         49.9379 
       0.576825         68.6981         48.8296         48.8296 
       0.582926         67.4199         47.7577         47.7577 
       0.589034          65.843         46.7157         46.7157 
       0.595184         65.0626         45.6974         45.6974 
       0.601379         64.2003         44.7023         44.7023 
       0.607522         62.6948         43.7454         43.7454 
       0.613639         62.4489         42.8215         42.8215 
       0.619772         60.8759         41.9231         41.9231 
       0.625918         60.5021         41.0496         41.0496 
       0.632068         59.6216         40.2013         40.2013 
       0.638161         58.6014         39.3848         39.3848 
         0.6443         57.6178         38.5853         38.5853 
       0.650464         56.7204         37.8053         37.8053 
       0.656582         56.2751         37.0527         37.0527 
       0.662703         55.1522         36.3205         36.3205 
       0.668861         54.4056         35.6043         35.6043 
       0.675024         53.5795         34.9072         34.9072 
       0.681124         52.7027         34.2362         34.2362 
       0.687237         51.8202         33.5817         33.5817 
       0.693381         51.4101         32.9416         32.9416 
       0.699536         50.3485         32.3173         32.3173 
       0.705665         50.4398         31.7121         31.7121 
       0.711789         49.1553         31.1232         31.1232 
       0.717957         48.6727         30.5454         30.5454 
        0.72409         47.9913         29.9857         29.9857 
       0.730186         47.2712         29.4437         29.4437 
       0.736317         46.9449         28.9123         28.9123 
       0.742472          46.136         28.3922         28.3922 
       0.748622         45.7595         27.8856         27.8856 
        0.75476         45.0845         27.3926         27.3926 
       0.760888         44.4471         26.9125         26.9125 
       0.767043         43.9626         26.4422         26.4422 
       0.773185         43.3122         25.9842         25.9842 
       0.779291          43.092         25.5398         25.5398 
       0.785407          42.642         25.1053         25.1053 
       0.791564         41.8786         24.6784         24.6784 
       0.797719         41.1264         24.2617         24.2617 
       0.803834         41.0606         23.8573         23.8573 
       0.809972         40.5319         23.4609         23.4609 
       0.816124         39.7187         23.0727         23.0727 
       0.822261         39.5368         22.6945         22.6945 
       0.828378         39.1798          22.326          22.326 
       0.834502         38.7146         21.9655         21.9655 
       0.840667          38.318         21.6107         21.6107 
       0.846816         37.7314         21.2649         21.2649 
       0.852925         37.4228         20.9289         20.9289 
       0.859047         36.9485         20.5995         20.5995 
       0.865192         36.6484         20.2762         20.2762 
       0.871341         36.4391         19.9598         19.9598 
       0.877463         35.7278         19.6516         19.6516 
       0.883569         35.3971         19.3508         19.3508 
       0.889708         35.0642         19.0548         19.0548 
       0.895864         34.7715         18.7644         18.7644 
       0.902008         34.4939         18.4807         18.4807 
       0.908149         34.1343         18.2031         18.2031 
       0.914301          33.984         17.9308         17.9308 
       0.920448         33.3228         17.6644         17.6644 
       0.926574         33.1368         17.4044         17.4044 
       0.932687          32.771         17.1503         17.1503 
       0.938823         32.3625         16.9004         16.9004 
       0.944975         32.1346         16.6549         16.6549 
       0.951105         31.8696         16.4153         16.4153 
       0.957225          31.493         16.1809         16.1809 
       0.963368         31.3016         15.9503         15.9503 
       0.969511          31.042         15.7242         15.7242 
       0.975621         30.8059         15.5038         15.5038 
       0.981748         30.3802         15.2871         15.2871 
       0.987916         30.2019         15.0733         15.0733 
        0.99406         29.9028         14.8643         14.8643 
        1.00019         29.5292         14.6598         14.6598 
        1.00632         29.4209         14.4594         14.4594 
        1.01246         29.1766         14.2624         14.2624 
        1.01859         28.7705         14.0695         14.0695 
        1.02471         28.7174         13.8804         13.8804 
        1.03085          28.436         13.6942         13.6942 
        1.03698         27.9927         13.5118         13.5118 
        1.04314         27.8171          13.332          13.332 
        1.04929         27.5723          13.156          13.156 
        1.05541          27.292         12.9839         12.9839 
        1.06154         27.1527         12.8144         12.8144 
        1.06769         26.9632         12.6478         12.6478 
        1.07382         26.7041         12.4847         12.4847 
        1.07993          26.589         12.3248         12.3248 
        1.08607          26.229         12.1672         12.1672 
        1.09222         26.1007         12.0121         12.0121 
        1.09836         25.7808           11.86           11.86 
        1.10449         25.6833         11.7107         11.7107 
        1.11063         25.3554         11.5639         11.5639 
        1.11677         25.2747         11.4196         11.4196 
         1.1229         25.1516         11.2781         11.2781 
        1.12903         24.8122         11.1389         11.1389 
        1.13518         24.5978         11.0019         11.0019 
        1.14131         24.5249         10.8673         10.8673 
        1.14745         24.3241         10.7351         10.7351 
        1.15359         24.1851         10.6051         10.6051 
        1.15973         23.9307         10.4772         10.4772 
        1.16584         23.6585          10.352          10.352 
        1.17197         23.6795         10.2287         10.2287 
        1.17811         23.3688         10.1071         10.1071 
        1.18424         23.1625          9.9878          9.9878 
        1.19038         23.1018          9.8701          9.8701 
        1.19652         22.9315         9.75436         9.75436 
        1.20267         22.7357          9.6405          9.6405 
        1.20881         22.6202          9.5285          9.5285 
        1.21495         22.4442         9.41847         9.41847 
        1.22108         22.2556         9.31021         9.31021 
         1.2272         22.0311         9.20393         9.20393 
        1.23334         21.9217         9.09908         9.09908 
        1.23949         21.7343         8.99563         8.99563 
        1.24562         21.6727         8.89409         8.89409 
        1.25174         21.5416         8.79429         8.79429 
        1.25789         21.3802         8.69573         8.69573 
        1.26402         21.2872         8.59887         8.59887 
        1.27014         21.0609         8.50374         8.50374 
        1.27628         20.8558         8.40977         8.40977 
        1.28244         20.7996         8.31706         8.31706 
        1.28858         20.7197         8.22588         8.22588 
        1.29471         20.5175         8.13628         8.13628 
        1.30084         20.3579         8.04811         8.04811 
        1.30697         20.2341         7.96112         7.96112 
        1.31312         20.0509          7.8753          7.8753 
        1.31925         19.9312         7.79103         7.79103 
        1.32537         19.8785         7.70808         7.70808 
        1.33151         19.6867         7.62605         7.62605 
        1.33765         19.6001         7.54528         7.54528 
        1.34378         19.5045         7.46584         7.46584 
        1.34992         19.2672         7.38751         7.38751 
        1.35606         19.2381         7.31013         7.31013 
         1.3622         19.1249         7.23402         7.23402 
        1.36833         18.9593         7.15918         7.15918 
        1.37445         18.9009         7.08544         7.08544 
        1.38059          18.778         7.01253         7.01253 
        1.38675         18.5856         6.94048         6.94048 
        1.39288         18.5206         6.86974         6.86974 
        1.39901          18.372         6.80002         6.80002 
        1.40515         18.3022         6.73113         6.73113 
         1.4113         18.1678         6.66322         6.66322 
        1.41742          18.035         6.59651         6.59651 
        1.42355         17.9642          6.5306          6.5306 
         1.4297         17.8606          6.4654          6.4654 
        1.43585         17.8047         6.40113         6.40113 
        1.44198         17.6203         6.33798         6.33798 
        1.44809         17.5539         6.27581         6.27581 
        1.45423         17.4381         6.21425         6.21425 
        1.46036         17.3728         6.15363         6.15363 
        1.46649         17.2736         6.09381         6.09381 
        1.47263         17.1256         6.03474         6.03474 
        1.47877         17.0505         5.97649         5.97649 
        1.48491         16.9538         5.91892         5.91892 
        1.49104         16.8985         5.86224         5.86224 
        1.49718         16.7618         5.80627         5.80627 
        1.50333         16.6783         5.75094         5.75094 
        1.50947         16.6048         5.69645         5.69645 
         1.5156         16.4669         5.64276         5.64276 
        1.52172         16.3686         5.58977         5.58977 
        1.52787         16.2998         5.53735         5.53735 
          1.534         16.2024         5.48567         5.48567 
        1.54013         16.0815         5.43472         5.43472 
        1.54627           16.01         5.38432         5.38432 
        1.55241         15.9252         5.33456         5.33456 
        1.55855         15.8533          5.2855          5.2855 
        1.56467         15.7623          5.2372          5.2372 
         1.5708         15.7247         5.18937         5.18937 
        1.57695         15.5714         5.14206         5.14206 
        1.58308         15.5303         5.09546         5.09546 
        1.58922         15.4433         5.04941         5.04941 
        1.59535         15.3657         5.00395         5.00395 
         1.6015         15.2573         4.95899         4.95899 
        1.60764         15.1947         4.91461         4.91461 
        1.61376         15.1459          4.8709          4.8709 
        1.61989         14.9996         4.82769         4.82769 
        1.62604           14.99         4.78491         4.78491 
        1.63218         14.8808         4.74267         4.74267 
        1.63831         14.8296         4.70105         4.70105 
        1.64444         14.7069         4.65992         4.65992 
        1.65059         14.6444         4.61919         4.61919 
        1.65673         14.6028         4.57899         4.57899 
        1.66285         14.4696         4.53938         4.53938 
        1.66898         14.4402         4.50024         4.50024 
        1.67512         14.3767         4.46148         4.46148 
        1.68127         14.2732         4.42314         4.42314 
         1.6874         14.2081         4.38535         4.38535 
        1.69353         14.1539         4.34802         4.34802 
        1.69967         14.0593         4.31105         4.31105 
        1.70581         13.9819         4.27452         4.27452 
        1.71193         13.9105         4.23855         4.23855 
        1.71806          13.881         4.20293         4.20293 
        1.72421         13.7804         4.16764         4.16764 
        1.73035          13.747         4.13281         4.13281 
        1.73649         13.6684         4.09838         4.09838 
        1.74262         13.6163         4.06438         4.06438 
        1.74876         13.5421         4.03074         4.03074 
        1.75489         13.4853         3.99755         3.99755 
        1.76101         13.3818         3.96475         3.96475 
        1.76715         13.3868         3.93227         3.93227 
        1.77329         13.2824         3.90013         3.90013 
        1.77943         13.2064         3.86833         3.86833 
        1.78557         13.1622         3.83693         3.83693 
        1.79171         13.1243         3.80588         3.80588 
        1.79785         13.0262         3.77517         3.77517 
        1.80399         12.9729         3.74481         3.74481 
        1.81012         12.9158         3.71482         3.71482 
        1.81625         12.8427         3.68518         3.68518 
        1.82239         12.7981         3.65582         3.65582 
        1.82853         12.6957          3.6268          3.6268 
        1.83466         12.6628         3.59812         3.59812 
        1.84078         12.5714         3.56979         3.56979 
        1.84692         12.5576         3.54171         3.54171 
        1.85306           12.49         3.51391         3.51391 
         1.8592         12.4354         3.48645         3.48645 
        1.86533         12.3792          3.4593          3.4593 
        1.87147         12.3241         3.43241         3.43241 
