# k  (h/Mpc)    P(k)  (Mpc/h)^3    P_linear(k)  (Mpc/h)^3     P_NL(k)  ShotnoiseSubtracted = false
     0.00783031         3867.17         3910.93         3910.93 
       0.013688         4958.24         4945.61         4945.61 
       0.019231         5102.94         5098.03         5098.03 
      0.0249154         4752.35         4801.66         4801.66 
      0.0312784          4238.4         4254.21         4254.21 
      0.0375637         3719.14         3712.12         3712.12 
      0.0433917          3279.1         3302.43         3302.43 
      0.0492413         2991.31         2997.06         2997.06 
      0.0555754         2721.67          2757.7          2757.7 
      0.0619321         2575.07         2564.89         2564.89 
       0.067871          2363.5         2389.15         2389.15 
      0.0738098         2173.15         2198.52         2198.52 
      0.0800417         1950.16         1983.66         1983.66 
      0.0862327         1754.59         1771.61         1771.61 
      0.0921407         1586.28         1589.25         1589.25 
      0.0982031         1426.65         1435.51         1435.51 
       0.104506         1328.68         1315.06         1315.06 
       0.110769         1238.81         1228.75         1228.75 
       0.116806          1165.3          1165.3          1165.3 
       0.122832         1115.52         1108.82         1108.82 
       0.129052         1042.33         1047.79         1047.79 
       0.135211         977.361         980.345         980.345 
       0.141259         917.584         908.941         908.941 
       0.147318         853.412         837.535         837.535 
       0.153489         782.276         771.005         771.005 
       0.159709         732.409         714.649         714.649 
       0.165845         698.399         670.776         670.776 
       0.171974         657.402         636.909         636.909 
       0.178125         629.896         609.404         609.404 
       0.184229         606.819         584.622         584.622 
        0.19034         569.511         559.244         559.244 
       0.196428         552.679         531.939         531.939 
       0.202534         530.713         502.788         502.788 
       0.208729         499.283         472.927         472.927 
       0.214876         468.777         444.916         444.916 
       0.220989         452.127         420.149         420.149 
       0.227147         425.728         398.975         398.975 
        0.23329         408.962         381.365         381.365 
       0.239377         398.012         366.463         366.463 
       0.245482           375.2           352.9           352.9 
       0.251667         368.796         339.523         339.523 
       0.257832         355.657         325.901         325.901 
       0.263955          341.65         311.989         311.989 
       0.270079         328.651         298.003         298.003 
        0.27624         320.908         284.381         284.381 
       0.282372         307.559         271.774         271.774 
        0.28843         296.003          260.53          260.53 
       0.294538         283.926         250.455         250.455 
       0.300721         279.796         241.345         241.345 
        0.30691         267.374         232.987         232.987 
       0.313033         260.393         225.126         225.126 
       0.319153         249.463         217.427         217.427 
       0.325316         244.112         209.717         209.717 
        0.33145          235.53         202.118         202.118 
       0.337538         231.177          194.76          194.76 
       0.343633         223.298         187.726         187.726 
       0.349808         216.464         181.042         181.042 
       0.355968         211.956         174.873         174.873 
       0.362074         205.959         169.212         169.212 
       0.368217         200.403         163.901         163.901 
       0.374374         194.434         158.858         158.858 
       0.380519         190.268         154.009         154.009 
       0.386598         185.304         149.343         149.343 
       0.392688         182.208         144.773         144.773 
        0.39888         177.327          140.25          140.25 
       0.405048         173.258         135.906         135.906 
       0.411186         169.411          131.77          131.77 
       0.417313         165.191          127.85          127.85 
       0.423458         161.563         124.133         124.133 
       0.429607         157.533         120.605         120.605 
       0.435692         152.669         117.278         117.278 
       0.441815         151.389         114.066         114.066 
       0.447964          148.84          110.95          110.95 
       0.454126         142.433         107.922         107.922 
       0.460267         140.686         104.997         104.997 
       0.466387         138.173         102.175         102.175 
        0.47254         135.645         99.4371         99.4371 
       0.478662         133.823          96.818          96.818 
       0.484765          130.29         94.3155         94.3155 
       0.490885         127.963          91.909          91.909 
       0.497035         126.221         89.5855         89.5855 
       0.503198         122.818         87.3452         87.3452 
       0.509342         120.379         85.1903         85.1903 
       0.515458         118.602         83.1154         83.1154 
       0.521598         117.044         81.0958         81.0958 
       0.527764         115.072         79.1299         79.1299 
       0.533884         113.093         77.2413         77.2413 
           0.54         111.064          75.417          75.417 
       0.546137         109.906         73.6482         73.6482 
       0.552299         108.267         71.9325         71.9325 
       0.558452         105.605         70.2776         70.2776 
       0.564573         103.699         68.6862         68.6862 
       0.570708          102.53          67.143          67.143 
       0.576825         100.759         65.6528         65.6528 
       0.582926         98.9353         64.2116         64.2116 
       0.589034         96.8941         62.8107         62.8107 
       0.595184         95.7904         61.4415         61.4415 
       0.601379         94.7318         60.1036         60.1036 
       0.607522         92.3654          58.817          58.817 
       0.613639         92.2062         57.5747         57.5747 
       0.619772         89.9871         56.3668         56.3668 
       0.625918         89.2456         55.1925         55.1925 
       0.632068         88.1233         54.0518         54.0518 
       0.638161         86.8606          52.954          52.954 
         0.6443          85.615         51.8791         51.8791 
       0.650464         84.4039         50.8304         50.8304 
       0.656582          83.525         49.8184         49.8184 
       0.662703         81.8807          48.834          48.834 
       0.668861         81.0304         47.8711         47.8711 
       0.675024         79.9348         46.9338         46.9338 
       0.681124         78.8095         46.0315         46.0315 
       0.687237         77.4712         45.1516         45.1516 
       0.693381         76.7681         44.2909         44.2909 
       0.699536           75.54         43.4515         43.4515 
       0.705665         75.8324         42.6378         42.6378 
       0.711789         73.7666          41.846          41.846 
       0.717957          73.235         41.0692         41.0692 
        0.72409         72.2001         40.3167         40.3167 
       0.730186         71.0486         39.5879         39.5879 
       0.736317         70.8003         38.8734         38.8734 
       0.742472         69.7263         38.1742         38.1742 
       0.748622         69.1498          37.493          37.493 
        0.75476         68.2793         36.8302         36.8302 
       0.760888         67.3326         36.1847         36.1847 
       0.767043         66.6254         35.5523         35.5523 
       0.773185          65.803         34.9365         34.9365 
       0.779291           65.41          34.339          34.339 
       0.785407         64.7988         33.7549         33.7549 
       0.791564         63.7692         33.1808         33.1808 
       0.797719         62.8204         32.6205         32.6205 
       0.803834         62.6452         32.0769         32.0769 
       0.809972          61.599         31.5439         31.5439 
       0.816124         60.8232          31.022          31.022 
       0.822261         60.4863         30.5135         30.5135 
       0.828378         59.9554          30.018          30.018 
       0.834502         59.2633         29.5333         29.5333 
       0.840667         58.7483         29.0562         29.0562 
       0.846816         57.9643         28.5912         28.5912 
       0.852925         57.4725         28.1395         28.1395 
       0.859047         56.6895         27.6966         27.6966 
       0.865192         56.3893          27.262          27.262 
       0.871341          56.071         26.8365         26.8365 
       0.877463         54.9873         26.4222         26.4222 
       0.883569         54.6221         26.0177         26.0177 
       0.889708         54.2951         25.6198         25.6198 
       0.895864          53.753         25.2293         25.2293 
       0.902008         53.3158         24.8478         24.8478 
       0.908149         52.8357         24.4745         24.4745 
       0.914301         52.4821         24.1085         24.1085 
       0.920448         51.7511         23.7503         23.7503 
       0.926574         51.4165         23.4007         23.4007 
       0.932687         50.9324         23.0591         23.0591 
       0.938823         50.2283         22.7231         22.7231 
       0.944975          50.082         22.3931         22.3931 
       0.951105         49.5873         22.0709         22.0709 
       0.957225         48.9867         21.7557         21.7557 
       0.963368         48.8321         21.4456         21.4456 
       0.969511         48.4327         21.1417         21.1417 
       0.975621          48.029         20.8454         20.8454 
       0.981748         47.4495          20.554          20.554 
       0.987916         47.1764         20.2664         20.2664 
        0.99406         46.8654         19.9855         19.9855 
        1.00019          46.236         19.7105         19.7105 
        1.00632         46.0732          19.441          19.441 
        1.01246         45.6832         19.1762         19.1762 
        1.01859         45.1098         18.9168         18.9168 
        1.02471         45.1335         18.6626         18.6626 
        1.03085         44.6492         18.4122         18.4122 
        1.03698         44.0854          18.167          18.167 
        1.04314         43.7049         17.9253         17.9253 
        1.04929         43.5102         17.6886         17.6886 
        1.05541         43.0339         17.4572         17.4572 
        1.06154          42.906         17.2293         17.2293 
        1.06769         42.5138         17.0053         17.0053 
        1.07382         42.2271          16.786          16.786 
        1.07993         42.0674         16.5711         16.5711 
        1.08607         41.5202         16.3591         16.3591 
        1.09222         41.3858         16.1507         16.1507 
        1.09836         40.9622         15.9461         15.9461 
        1.10449         40.7297         15.7454         15.7454 
        1.11063         40.1847          15.548          15.548 
        1.11677         40.0453          15.354          15.354 
         1.1229         39.9144         15.1637         15.1637 
        1.12903         39.3404         14.9765         14.9765 
        1.13518         39.2123         14.7924         14.7924 
        1.14131         39.1111         14.6115         14.6115 
        1.14745         38.6596         14.4337         14.4337 
        1.15359         38.5287         14.2589         14.2589 
        1.15973         38.0839         14.0869         14.0869 
        1.16584         37.7712         13.9186         13.9186 
        1.17197         37.7836         13.7528         13.7528 
        1.17811         37.3243         13.5893         13.5893 
        1.18424         36.9929         13.4289         13.4289 
        1.19038         36.9576         13.2706         13.2706 
        1.19652         36.7228          13.115          13.115 
        1.20267         36.4421         12.9619         12.9619 
        1.20881         36.1672         12.8113         12.8113 
        1.21495         35.8911         12.6634         12.6634 
        1.22108         35.6608         12.5179         12.5179 
         1.2272         35.2667          12.375          12.375 
        1.23334         35.1675          12.234          12.234 
        1.23949         34.9745         12.0949         12.0949 
        1.24562         34.7904         11.9584         11.9584 
        1.25174          34.607         11.8242         11.8242 
        1.25789         34.3547         11.6917         11.6917 
        1.26402         34.1843         11.5614         11.5614 
        1.27014         33.8217         11.4335         11.4335 
        1.27628         33.6397         11.3072         11.3072 
        1.28244         33.4572         11.1825         11.1825 
        1.28858         33.3311         11.0599         11.0599 
        1.29471         33.1127         10.9395         10.9395 
        1.30084         32.8875         10.8209         10.8209 
        1.30697         32.6261          10.704          10.704 
        1.31312         32.3586         10.5886         10.5886 
        1.31925          32.247         10.4753         10.4753 
        1.32537         32.1175         10.3637         10.3637 
        1.33151         31.8467         10.2534         10.2534 
        1.33765         31.7782         10.1448         10.1448 
        1.34378         31.6193          10.038          10.038 
        1.34992         31.1661         9.93272         9.93272 
        1.35606         31.0938         9.82869         9.82869 
         1.3622         30.9099         9.72635         9.72635 
        1.36833         30.7267         9.62572         9.62572 
        1.37445         30.6999         9.52659         9.52659 
        1.38059         30.4998         9.42855         9.42855 
        1.38675         30.1959         9.33168         9.33168 
        1.39288            30.1         9.23656         9.23656 
        1.39901         29.8495         9.14283         9.14283 
        1.40515         29.7245         9.05019         9.05019 
         1.4113         29.5812         8.95889         8.95889 
        1.41742         29.2808          8.8692          8.8692 
        1.42355         29.2468         8.78059         8.78059 
         1.4297         29.0477         8.69293         8.69293 
        1.43585          28.989          8.6065          8.6065 
        1.44198         28.6842          8.5216          8.5216 
        1.44809         28.5898         8.43801         8.43801 
        1.45423          28.465         8.35524         8.35524 
        1.46036         28.3528         8.27374         8.27374 
        1.46649          28.139          8.1933          8.1933 
        1.47263         27.9641         8.11389         8.11389 
        1.47877         27.8511         8.03557         8.03557 
        1.48491         27.6743         7.95816         7.95816 
        1.49104         27.6222         7.88196         7.88196 
        1.49718         27.3605          7.8067          7.8067 
        1.50333         27.2732         7.73231         7.73231 
        1.50947         27.1615         7.65905         7.65905 
         1.5156         26.9417         7.58686         7.58686 
        1.52172         26.7276          7.5156          7.5156 
        1.52787         26.7493         7.44513         7.44513 
          1.534         26.5214         7.37565         7.37565 
        1.54013         26.3191         7.30714         7.30714 
        1.54627         26.2838         7.23937         7.23937 
        1.55241         26.0921         7.17247         7.17247 
        1.55855         25.9621         7.10651         7.10651 
        1.56467         25.8541         7.04156         7.04156 
         1.5708         25.7503         6.97725         6.97725 
        1.57695         25.4866         6.91365         6.91365 
        1.58308         25.5459           6.851           6.851 
        1.58922         25.3397         6.78908         6.78908 
        1.59535         25.1694         6.72796         6.72796 
         1.6015         25.0634         6.66751         6.66751 
        1.60764         25.0001         6.60784         6.60784 
        1.61376         24.8408         6.54906         6.54906 
        1.61989         24.6218         6.49097         6.49097 
        1.62604          24.595         6.43345         6.43345 
        1.63218         24.4108         6.37666         6.37666 
        1.63831         24.3619          6.3207          6.3207 
        1.64444         24.1912          6.2654          6.2654 
        1.65059         24.0644         6.21063         6.21063 
        1.65673          23.988         6.15658         6.15658 
        1.66285         23.8374         6.10333         6.10333 
        1.66898         23.7392          6.0507          6.0507 
        1.67512         23.6577         5.99859         5.99859 
        1.68127         23.4676         5.94705         5.94705 
         1.6874         23.3725         5.89623         5.89623 
        1.69353         23.3249         5.84604         5.84604 
        1.69967         23.1228         5.79633         5.79633 
        1.70581         23.0141         5.74721         5.74721 
        1.71193         22.8933         5.69886         5.69886 
        1.71806         22.8338         5.65096         5.65096 
        1.72421         22.7144         5.60352         5.60352 
        1.73035         22.6307         5.55668         5.55668 
        1.73649         22.4764         5.51039         5.51039 
        1.74262         22.4213         5.46467         5.46467 
        1.74876         22.2907         5.41944         5.41944 
        1.75489          22.179         5.37482         5.37482 
        1.76101         22.0906         5.33072         5.33072 
        1.76715         22.0107         5.28706         5.28706 
        1.77329         21.9189         5.24383         5.24383 
        1.77943         21.7855         5.20108         5.20108 
        1.78557         21.6894         5.15886         5.15886 
        1.79171         21.6244         5.11712         5.11712 
        1.79785         21.4723         5.07583         5.07583 
        1.80399         21.3794           5.035           5.035 
        1.81012          21.326         4.99469         4.99469 
        1.81625         21.2128         4.95483         4.95483 
        1.82239         21.1542         4.91536         4.91536 
        1.82853         20.9683         4.87634         4.87634 
        1.83466         20.8842         4.83778         4.83778 
        1.84078         20.7385         4.79968         4.79968 
        1.84692         20.7335         4.76193         4.76193 
        1.85306         20.5922         4.72455         4.72455 
         1.8592         20.5306         4.68763         4.68763 
        1.86533         20.4292         4.65113         4.65113 
        1.87147         20.3328         4.61497         4.61497 
        1.87761         20.2969         4.57919         4.57919 
