# k  (h/Mpc)    Pcb(k)  (Mpc/h)^3    Pcb_linear(k) (Mpc/h)^3    Pcb_NL(k) (Mpc/h)^3   ShotnoiseSubtracted = false
     0.00783031         659.435         665.693         665.693 
       0.013688          840.43         842.208         842.208 
       0.019231         868.068         868.325         868.325 
      0.0249154         813.999         817.929         817.929 
      0.0312784         724.189         724.721         724.721 
      0.0375637         633.752         632.399         632.399 
      0.0433917         561.993         562.618         562.618 
      0.0492413         511.009         510.602         510.602 
      0.0555754         468.219         469.828         469.828 
      0.0619321         438.379         436.984         436.984 
       0.067871         405.942         407.045         407.045 
      0.0738098         373.286         374.571         374.571 
      0.0800417         336.161         337.965         337.965 
      0.0862327         301.112         301.838         301.838 
      0.0921407         270.735         270.769         270.769 
      0.0982031         244.033         244.577         244.577 
       0.104506         224.938         224.056         224.056 
       0.110769         209.922         209.351         209.351 
       0.116806         198.095         198.541         198.541 
       0.122832          189.15         188.918         188.918 
       0.129052         177.941         178.521         178.521 
       0.135211           166.4         167.029         167.029 
       0.141259         154.969         154.864         154.864 
       0.147318         143.379         142.698         142.698 
       0.153489         131.679         131.363         131.363 
       0.159709         122.237         121.761         121.761 
       0.165845         115.541         114.286         114.286 
       0.171974         108.928         108.516         108.516 
       0.178125         104.339         103.829         103.829 
       0.184229         100.337         99.6071         99.6071 
        0.19034         95.1996         95.2833         95.2833 
       0.196428         91.1149         90.6312         90.6312 
       0.202534           86.79         85.6646         85.6646 
       0.208729         81.3788         80.5768         80.5768 
       0.214876         76.2623         75.8044         75.8044 
       0.220989         72.7818         71.5847         71.5847 
       0.227147         68.5202          67.977          67.977 
        0.23329         65.5597         64.9766         64.9766 
       0.239377         63.1694         62.4376         62.4376 
       0.245482         60.5029         60.1268         60.1268 
       0.251667         58.6635         57.8474         57.8474 
       0.257832         56.2692         55.5268         55.5268 
       0.263955         53.9201         53.1565         53.1565 
       0.270079         51.6301         50.7735         50.7735 
        0.27624         49.6557         48.4526         48.4526 
       0.282372          47.492         46.3047         46.3047 
        0.28843         45.3772         44.3889         44.3889 
       0.294538         43.6468         42.6723         42.6723 
       0.300721         42.3536         41.1202         41.1202 
        0.30691          40.658         39.6962         39.6962 
       0.313033         39.3347         38.3569         38.3569 
       0.319153         37.6129         37.0451         37.0451 
       0.325316         36.8419         35.7315         35.7315 
        0.33145         35.4268         34.4368         34.4368 
       0.337538         34.2323         33.1832         33.1832 
       0.343633         32.9487         31.9847         31.9847 
       0.349808         31.9036         30.8459         30.8459 
       0.355968         30.8827         29.7947         29.7947 
       0.362074         29.8728         28.8303         28.8303 
       0.368217         28.9693         27.9253         27.9253 
       0.374374         27.9961         27.0662         27.0662 
       0.380519         27.2777           26.24           26.24 
       0.386598         26.5062         25.4449         25.4449 
       0.392688          25.827         24.6664         24.6664 
        0.39888         24.9925         23.8958         23.8958 
       0.405048         24.3065         23.1556         23.1556 
       0.411186         23.6463         22.4509         22.4509 
       0.417313         22.8459         21.7831         21.7831 
       0.423458         22.2556         21.1497         21.1497 
       0.429607         21.5918         20.5486         20.5486 
       0.435692         20.9905         19.9818         19.9818 
       0.441815         20.4927         19.4346         19.4346 
       0.447964         20.0844         18.9037         18.9037 
       0.454126         19.3804         18.3877         18.3877 
       0.460267         18.9219         17.8893         17.8893 
       0.466387         18.3486         17.4086         17.4086 
        0.47254         17.9777         16.9421         16.9421 
       0.478662         17.5812         16.4958         16.4958 
       0.484765         17.0795         16.0694         16.0694 
       0.490885         16.6624         15.6594         15.6594 
       0.497035         16.3929         15.2636         15.2636 
       0.503198         15.9526         14.8818         14.8818 
       0.509342         15.5764         14.5147         14.5147 
       0.515458          15.176         14.1612         14.1612 
       0.521598         14.8633         13.8171         13.8171 
       0.527764          14.491         13.4821         13.4821 
       0.533884         14.2273         13.1603         13.1603 
           0.54         13.8961         12.8495         12.8495 
       0.546137          13.617         12.5482         12.5482 
       0.552299          13.334         12.2558         12.2558 
       0.558452         12.9403         11.9739         11.9739 
       0.564573         12.7425         11.7027         11.7027 
       0.570708          12.481         11.4398         11.4398 
       0.576825         12.1567         11.1859         11.1859 
       0.582926         11.9469         10.9404         10.9404 
       0.589034         11.5966         10.7017         10.7017 
       0.595184         11.4086         10.4684         10.4684 
       0.601379          11.162         10.2404         10.2404 
       0.607522         10.9858         10.0212         10.0212 
       0.613639         10.8232         9.80957         9.80957 
       0.619772         10.5324         9.60377         9.60377 
       0.625918         10.4014         9.40368         9.40368 
       0.632068         10.2284         9.20933         9.20933 
       0.638161         9.97436         9.02229         9.02229 
         0.6443         9.77063         8.83915         8.83915 
       0.650464         9.55909         8.66047         8.66047 
       0.656582         9.45804         8.48805         8.48805 
       0.662703           9.278         8.32033         8.32033 
       0.668861         9.11294         8.15627         8.15627 
       0.675024         8.91732         7.99657         7.99657 
       0.681124         8.75326         7.84284         7.84284 
       0.687237         8.61765         7.69291         7.69291 
       0.693381          8.4797         7.54627         7.54627 
       0.699536         8.25111         7.40326         7.40326 
       0.705665         8.13856         7.26462         7.26462 
       0.711789         8.00608         7.12972         7.12972 
       0.717957         7.85866         6.99736         6.99736 
        0.72409          7.7207         6.86915         6.86915 
       0.730186         7.60929         6.74498         6.74498 
       0.736317         7.52044         6.62324         6.62324 
       0.742472         7.39345         6.50411         6.50411 
       0.748622         7.25701         6.38806         6.38806 
        0.75476         7.09173         6.27513         6.27513 
       0.760888         7.00376         6.16514         6.16514 
       0.767043         6.91729         6.05739         6.05739 
       0.773185         6.76907         5.95247         5.95247 
       0.779291         6.69512         5.85068         5.85068 
       0.785407         6.58282         5.75115         5.75115 
       0.791564         6.47589         5.65334         5.65334 
       0.797719         6.37588         5.55788         5.55788 
       0.803834         6.30229         5.46526         5.46526 
       0.809972         6.21787         5.37444         5.37444 
       0.816124         6.08657         5.28552         5.28552 
       0.822261         5.98529         5.19888         5.19888 
       0.828378         5.91494         5.11446         5.11446 
       0.834502         5.84971         5.03187         5.03187 
       0.840667         5.73078          4.9506          4.9506 
       0.846816          5.6384         4.87137         4.87137 
       0.852925         5.58442          4.7944          4.7944 
       0.859047         5.50174         4.71895         4.71895 
       0.865192         5.43608          4.6449          4.6449 
       0.871341         5.36411          4.5724          4.5724 
       0.877463         5.28772          4.5018          4.5018 
       0.883569         5.18989          4.4329          4.4329 
       0.889708         5.10606         4.36509         4.36509 
       0.895864         5.05203         4.29856         4.29856 
       0.902008         4.97904         4.23356         4.23356 
       0.908149         4.91894         4.16997         4.16997 
       0.914301         4.83102          4.1076          4.1076 
       0.920448         4.76488         4.04657         4.04657 
       0.926574         4.69743         3.98702         3.98702 
       0.932687         4.64987          3.9288          3.9288 
       0.938823         4.59125         3.87155         3.87155 
       0.944975          4.5252         3.81533         3.81533 
       0.951105         4.47381         3.76044         3.76044 
       0.957225         4.44386         3.70673         3.70673 
       0.963368         4.37194         3.65391         3.65391 
       0.969511         4.31001         3.60212         3.60212 
       0.975621         4.24576         3.55163         3.55163 
       0.981748         4.20477         3.50199         3.50199 
       0.987916         4.14981           3.453           3.453 
        0.99406         4.08045         3.40513         3.40513 
        1.00019         4.03227         3.35828         3.35828 
        1.00632         3.99002         3.31236         3.31236 
        1.01246         3.94473         3.26724         3.26724 
        1.01859          3.8946         3.22305         3.22305 
        1.02471         3.84509         3.17973         3.17973 
        1.03085         3.80106         3.13708         3.13708 
        1.03698         3.74783          3.0953          3.0953 
        1.04314         3.71021         3.05411         3.05411 
        1.04929         3.66051         3.01378         3.01378 
        1.05541          3.6185         2.97435         2.97435 
        1.06154         3.57858         2.93553         2.93553 
        1.06769         3.54737         2.89736         2.89736 
        1.07382          3.4949            2.86            2.86 
        1.07993         3.44526         2.82338         2.82338 
        1.08607         3.42413         2.78727         2.78727 
        1.09222         3.37907         2.75175         2.75175 
        1.09836         3.34968          2.7169          2.7169 
        1.10449          3.3086          2.6827          2.6827 
        1.11063         3.26528         2.64906         2.64906 
        1.11677         3.23015         2.61601         2.61601 
         1.1229          3.1929         2.58359         2.58359 
        1.12903         3.15501          2.5517          2.5517 
        1.13518         3.12824         2.52032         2.52032 
        1.14131         3.07973          2.4895          2.4895 
        1.14745         3.03377         2.45921         2.45921 
        1.15359          3.0192         2.42943         2.42943 
        1.15973          2.9733         2.40013         2.40013 
        1.16584         2.95686         2.37145         2.37145 
        1.17197         2.92086         2.34321         2.34321 
        1.17811         2.89128         2.31534         2.31534 
        1.18424         2.86929         2.28801         2.28801 
        1.19038         2.83431         2.26105         2.26105 
        1.19652         2.80414         2.23454         2.23454 
        1.20267          2.7774         2.20845         2.20845 
        1.20881         2.74198          2.1828          2.1828 
        1.21495         2.72131         2.15759         2.15759 
        1.22108         2.69235         2.13279         2.13279 
         1.2272         2.67234         2.10844         2.10844 
        1.23334         2.63435         2.08442         2.08442 
        1.23949         2.60591         2.06073         2.06073 
        1.24562          2.5895         2.03747         2.03747 
        1.25174         2.55498          2.0146          2.0146 
        1.25789         2.53413         1.99203         1.99203 
        1.26402         2.50148         1.96984         1.96984 
        1.27014         2.47682         1.94804         1.94804 
        1.27628         2.46434         1.92652         1.92652 
        1.28244         2.42819         1.90528         1.90528 
        1.28858          2.4115         1.88439         1.88439 
        1.29471         2.38517         1.86387         1.86387 
        1.30084         2.35957         1.84367         1.84367 
        1.30697         2.34568         1.82374         1.82374 
        1.31312         2.30498         1.80408         1.80408 
        1.31925         2.29499         1.78477         1.78477 
        1.32537         2.27286         1.76577         1.76577 
        1.33151         2.25661         1.74698         1.74698 
        1.33765          2.2265         1.72848         1.72848 
        1.34378         2.20491         1.71028         1.71028 
        1.34992         2.19466         1.69234         1.69234 
        1.35606         2.16238         1.67461         1.67461 
         1.3622         2.15067         1.65718         1.65718 
        1.36833         2.12902         1.64003         1.64003 
        1.37445         2.10616         1.62314         1.62314 
        1.38059         2.09116         1.60644         1.60644 
        1.38675         2.08048         1.58993         1.58993 
        1.39288         2.05153         1.57373         1.57373 
        1.39901         2.03166         1.55775         1.55775 
        1.40515         2.01617         1.54197         1.54197 
         1.4113         1.99846         1.52642         1.52642 
        1.41742         1.98168         1.51113         1.51113 
        1.42355         1.97039         1.49604         1.49604 
         1.4297         1.94367          1.4811          1.4811 
        1.43585         1.93301         1.46638         1.46638 
        1.44198         1.91967         1.45191         1.45191 
        1.44809         1.89315         1.43767         1.43767 
        1.45423         1.87883         1.42357         1.42357 
        1.46036         1.86296         1.40968         1.40968 
        1.46649         1.84557         1.39598         1.39598 
        1.47263         1.82799         1.38244         1.38244 
        1.47877         1.81029          1.3691          1.3691 
        1.48491           1.797         1.35591         1.35591 
        1.49104         1.78448         1.34293         1.34293 
        1.49718         1.77119          1.3301          1.3301 
        1.50333          1.7534         1.31743         1.31743 
        1.50947         1.74157         1.30495         1.30495 
         1.5156         1.72612         1.29265         1.29265 
        1.52172         1.71153         1.28051         1.28051 
        1.52787         1.69589          1.2685          1.2685 
          1.534          1.6853         1.25666         1.25666 
        1.54013         1.66715         1.24499         1.24499 
        1.54627         1.65115         1.23344         1.23344 
        1.55241         1.63871         1.22205         1.22205 
        1.55855          1.6282         1.21081         1.21081 
        1.56467         1.61543         1.19974         1.19974 
         1.5708         1.59648         1.18878         1.18878 
        1.57695         1.58983         1.17795         1.17795 
        1.58308         1.57574         1.16727         1.16727 
        1.58922         1.56419         1.15672         1.15672 
        1.59535         1.55138         1.14631         1.14631 
         1.6015         1.53958         1.13601         1.13601 
        1.60764          1.5294         1.12584         1.12584 
        1.61376         1.51609         1.11583         1.11583 
        1.61989         1.50323         1.10593         1.10593 
        1.62604         1.49077         1.09613         1.09613 
        1.63218         1.48394         1.08646         1.08646 
        1.63831          1.4668         1.07692         1.07692 
        1.64444         1.45536          1.0675          1.0675 
        1.65059         1.44735         1.05817         1.05817 
        1.65673         1.43508         1.04896         1.04896 
        1.66285         1.42203         1.03989         1.03989 
        1.66898         1.41529         1.03092         1.03092 
        1.67512         1.39981         1.02204         1.02204 
        1.68127         1.39116         1.01326         1.01326 
         1.6874         1.38381          1.0046          1.0046 
        1.69353         1.36785        0.996049        0.996049 
        1.69967         1.35827        0.987578        0.987578 
        1.70581         1.35299         0.97921         0.97921 
        1.71193         1.34021        0.970972        0.970972 
        1.71806         1.33297         0.96281         0.96281 
        1.72421         1.32177        0.954728        0.954728 
        1.73035         1.31005        0.946747        0.946747 
        1.73649         1.30265        0.938861        0.938861 
        1.74262         1.29283        0.931071        0.931071 
        1.74876         1.28353        0.923365        0.923365 
        1.75489         1.27159        0.915762        0.915762 
        1.76101         1.26308        0.908248        0.908248 
        1.76715         1.25495        0.900809        0.900809 
        1.77329          1.2461        0.893445        0.893445 
        1.77943          1.2355         0.88616         0.88616 
        1.78557         1.22693        0.878968        0.878968 
        1.79171         1.22111        0.871855        0.871855 
        1.79785         1.21004         0.86482         0.86482 
        1.80399         1.20285        0.857864        0.857864 
        1.81012         1.19592        0.850995        0.850995 
        1.81625         1.18452        0.844205        0.844205 
        1.82239         1.17727        0.837479        0.837479 
        1.82853          1.1647        0.830831        0.830831 
        1.83466         1.16019        0.824261        0.824261 
        1.84078         1.15155         0.81777         0.81777 
        1.84692         1.14569        0.811339        0.811339 
        1.85306          1.1358        0.804969        0.804969 
         1.8592         1.12959        0.798679        0.798679 
        1.86533         1.12056        0.792459        0.792459 
        1.87147         1.11402        0.786299        0.786299 
