#  k  (h/Mpc)          P(k)  (Mpc/h)^3     P_linear(k)   P_NL(k) (Mpc/h)^3
     0.00783031         1279.74         1291.31         1290.52 
       0.013688          1725.9         1726.62         1720.91 
       0.019231          1864.9         1865.26          1856.2 
      0.0249154         1819.21          1832.2         1825.17 
      0.0312784         1681.26          1685.6         1681.16 
      0.0375637         1509.62         1507.78         1504.07 
      0.0433917         1351.78         1357.17         1354.26 
      0.0492413         1236.04         1236.65            1234 
      0.0555754          1132.9         1140.71         1137.76 
      0.0619321         1072.82          1069.2         1066.07 
       0.067871         1005.49         1011.37         1007.79 
      0.0738098         944.872         951.667         946.902 
      0.0800417         871.765         881.528         876.943 
      0.0862327         799.313         805.206         801.838 
      0.0921407         728.581         731.438         728.533 
      0.0982031         657.006         661.373         659.994 
       0.104506         601.993         600.044         599.942 
       0.110769         554.645         553.012         552.335 
       0.116806         517.929         519.733         518.986 
       0.122832         495.843         495.021         494.614 
       0.129052         471.219         473.957         473.475 
       0.135211         450.129         453.355         452.892 
       0.141259         430.021         430.738         430.701 
       0.147318         406.315         405.049         405.849 
       0.153489          376.57         376.898         376.925 
       0.159709         350.018         348.747          349.85 
       0.165845         328.601          323.47         326.352 
       0.171974         304.897         302.236         305.131 
       0.178125         288.812         285.417          289.53 
       0.184229         277.087         272.625         276.842 
        0.19034         263.273         262.472         266.577 
       0.196428         256.755          253.51         256.716 
       0.202534          249.64         244.365         247.788 
       0.208729         237.999         234.111         237.358 
       0.214876         225.136         222.822         227.301 
       0.220989         216.672         210.937         215.901 
       0.227147         202.374          199.07         204.156 
        0.23329         192.214         188.114         194.338 
       0.239377         184.232         178.665         185.514 
       0.245482         174.503         170.773         177.114 
       0.251667         170.183         164.223         171.154 
       0.257832         164.506         158.719         165.542 
       0.263955         159.225          153.75          160.29 
       0.270079         154.417         148.803          155.12 
        0.27624         150.664         143.564         149.599 
       0.282372         144.835          138.01         144.387 
        0.28843         138.636         132.315         138.844 
       0.294538         133.067          126.61           133.6 
       0.300721          129.23         121.141         128.708 
        0.30691         123.323         116.184         123.934 
       0.313033         119.335         111.872         119.489 
       0.319153         113.998         108.124         116.161 
       0.325316         112.355         104.779         113.079 
        0.33145         108.665         101.709         109.554 
       0.337538         106.178         98.7471         106.399 
       0.343633         102.846         95.7572         103.529 
       0.349808         99.9641         92.6548         100.636 
       0.355968         97.0603         89.5111         98.1114 
       0.362074         93.9632         86.4224         94.8727 
       0.368217         91.2103         83.4269         91.4485 
       0.374374         88.2737         80.6191         89.1035 
       0.380519          86.015         78.0459         86.3959 
       0.386598         83.7298         75.7289         84.2027 
       0.392688         82.0345         73.6019         82.1777 
        0.39888         79.7812         71.5768         79.9237 
       0.405048         78.0532         69.6431          77.917 
       0.411186         76.3868         67.7517         76.5022 
       0.417313         73.8867         65.8683           74.22 
       0.423458         72.1611         63.9904         72.5082 
       0.429607          70.182         62.1348         70.5464 
       0.435692         68.0875         60.3494         68.9725 
       0.441815         66.9689          58.633         67.6451 
       0.447964         65.8632          57.006          65.791 
       0.454126         63.3582         55.4747         64.1346 
       0.460267         62.2046         54.0438         62.9159 
       0.466387         60.5227         52.6943         61.3631 
        0.47254         59.6865         51.3911         60.1714 
       0.478662         58.6152          50.131         58.8212 
       0.484765         57.0891         48.9019         57.5158 
       0.490885         55.8043         47.6897         56.6372 
       0.497035         55.0405         46.4924         55.5233 
       0.503198         53.6848         45.3238         54.0372 
       0.509342         52.3471          44.199         53.0795 
       0.515458         51.3022         43.1243         52.3078 
       0.521598          50.482         42.0914          50.844 
       0.527764         49.4561         41.1007         49.6857 
       0.533884         48.5993         40.1612         48.7972 
           0.54         47.6803         39.2581         47.8664 
       0.546137         46.9075         38.3795         47.1566 
       0.552299         46.1798         37.5192          46.041 
       0.558452         44.7778         36.6809         45.1654 
       0.564573         44.1934         35.8675         44.6094 
       0.570708         43.5386         35.0731         43.7639 
       0.576825         42.4402         34.3029         42.9608 
       0.582926         41.7456         33.5578         42.2649 
       0.589034         40.6306         32.8364         41.6196 
       0.595184         40.1241         32.1361          40.676 
       0.601379         39.4761         31.4565         40.1862 
       0.607522         38.7692          30.805         39.3669 
       0.613639         38.4326         30.1755           38.71 
       0.619772         37.4499         29.5613         38.1505 
       0.625918         37.2624         28.9609         37.5792 
       0.632068         36.6501         28.3754         36.8513 
       0.638161         35.9011         27.8105         36.2637 
         0.6443         35.2121         27.2567         35.6207 
       0.650464         34.6111         26.7162         35.1969 
       0.656582         34.3946         26.1948         34.6502 
       0.662703         33.7698         25.6876         34.0468 
       0.668861         33.1777         25.1917         33.6382 
       0.675024         32.6135         24.7091         33.0019 
       0.681124         32.0736         24.2446         32.5227 
       0.687237         31.5729         23.7917         31.9577 
       0.693381         31.2839         23.3487          31.506 
       0.699536         30.5049         22.9164         31.0989 
       0.705665         30.3583          22.497         30.7739 
       0.711789         29.7679         22.0883         30.2136 
       0.717957         29.3833         21.6868         29.7866 
        0.72409         28.9408         21.2974          29.437 
       0.730186         28.5763         20.9199         28.9642 
       0.736317         28.2792         20.5495          28.559 
       0.742472         27.8122         20.1868         28.3303 
       0.748622         27.4987         19.8334         27.8396 
        0.75476         26.9782         19.4895         27.4419 
       0.760888         26.6941         19.1545         27.1261 
       0.767043         26.3737         18.8263         26.8369 
       0.773185         25.8871         18.5067         26.4793 
       0.779291         25.7396         18.1965         26.1733 
       0.785407         25.3966         17.8931         25.7997 
       0.791564         24.9473         17.5948         25.4874 
       0.797719          24.528         17.3035          25.115 
       0.803834         24.4326         17.0207         24.7791 
       0.809972         24.2176         16.7433         24.5989 
       0.816124          23.641         16.4715         24.2083 
       0.822261         23.4887         16.2065         23.8911 
       0.828378          23.209         15.9483         23.6212 
       0.834502         22.9662         15.6955         23.4173 
       0.840667         22.6717         15.4466         23.0735 
       0.846816         22.2946         15.2039         22.8505 
       0.852925         22.1013          14.968         22.7015 
       0.859047         21.8516         14.7367         22.3305 
       0.865192         21.6624         14.5096          22.078 
       0.871341         21.4791         14.2872         21.8858 
       0.877463         21.1162         14.0706          21.596 
       0.883569         20.8245          13.859         21.4069 
       0.889708         20.5295         13.6508         21.1358 
       0.895864         20.4265         13.4463          20.881 
       0.902008         20.2437         13.2466         20.6955 
       0.908149         20.0197         13.0511         20.4803 
       0.914301         19.8376         12.8592         20.3238 
       0.920448         19.4698         12.6715         20.0105 
       0.926574          19.316         12.4882         19.8171 
       0.932687         19.1386         12.3089         19.5387 
       0.938823         18.8875         12.1326          19.406 
       0.944975         18.6598         11.9594         19.1873 
       0.951105         18.5304         11.7902         18.9375 
       0.957225         18.3707         11.6246         18.8634 
       0.963368         18.1591         11.4617         18.6129 
       0.969511         18.0144          11.302         18.4647 
       0.975621         17.8391         11.1461         18.2285 
       0.981748          17.635         10.9929          18.087 
       0.987916         17.4926         10.8416         17.9053 
        0.99406         17.2582         10.6937         17.7361 
        1.00019         17.0039          10.549         17.5967 
        1.00632         17.0067         10.4071         17.4253 
        1.01246          16.812         10.2676         17.3163 
        1.01859         16.5678         10.1309         17.0961 
        1.02471         16.4802         9.99689         16.8954 
        1.03085         16.3324         9.86488         16.7683 
        1.03698         16.0849         9.73557         16.6315 
        1.04314         15.9953         9.60806         16.4505 
        1.04929          15.785         9.48315         16.3261 
        1.05541         15.6356         9.36099          16.199 
        1.06154         15.5063         9.24071         16.0337 
        1.06769         15.4445         9.12238         15.9062 
        1.07382         15.2213         9.00654         15.7758 
        1.07993         15.1251         8.89299         15.6355 
        1.08607         14.9842         8.78095           15.47 
        1.09222         14.8521         8.67075         15.3437 
        1.09836         14.6893          8.5626         15.1932 
        1.10449         14.5867         8.45643         15.0691 
        1.11063         14.4615         8.35197         14.9617 
        1.11677          14.366         8.24933         14.8241 
         1.1229         14.2579         8.14862          14.718 
        1.12903         14.1135         8.04952         14.6387 
        1.13518         13.9504           7.952         14.5028 
        1.14131           13.84         7.85617         14.3572 
        1.14745          13.721         7.76199         14.2055 
        1.15359         13.6336         7.66935         14.1189 
        1.15973          13.529         7.57821         14.0104 
        1.16584         13.3381         7.48896         13.9453 
        1.17197         13.2646         7.40105         13.8112 
        1.17811         13.1893         7.31429         13.6798 
        1.18424         13.0814         7.22918         13.5883 
        1.19038          13.011          7.1452         13.4755 
        1.19652         12.8803          7.0626         13.3831 
        1.20267         12.7269         6.98133         13.2495 
        1.20881         12.7105         6.90136         13.2027 
        1.21495         12.6024         6.82278         13.0863 
        1.22108         12.4544         6.74545         12.9908 
         1.2272         12.3852         6.66951         12.8608 
        1.23334         12.2396         6.59458         12.7901 
        1.23949         12.1615         6.52064         12.7062 
        1.24562         12.1105         6.44804         12.5925 
        1.25174         11.9998         6.37667         12.5074 
        1.25789         11.9218         6.30617         12.4132 
        1.26402         11.8538         6.23688         12.2989 
        1.27014         11.7528          6.1688         12.2312 
        1.27628         11.6265         6.10154         12.1591 
        1.28244         11.5254         6.03517         12.0861 
        1.28858         11.5064         5.96988         11.9789 
        1.29471         11.3876         5.90571         11.8967 
        1.30084         11.2806         5.84256          11.841 
        1.30697         11.2777         5.78023         11.7379 
        1.31312         11.0885         5.71874         11.6679 
        1.31925         11.0428         5.65835         11.6061 
        1.32537         10.9687         5.59889          11.527 
        1.33151         10.9201         5.54009         11.4379 
        1.33765         10.8075         5.48217         11.3434 
        1.34378         10.7224          5.4252          11.292 
        1.34992         10.6583         5.36901         11.2114 
        1.35606         10.5907         5.31351         11.1088 
         1.3622         10.5299         5.25889         11.0467 
        1.36833          10.451         5.20518         11.0144 
        1.37445         10.3878         5.15226         10.9225 
        1.38059         10.3458         5.09991           10.84 
        1.38675          10.246         5.04817         10.7823 
        1.39288         10.1784         4.99737         10.7101 
        1.39901         10.0766         4.94729         10.6522 
        1.40515         10.0473         4.89779         10.5836 
         1.4113         9.98634         4.84899         10.5117 
        1.41742         9.91226         4.80105         10.4483 
        1.42355         9.82924         4.75368         10.3735 
         1.4297         9.75174         4.70681         10.3259 
        1.43585         9.72477         4.66059         10.2731 
        1.44198         9.69044         4.61518         10.1833 
        1.44809         9.58729         4.57046         10.1475 
        1.45423         9.51732         4.52618         10.0765 
        1.46036         9.46808         4.48256         10.0125 
        1.46649         9.39629         4.43952         9.96153 
        1.47263         9.32459           4.397          9.9076 
        1.47877         9.27465         4.35507          9.8442 
        1.48491          9.2173         4.31363         9.78101 
        1.49104         9.16895         4.27281         9.72375 
        1.49718         9.11547          4.2325         9.67063 
        1.50333         9.05685         4.19265         9.62216 
        1.50947         8.99391          4.1534         9.56904 
         1.5156         8.94634         4.11471         9.51215 
        1.52172         8.89463         4.07651         9.45411 
        1.52787          8.8385         4.03873         9.38767 
          1.534         8.77817         4.00148         9.33474 
        1.54013         8.74282         3.96474         9.28687 
        1.54627         8.66228          3.9284         9.24157 
        1.55241         8.62112         3.89251         9.19283 
        1.55855         8.58304         3.85712         9.12945 
        1.56467         8.51625         3.82228         9.09291 
         1.5708          8.4844         3.78777         9.05356 
        1.57695         8.40625         3.75363         8.99444 
        1.58308         8.36153            3.72         8.94897 
        1.58922         8.33298         3.68677         8.90691 
        1.59535         8.29305         3.65395         8.84983 
         1.6015           8.228         3.62149         8.79542 
        1.60764         8.17629         3.58944         8.75834 
        1.61376          8.1379         3.55788         8.72383 
        1.61989         8.09709         3.52667         8.67648 
        1.62604           8.038         3.49577         8.62467 
        1.63218         8.01642         3.46526          8.5822 
        1.63831         7.97303         3.43519         8.54188 
        1.64444         7.92759         3.40546         8.48861 
        1.65059         7.84204         3.37602         8.44539 
        1.65673         7.82537         3.34697         8.40494 
        1.66285         7.75427         3.31833         8.36474 
        1.66898         7.73212         3.29003          8.3259 
        1.67512          7.6936           3.262         8.28608 
        1.68127         7.65089         3.23428         8.24438 
         1.6874         7.61405         3.20694         8.20101 
        1.69353         7.56471         3.17994         8.15638 
        1.69967         7.52264         3.15319         8.11282 
        1.70581         7.47707         3.12676         8.08079 
        1.71193         7.44889         3.10073         8.05214 
        1.71806         7.41772         3.07495         8.00823 
        1.72421         7.35952         3.04941         7.96618 
        1.73035          7.3389         3.02419         7.92392 
        1.73649         7.29868         2.99927         7.88068 
        1.74262         7.23666         2.97465         7.84659 
        1.74876         7.22507         2.95029         7.81653 
        1.75489         7.19746         2.92625         7.77719 
        1.76101         7.13358          2.9025         7.72881 
        1.76715         7.10625         2.87897         7.69202 
        1.77329         7.07458         2.85568         7.66348 
        1.77943         7.01469         2.83264         7.63144 
        1.78557         7.00654         2.80989         7.59212 
        1.79171         6.95178         2.78739         7.55297 
        1.79785         6.92321         2.76513         7.51657 
        1.80399         6.87864         2.74312         7.48404 
        1.81012         6.85749         2.72139         7.46109 
        1.81625         6.80949         2.69989         7.43066 
        1.82239         6.78582          2.6786         7.39178 
        1.82853         6.75288         2.65755         7.36332 
        1.83466          6.7254         2.63675         7.33795 
        1.84078         6.68834          2.6162         7.30234 
        1.84692         6.66802         2.59583         7.25167 
        1.85306         6.61401         2.57566         7.21818 
         1.8592         6.57728         2.55573         7.19903 
        1.86533          6.5545         2.53603         7.16823 
        1.87147         6.52687         2.51651         7.13417 
        1.87761         6.49048         2.49719         7.10295 
