# k  (h/Mpc)    P(k)  (Mpc/h)^3    P_linear(k)  (Mpc/h)^3     P_NL(k)  ShotnoiseSubtracted = false
     0.00783031           18583         18677.8         18677.8 
       0.013688           21121         21715.2         21715.2 
       0.019231         20602.1         20933.5         20933.5 
      0.0249154         18564.6         18476.7         18476.7 
      0.0312784         15183.9         15304.2         15304.2 
      0.0375637         12454.4         12641.3         12641.3 
      0.0433917         10832.3           10857           10857 
      0.0492413          9575.3         9660.94         9660.94 
      0.0555754         8787.94         8803.77         8803.77 
      0.0619321         7866.69          8127.8          8127.8 
       0.067871         7352.16         7478.94         7478.94 
      0.0738098         6716.71         6744.34         6744.34 
      0.0800417         5938.55          5915.3          5915.3 
      0.0862327         5155.91         5126.35         5126.35 
      0.0921407         4580.33         4488.89         4488.89 
      0.0982031         4156.88         3994.34         3994.34 
       0.104506         3735.76         3645.25         3645.25 
       0.110769          3520.9         3419.62         3419.62 
       0.116806         3393.24         3257.53         3257.53 
       0.122832         3196.22         3097.17         3097.17 
       0.129052         2986.37         2899.74         2899.74 
       0.135211          2843.8          2667.7          2667.7 
       0.141259         2576.17         2423.51         2423.51 
       0.147318         2349.38         2190.79         2190.79 
       0.153489         2182.96         1989.95         1989.95 
       0.159709         2088.63         1835.75         1835.75 
       0.165845         1922.78         1727.86         1727.86 
       0.171974          1882.6         1650.68         1650.68 
       0.178125         1824.68          1586.5          1586.5 
       0.184229         1685.23         1520.72         1520.72 
        0.19034         1649.64         1444.14         1444.14 
       0.196428         1587.87         1356.73         1356.73 
       0.202534         1474.11         1263.92         1263.92 
       0.208729         1436.37         1173.37         1173.37 
       0.214876         1359.84         1094.61         1094.61 
       0.220989         1287.68         1030.89         1030.89 
       0.227147         1251.75         980.851         980.851 
        0.23329         1203.28         941.276         941.276 
       0.239377         1195.43          907.06          907.06 
       0.245482         1136.23          873.06          873.06 
       0.251667         1093.29         836.061         836.061 
       0.257832          1071.6         796.106         796.106 
       0.263955         1017.75          754.99          754.99 
       0.270079         984.247         714.961         714.961 
        0.27624         942.051         678.126         678.126 
       0.282372         927.142         646.281         646.281 
        0.28843         910.298         619.549         619.549 
       0.294538         866.725         596.444         596.444 
       0.300721         848.477         575.419         575.419 
        0.30691         827.266         555.224         555.224 
       0.313033         792.533         535.024         535.024 
       0.319153         782.419         514.311         514.311 
       0.325316         770.604         493.217         493.217 
        0.33145          750.96         472.689         472.689 
       0.337538         724.193         453.453         453.453 
       0.343633         706.143         435.857         435.857 
       0.349808         690.946         419.798         419.798 
       0.355968          677.06         405.383         405.383 
       0.362074         652.729         392.213         392.213 
       0.368217         649.867          379.62          379.62 
       0.374374         639.839         367.301         367.301 
       0.380519         614.989         355.086         355.086 
       0.386598         609.764         343.145         343.145 
       0.392688         593.769         331.453         331.453 
        0.39888         580.373         320.041         320.041 
       0.405048         567.019         309.346         309.346 
       0.411186         566.422         299.413         299.413 
       0.417313         559.481          290.17          290.17 
       0.423458          544.16         281.483         281.483 
       0.429607         528.026         273.209         273.209 
       0.435692         521.468         265.298         265.298 
       0.441815         511.804         257.555         257.555 
       0.447964         502.702         249.964         249.964 
       0.454126         496.829         242.552         242.552 
       0.460267         489.059         235.421         235.421 
       0.466387         478.706         228.623         228.623 
        0.47254         472.977         222.114         222.114 
       0.478662         463.853         215.951         215.951 
       0.484765         457.292         210.107         210.107 
       0.490885         453.669         204.504         204.504 
       0.497035         442.845         199.082         199.082 
       0.503198         442.132         193.817         193.817 
       0.509342         433.204         188.723         188.723 
       0.515458          424.51         183.808         183.808 
       0.521598         421.327         179.034         179.034 
       0.527764         412.743         174.404         174.404 
       0.533884         408.399         169.976         169.976 
           0.54         404.412         165.722         165.722 
       0.546137         396.795         161.624         161.624 
       0.552299         394.862         157.665         157.665 
       0.558452         388.433         153.851         153.851 
       0.564573         386.078         150.178         150.178 
       0.570708           380.2         146.605         146.605 
       0.576825         373.123         143.151         143.151 
       0.582926         371.984         139.814         139.814 
       0.589034         364.969         136.579         136.579 
       0.595184         362.271         133.427         133.427 
       0.601379         356.235         130.356         130.356 
       0.607522         349.517         127.409         127.409 
       0.613639         348.539         124.568         124.568 
       0.619772         346.855         121.808         121.808 
       0.625918         339.606         119.129         119.129 
       0.632068          338.22          116.53          116.53 
       0.638161         334.528         114.032         114.032 
         0.6443         329.624          111.59          111.59 
       0.650464         326.568         109.209         109.209 
       0.656582         323.108         106.914         106.914 
       0.662703         321.194         104.683         104.683 
       0.668861         315.351         102.503         102.503 
       0.675024         314.253         100.384         100.384 
       0.681124         308.244         98.3469         98.3469 
       0.687237         307.534         96.3631         96.3631 
       0.693381         302.638         94.4257         94.4257 
       0.699536         302.256         92.5389         92.5389 
       0.705665         297.817         90.7123         90.7123 
       0.711789         295.486         88.9371         88.9371 
       0.717957          292.82         87.1975         87.1975 
        0.72409         288.968         85.5141         85.5141 
       0.730186         289.751         83.8854         83.8854 
       0.736317         284.674         82.2902         82.2902 
       0.742472         282.465         80.7306         80.7306 
       0.748622         280.464          79.213          79.213 
        0.75476         278.164         77.7377         77.7377 
       0.760888         275.563         76.3023         76.3023 
       0.767043         272.409         74.8975         74.8975 
       0.773185         270.114         73.5312         73.5312 
       0.779291         267.681         72.2068         72.2068 
       0.785407         265.709         70.9132         70.9132 
       0.791564         264.141         69.6433         69.6433 
       0.797719         259.871         68.4053         68.4053 
       0.803834         260.442         67.2053         67.2053 
       0.809972         256.321         66.0299         66.0299 
       0.816124         253.831         64.8802         64.8802 
       0.822261         251.938          63.761          63.761 
       0.828378         250.747         62.6717         62.6717 
       0.834502         247.128          61.607          61.607 
       0.840667         247.125         60.5602         60.5602 
       0.846816         242.985         59.5408         59.5408 
       0.852925         243.206         58.5513         58.5513 
       0.859047         240.389         57.5823         57.5823 
       0.865192          239.32         56.6322         56.6322 
       0.871341         236.495         55.7029         55.7029 
       0.877463         235.137         54.7988         54.7988 
       0.883569         233.764         53.9171         53.9171 
       0.889708         231.676         53.0503         53.0503 
       0.895864         228.534         52.2004         52.2004 
       0.902008         227.442          51.371          51.371 
       0.908149         225.261         50.5601         50.5601 
       0.914301         224.154         49.7655         49.7655 
       0.920448         222.451         48.9887         48.9887 
       0.926574           220.5         48.2313         48.2313 
       0.932687         220.291         47.4915         47.4915 
       0.938823         217.683         46.7646         46.7646 
       0.944975          217.35         46.0513         46.0513 
       0.951105         214.815         45.3555         45.3555 
       0.957225         212.813         44.6752         44.6752 
       0.963368         212.924         44.0066         44.0066 
       0.969511         209.433         43.3517         43.3517 
       0.975621         207.338         42.7136         42.7136 
       0.981748         207.269         42.0867         42.0867 
       0.987916         206.014         41.4685         41.4685 
        0.99406         203.885         40.8651         40.8651 
        1.00019         202.625         40.2748         40.2748 
        1.00632         201.722         39.6968         39.6968 
        1.01246         200.179         39.1293         39.1293 
        1.01859         197.973         38.5738         38.5738 
        1.02471          196.56         38.0298         38.0298 
        1.03085         195.426         37.4944         37.4944 
        1.03698         194.875         36.9705         36.9705 
        1.04314         193.782         36.4543         36.4543 
        1.04929         192.284         35.9492         35.9492 
        1.05541         191.485         35.4557         35.4557 
        1.06154         189.536         34.9703         34.9703 
        1.06769          188.28         34.4932         34.4932 
        1.07382          186.57         34.0266         34.0266 
        1.07993         185.674         33.5697         33.5697 
        1.08607         184.881         33.1193         33.1193 
        1.09222         183.019         32.6768         32.6768 
        1.09836           182.2         32.2428         32.2428 
        1.10449         181.184         31.8173         31.8173 
        1.11063         179.682         31.3989         31.3989 
        1.11677         178.233         30.9883         30.9883 
         1.1229         178.081         30.5857         30.5857 
        1.12903         175.833         30.1899         30.1899 
        1.13518         175.002         29.8008         29.8008 
        1.14131         174.215         29.4188         29.4188 
        1.14745          172.42         29.0437         29.0437 
        1.15359          171.52          28.675          28.675 
        1.15973         170.844         28.3126         28.3126 
        1.16584         169.639         27.9581         27.9581 
        1.17197         168.911         27.6092         27.6092 
        1.17811         167.178         27.2651         27.2651 
        1.18424          166.28          26.928          26.928 
        1.19038         165.656         26.5955         26.5955 
        1.19652          163.63         26.2688         26.2688 
        1.20267         163.063         25.9476         25.9476 
        1.20881         161.908         25.6318         25.6318 
        1.21495         161.535         25.3218         25.3218 
        1.22108         160.208         25.0169         25.0169 
         1.2272         159.263         24.7178         24.7178 
        1.23334         158.057         24.4229         24.4229 
        1.23949         157.312         24.1321         24.1321 
        1.24562         156.197         23.8468         23.8468 
        1.25174         155.691         23.5665         23.5665 
        1.25789         154.233         23.2899         23.2899 
        1.26402         153.628         23.0183         23.0183 
        1.27014         152.802         22.7516         22.7516 
        1.27628         152.089         22.4883         22.4883 
        1.28244         150.579         22.2287         22.2287 
        1.28858          149.82         21.9735         21.9735 
        1.29471         148.629         21.7229         21.7229 
        1.30084          148.16         21.4764         21.4764 
        1.30697         147.063         21.2334         21.2334 
        1.31312         146.365         20.9938         20.9938 
        1.31925         145.193         20.7587         20.7587 
        1.32537         144.796         20.5273         20.5273 
        1.33151         143.435         20.2987         20.2987 
        1.33765         142.892         20.0737         20.0737 
        1.34378         142.326         19.8525         19.8525 
        1.34992          141.02         19.6346         19.6346 
        1.35606         140.472         19.4194         19.4194 
         1.3622          139.36         19.2078         19.2078 
        1.36833         138.731         18.9999         18.9999 
        1.37445         138.164         18.7951         18.7951 
        1.38059         136.865         18.5928         18.5928 
        1.38675         136.138         18.3929         18.3929 
        1.39288         135.329         18.1968         18.1968 
        1.39901         134.295         18.0036         18.0036 
        1.40515         133.739         17.8128         17.8128 
         1.4113         133.098         17.6248         17.6248 
        1.41742          132.28         17.4403         17.4403 
        1.42355           131.4          17.258          17.258 
         1.4297         130.646         17.0778         17.0778 
        1.43585         130.205         16.9002         16.9002 
        1.44198         128.967         16.7259         16.7259 
        1.44809         128.538         16.5543         16.5543 
        1.45423         127.865         16.3845         16.3845 
        1.46036         127.059         16.2174         16.2174 
        1.46649         126.019         16.0525         16.0525 
        1.47263         125.625         15.8898         15.8898 
        1.47877         124.809         15.7295         15.7295 
        1.48491         123.858          15.571          15.571 
        1.49104         122.971         15.4151         15.4151 
        1.49718         122.534         15.2612         15.2612 
        1.50333         121.447         15.1092         15.1092 
        1.50947         121.183         14.9595         14.9595 
         1.5156         120.232         14.8121         14.8121 
        1.52172          119.56         14.6667         14.6667 
        1.52787         119.166         14.5229         14.5229 
          1.534         118.467         14.3812         14.3812 
        1.54013         117.543         14.2416         14.2416 
        1.54627         116.992         14.1035         14.1035 
        1.55241         116.395         13.9672         13.9672 
        1.55855         115.633          13.833          13.833 
        1.56467          115.06         13.7009         13.7009 
         1.5708         114.208         13.5701         13.5701 
        1.57695         113.842         13.4408         13.4408 
        1.58308          112.86         13.3135         13.3135 
        1.58922         112.334         13.1878         13.1878 
        1.59535          111.81         13.0637         13.0637 
         1.6015         110.965          12.941          12.941 
        1.60764         110.324           12.82           12.82 
        1.61376         109.873         12.7009         12.7009 
        1.61989         109.302         12.5832         12.5832 
        1.62604         108.547         12.4667         12.4667 
        1.63218         108.006         12.3517         12.3517 
        1.63831          107.32         12.2385         12.2385 
        1.64444         106.474         12.1266         12.1266 
        1.65059         106.131         12.0158         12.0158 
        1.65673         105.619         11.9066         11.9066 
        1.66285         105.235          11.799          11.799 
        1.66898         104.395         11.6927         11.6927 
        1.67512         103.422         11.5875         11.5875 
        1.68127         103.347         11.4835         11.4835 
         1.6874         102.708          11.381          11.381 
        1.69353         102.052         11.2798         11.2798 
        1.69967         101.471         11.1796         11.1796 
        1.70581          100.92         11.0807         11.0807 
        1.71193         100.422         10.9833         10.9833 
        1.71806          99.441         10.8869         10.8869 
        1.72421         99.0267         10.7915         10.7915 
        1.73035         98.6175         10.6973         10.6973 
        1.73649          98.126         10.6042         10.6042 
        1.74262         97.4211         10.5124         10.5124 
        1.74876         96.7654         10.4215         10.4215 
        1.75489         96.7376         10.3319         10.3319 
        1.76101         95.9271         10.2434         10.2434 
        1.76715         95.2326         10.1558         10.1558 
        1.77329         94.7347         10.0691         10.0691 
        1.77943          94.183          9.9834          9.9834 
        1.78557         93.7552         9.89881         9.89881 
        1.79171         93.1143         9.81518         9.81518 
        1.79785         92.5585          9.7325          9.7325 
        1.80399         92.0196         9.65079         9.65079 
        1.81012         91.5539         9.57012         9.57012 
        1.81625          90.967          9.4904          9.4904 
        1.82239         90.6756         9.41147         9.41147 
        1.82853         89.8778         9.33347         9.33347 
        1.83466         89.2324         9.25643         9.25643 
        1.84078         89.1257         9.18034         9.18034 
        1.84692         88.6922         9.10497         9.10497 
        1.85306         88.0969         9.03036         9.03036 
         1.8592         87.6869          8.9567          8.9567 
        1.86533         87.1325          8.8839          8.8839 
        1.87147         86.5864         8.81182         8.81182 
        1.87761         86.0861         8.74051         8.74051 
