# k  (h/Mpc)    Pcb(k)  (Mpc/h)^3    Pcb_linear(k) (Mpc/h)^3    Pcb_NL(k) (Mpc/h)^3   ShotnoiseSubtracted = false
     0.00783031          7159.9         7205.49         7205.49 
       0.013688          8230.6         8385.93         8385.93 
       0.019231         8011.11         8086.55         8086.55 
      0.0249154         7168.63         7138.54         7138.54 
      0.0312784         5901.16         5913.38         5913.38 
      0.0375637         4852.23         4884.74         4884.74 
      0.0433917         4203.88         4195.41         4195.41 
      0.0492413         3721.96          3733.3          3733.3 
      0.0555754         3413.45         3402.12         3402.12 
      0.0619321         3085.52         3140.94         3140.94 
       0.067871         2873.64         2890.22         2890.22 
      0.0738098         2606.75         2606.35         2606.35 
      0.0800417          2300.4         2285.98         2285.98 
      0.0862327         1991.01          1981.1          1981.1 
      0.0921407         1751.97         1734.76         1734.76 
      0.0982031          1577.7         1543.64         1543.64 
       0.104506         1421.06         1408.74         1408.74 
       0.110769         1337.06         1321.55         1321.55 
       0.116806         1288.08         1258.91         1258.91 
       0.122832         1211.76         1196.94         1196.94 
       0.129052         1139.26         1120.64         1120.64 
       0.135211         1066.07         1030.96         1030.96 
       0.141259         964.823         936.598         936.598 
       0.147318         870.268         846.659         846.659 
       0.153489         800.996         769.042         769.042 
       0.159709         753.596         709.452         709.452 
       0.165845         694.834         667.756         667.756 
       0.171974         680.813         637.928         637.928 
       0.178125          654.36         613.127         613.127 
       0.184229         614.509         587.707         587.707 
        0.19034          593.88         558.112         558.112 
       0.196428         564.464         524.329         524.329 
       0.202534         518.472         488.461         488.461 
       0.208729         498.609         453.466         453.466 
       0.214876         471.954         423.029         423.029 
       0.220989         438.534         398.403         398.403 
       0.227147         427.245         379.067         379.067 
        0.23329         411.177         363.771         363.771 
       0.239377          402.18         350.548         350.548 
       0.245482         382.307         337.409         337.409 
       0.251667         365.343         323.109         323.109 
       0.257832         358.122         307.668         307.668 
       0.263955         335.795         291.778         291.778 
       0.270079         320.519         276.308         276.308 
        0.27624         305.334         262.074         262.074 
       0.282372         295.659         249.766         249.766 
        0.28843         292.149         239.436         239.436 
       0.294538         277.685         230.506         230.506 
       0.300721         267.385          222.38          222.38 
        0.30691         262.583         214.576         214.576 
       0.313033         250.413          206.77          206.77 
       0.319153         245.344         198.765         198.765 
       0.325316         237.424         190.612         190.612 
        0.33145         229.791         182.679         182.679 
       0.337538         221.096         175.245         175.245 
       0.343633          213.64         168.444         168.444 
       0.349808         207.105         162.239         162.239 
       0.355968         202.046         156.667         156.667 
       0.362074         196.524         151.577         151.577 
       0.368217         192.878         146.711         146.711 
       0.374374         187.823         141.949         141.949 
       0.380519         179.856         137.229         137.229 
       0.386598          176.19         132.615         132.615 
       0.392688         170.733         128.096         128.096 
        0.39888         167.105         123.686         123.686 
       0.405048          162.96         119.552         119.552 
       0.411186         160.473         115.713         115.713 
       0.417313         156.485         112.141         112.141 
       0.423458         152.384         108.784         108.784 
       0.429607         148.541         105.586         105.586 
       0.435692         145.927         102.529         102.529 
       0.441815         142.089         99.5367         99.5367 
       0.447964         137.479         96.6028         96.6028 
       0.454126         134.986         93.7384         93.7384 
       0.460267         133.497         90.9825         90.9825 
       0.466387         130.109         88.3556         88.3556 
        0.47254         128.423         85.8399         85.8399 
       0.478662         123.993         83.4585         83.4585 
       0.484765         122.093         81.1995         81.1995 
       0.490885         119.548         79.0344         79.0344 
       0.497035         118.214         76.9389         76.9389 
       0.503198         115.886         74.9042         74.9042 
       0.509342         112.774         72.9353         72.9353 
       0.515458         110.977          71.036          71.036 
       0.521598         108.154         69.1909         69.1909 
       0.527764         107.057         67.4014         67.4014 
       0.533884         106.104         65.6901         65.6901 
           0.54         103.116         64.0463         64.0463 
       0.546137         100.629         62.4624         62.4624 
       0.552299         99.0239         60.9325         60.9325 
       0.558452         97.1946         59.4587         59.4587 
       0.564573         96.5924         58.0388         58.0388 
       0.570708          93.827         56.6582         56.6582 
       0.576825          92.719         55.3235         55.3235 
       0.582926         91.6163         54.0337         54.0337 
       0.589034         89.8811         52.7834         52.7834 
       0.595184         88.6787         51.5653         51.5653 
       0.601379         86.6907         50.3785         50.3785 
       0.607522         84.9477         49.2395         49.2395 
       0.613639         84.1948         48.1414         48.1414 
       0.619772         82.6695          47.075          47.075 
       0.625918         81.8968         46.0396         46.0396 
       0.632068          80.167         45.0352         45.0352 
       0.638161         78.9336         44.0699         44.0699 
         0.6443         78.4143         43.1259         43.1259 
       0.650464         76.5734         42.2058         42.2058 
       0.656582         76.2361         41.3187         41.3187 
       0.662703         75.0775         40.4567         40.4567 
       0.668861         73.4154         39.6143         39.6143 
       0.675024         73.2298         38.7953         38.7953 
       0.681124         71.9978          38.008          38.008 
       0.687237         70.6926         37.2413         37.2413 
       0.693381         70.0033         36.4925         36.4925 
       0.699536         69.1289         35.7633         35.7633 
       0.705665         68.1222         35.0574         35.0574 
       0.711789         67.0599         34.3714         34.3714 
       0.717957         66.1539          33.699          33.699 
        0.72409         65.4736         33.0485         33.0485 
       0.730186         65.0751          32.419          32.419 
       0.736317         63.9445         31.8025         31.8025 
       0.742472         62.9426         31.1998         31.1998 
       0.748622         61.9662         30.6133         30.6133 
        0.75476         61.6063         30.0432         30.0432 
       0.760888         61.2065         29.4884         29.4884 
       0.767043         59.8902         28.9455         28.9455 
       0.773185         59.0573         28.4175         28.4175 
       0.779291         58.4078         27.9056         27.9056 
       0.785407         57.7059         27.4057         27.4057 
       0.791564         57.5099         26.9149         26.9149 
       0.797719         56.4993         26.4365         26.4365 
       0.803834         56.1159         25.9727         25.9727 
       0.809972         55.5414         25.5185         25.5185 
       0.816124         54.7834         25.0741         25.0741 
       0.822261         54.0015         24.6416         24.6416 
       0.828378         53.8519         24.2206         24.2206 
       0.834502         53.0777         23.8091         23.8091 
       0.840667         52.6257         23.4046         23.4046 
       0.846816         52.0209         23.0106         23.0106 
       0.852925         51.3916         22.6282         22.6282 
       0.859047         51.1813         22.2537         22.2537 
       0.865192         50.3443         21.8865         21.8865 
       0.871341         49.7985         21.5274         21.5274 
       0.877463         49.3385          21.178          21.178 
       0.883569         49.1879         20.8372         20.8372 
       0.889708         48.6095         20.5023         20.5023 
       0.895864         48.1846         20.1738         20.1738 
       0.902008         47.6151         19.8533         19.8533 
       0.908149         47.0346         19.5399         19.5399 
       0.914301         46.7092         19.2328         19.2328 
       0.920448         46.5576         18.9326         18.9326 
       0.926574          45.604         18.6399         18.6399 
       0.932687         45.3233          18.354          18.354 
       0.938823         44.8746         18.0731         18.0731 
       0.944975         44.3242         17.7974         17.7974 
       0.951105         44.0028         17.5285         17.5285 
       0.957225         43.7431         17.2656         17.2656 
       0.963368         43.2952         17.0072         17.0072 
       0.969511         42.9126          16.754          16.754 
       0.975621         42.5285         16.5075         16.5075 
       0.981748          42.106         16.2652         16.2652 
       0.987916         41.7335         16.0263         16.0263 
        0.99406         41.4686         15.7931         15.7931 
        1.00019         40.9889          15.565          15.565 
        1.00632         40.6706         15.3416         15.3416 
        1.01246         40.3489         15.1222         15.1222 
        1.01859         40.0865         14.9076         14.9076 
        1.02471         39.6362         14.6973         14.6973 
        1.03085         39.3415         14.4904         14.4904 
        1.03698         39.0972         14.2879         14.2879 
        1.04314         38.7474         14.0884         14.0884 
        1.04929         38.2909         13.8932         13.8932 
        1.05541         38.1785         13.7025         13.7025 
        1.06154         37.8475         13.5149         13.5149 
        1.06769         37.3718         13.3305         13.3305 
        1.07382         37.1117         13.1502         13.1502 
        1.07993         36.9157         12.9736         12.9736 
        1.08607         36.5834         12.7996         12.7996 
        1.09222         36.3786         12.6285         12.6285 
        1.09836         36.0577         12.4608         12.4608 
        1.10449         35.8496         12.2964         12.2964 
        1.11063         35.4731         12.1347         12.1347 
        1.11677         35.3749          11.976          11.976 
         1.1229         34.9836         11.8204         11.8204 
        1.12903         34.7707         11.6674         11.6674 
        1.13518         34.6495         11.5171         11.5171 
        1.14131         34.2785         11.3694         11.3694 
        1.14745         33.9832         11.2245         11.2245 
        1.15359         33.5971          11.082          11.082 
        1.15973         33.5631         10.9419         10.9419 
        1.16584         33.2766         10.8049         10.8049 
        1.17197         32.8987         10.6701         10.6701 
        1.17811         32.7431         10.5371         10.5371 
        1.18424         32.2713         10.4068         10.4068 
        1.19038          32.177         10.2783         10.2783 
        1.19652         32.0073         10.1521         10.1521 
        1.20267         31.7794         10.0279         10.0279 
        1.20881         31.5426         9.90588         9.90588 
        1.21495         31.4358         9.78607         9.78607 
        1.22108         31.3049         9.66825         9.66825 
         1.2272         30.9396         9.55265         9.55265 
        1.23334         30.7774         9.43867         9.43867 
        1.23949         30.5667         9.32628         9.32628 
        1.24562         30.3274         9.21603         9.21603 
        1.25174         30.1187         9.10773         9.10773 
        1.25789              30         9.00083         9.00083 
        1.26402         29.7854         8.89583         8.89583 
        1.27014         29.6502         8.79276         8.79276 
        1.27628         29.3168         8.69102         8.69102 
        1.28244         29.3186         8.59068         8.59068 
        1.28858         28.9951         8.49207         8.49207 
        1.29471         28.7546         8.39522         8.39522 
        1.30084         28.5467         8.29997         8.29997 
        1.30697         28.5116         8.20605         8.20605 
        1.31312         28.2433         8.11345         8.11345 
        1.31925         28.0148         8.02257         8.02257 
        1.32537          27.842         7.93317         7.93317 
        1.33151         27.6353         7.84481         7.84481 
        1.33765         27.5801         7.75785         7.75785 
        1.34378         27.4438         7.67238         7.67238 
        1.34992          27.171         7.58814         7.58814 
        1.35606         26.9666         7.50498         7.50498 
         1.3622         26.8645         7.42321         7.42321 
        1.36833         26.7729         7.34286         7.34286 
        1.37445         26.4976         7.26373         7.26373 
        1.38059         26.3691         7.18553         7.18553 
        1.38675          26.181         7.10829         7.10829 
        1.39288         26.0621         7.03249         7.03249 
        1.39901         25.8615         6.95783         6.95783 
        1.40515         25.7473         6.88408         6.88408 
         1.4113         25.6853         6.81143         6.81143 
        1.41742         25.4933         6.74011         6.74011 
        1.42355         25.2458         6.66967         6.66967 
         1.4297         25.1804         6.60003         6.60003 
        1.43585          25.006         6.53141         6.53141 
        1.44198          24.853         6.46402         6.46402 
        1.44809         24.6669         6.39771         6.39771 
        1.45423         24.5801         6.33209         6.33209 
        1.46036         24.4876          6.2675          6.2675 
        1.46649          24.294         6.20379         6.20379 
        1.47263         24.1377         6.14092         6.14092 
        1.47877         24.0087         6.07894         6.07894 
        1.48491         23.8908         6.01772         6.01772 
        1.49104         23.7072         5.95747         5.95747 
        1.49718         23.6884         5.89799         5.89799 
        1.50333         23.5508         5.83923         5.83923 
        1.50947         23.3297         5.78139         5.78139 
         1.5156         23.2696         5.72442         5.72442 
        1.52172         23.0954         5.66821         5.66821 
        1.52787         23.0393         5.61265         5.61265 
          1.534         22.8309         5.55789         5.55789 
        1.54013         22.8419         5.50391         5.50391 
        1.54627         22.6137         5.45056         5.45056 
        1.55241          22.495          5.3979          5.3979 
        1.55855         22.4013         5.34602         5.34602 
        1.56467         22.2579         5.29495         5.29495 
         1.5708         22.1654         5.24441         5.24441 
        1.57695         22.0819         5.19445         5.19445 
        1.58308         21.8639         5.14525         5.14525 
        1.58922         21.7693         5.09666         5.09666 
        1.59535          21.677         5.04871         5.04871 
         1.6015          21.625         5.00131         5.00131 
        1.60764         21.4387         4.95454         4.95454 
        1.61376         21.3272         4.90849         4.90849 
        1.61989         21.1717           4.863           4.863 
        1.62604         21.0787         4.81797         4.81797 
        1.63218         20.9715         4.77355         4.77355 
        1.63831         20.8912         4.72978         4.72978 
        1.64444         20.7828         4.68655         4.68655 
        1.65059         20.6632         4.64375         4.64375 
        1.65673         20.5814         4.60153         4.60153 
        1.66285         20.4952         4.55995         4.55995 
        1.66898         20.3527         4.51887         4.51887 
        1.67512         20.3133         4.47821         4.47821 
        1.68127           20.17         4.43802         4.43802 
         1.6874         20.0728         4.39841         4.39841 
        1.69353          19.979         4.35931         4.35931 
        1.69967          19.873         4.32058         4.32058 
        1.70581         19.7648         4.28235         4.28235 
        1.71193         19.6606         4.24471         4.24471 
        1.71806         19.5998         4.20745         4.20745 
        1.72421         19.4945         4.17057         4.17057 
        1.73035         19.3779         4.13416         4.13416 
        1.73649          19.257          4.0982          4.0982 
        1.74262         19.1564          4.0627          4.0627 
        1.74876         19.1289         4.02759         4.02759 
        1.75489         18.9859         3.99296         3.99296 
        1.76101         18.9153         3.95875         3.95875 
        1.76715           18.82          3.9249          3.9249 
        1.77329         18.6826          3.8914          3.8914 
        1.77943         18.6471         3.85827         3.85827 
        1.78557         18.5839         3.82558         3.82558 
        1.79171         18.4765         3.79326         3.79326 
        1.79785         18.3724         3.76131         3.76131 
        1.80399         18.2557         3.72973         3.72973 
        1.81012          18.231         3.69855         3.69855 
        1.81625         18.0734         3.66774         3.66774 
        1.82239          18.006         3.63724         3.63724 
        1.82853         17.9271         3.60709         3.60709 
        1.83466         17.8389         3.57732         3.57732 
        1.84078         17.7467         3.54791         3.54791 
        1.84692         17.6886         3.51879         3.51879 
        1.85306         17.5839         3.48995         3.48995 
         1.8592         17.5573         3.46148         3.46148 
        1.86533         17.4361         3.43335         3.43335 
        1.87147         17.3259         3.40549         3.40549 
