# k  (h/Mpc)    P(k)  (Mpc/h)^3    P_linear(k)  (Mpc/h)^3     P_NL(k)  ShotnoiseSubtracted = false
     0.00783031         19571.8         19670.1         19670.1 
       0.013688         22226.6         22866.8         22866.8 
       0.019231         21683.2         22043.1         22043.1 
      0.0249154         19547.8         19455.7         19455.7 
      0.0312784         15980.5           16115           16115 
      0.0375637         13105.9           13311           13311 
      0.0433917         11401.5         11432.2         11432.2 
      0.0492413         10077.8         10172.7         10172.7 
      0.0555754          9248.6         9270.12         9270.12 
      0.0619321         8274.32         8558.34         8558.34 
       0.067871         7734.02          7875.1          7875.1 
      0.0738098         7069.74         7101.58         7101.58 
      0.0800417         6251.07         6228.62         6228.62 
      0.0862327         5429.05         5397.88         5397.88 
      0.0921407         4826.67         4726.66         4726.66 
      0.0982031         4382.81         4205.91         4205.91 
       0.104506         3938.68         3838.33         3838.33 
       0.110769         3712.59         3600.75         3600.75 
       0.116806         3577.16         3430.07         3430.07 
       0.122832         3370.73         3261.22         3261.22 
       0.129052         3147.42         3053.33         3053.33 
       0.135211         3000.72            2809            2809 
       0.141259         2718.79         2551.88         2551.88 
       0.147318         2482.23         2306.82         2306.82 
       0.153489         2307.81         2095.35         2095.35 
       0.159709         2210.33         1932.99         1932.99 
       0.165845         2035.47         1819.38         1819.38 
       0.171974         1991.76         1738.11         1738.11 
       0.178125         1931.77         1670.53         1670.53 
       0.184229         1782.66         1601.27         1601.27 
        0.19034         1746.63         1520.63         1520.63 
       0.196428          1682.3         1428.59         1428.59 
       0.202534         1563.98         1330.86         1330.86 
       0.208729         1524.13         1235.52         1235.52 
       0.214876         1443.02         1152.59         1152.59 
       0.220989         1368.87         1085.49         1085.49 
       0.227147          1330.1          1032.8          1032.8 
        0.23329         1278.52         991.131         991.131 
       0.239377         1271.04         955.103         955.103 
       0.245482         1208.73         919.302         919.302 
       0.251667         1163.41         880.344         880.344 
       0.257832         1139.99         838.272         838.272 
       0.263955         1083.88         794.979         794.979 
       0.270079         1049.36         752.829         752.829 
        0.27624         1004.67         714.043         714.043 
       0.282372          989.76         680.512         680.512 
        0.28843         970.564         652.364         652.364 
       0.294538         925.105         628.035         628.035 
       0.300721         906.399         605.896         605.896 
        0.30691          882.91         584.632         584.632 
       0.313033         846.838         563.362         563.362 
       0.319153         836.582         541.552         541.552 
       0.325316         824.126         519.341         519.341 
        0.33145          803.15         497.725         497.725 
       0.337538         775.059          477.47          477.47 
       0.343633         756.238         458.942         458.942 
       0.349808         740.502         442.033         442.033 
       0.355968         725.457         426.855         426.855 
       0.362074         700.028         412.986         412.986 
       0.368217         696.909         399.726         399.726 
       0.374374         686.315         386.755         386.755 
       0.380519         660.198         373.894         373.894 
       0.386598         654.938          361.32          361.32 
       0.392688         637.691         349.009         349.009 
        0.39888         623.988         336.992         336.992 
       0.405048          609.51         325.731         325.731 
       0.411186         608.968         315.272         315.272 
       0.417313          601.62         305.539         305.539 
       0.423458         585.286         296.392         296.392 
       0.429607         568.255         287.679         287.679 
       0.435692         561.449          279.35          279.35 
       0.441815         550.954         271.196         271.196 
       0.447964         541.842         263.203         263.203 
       0.454126         535.334         255.398         255.398 
       0.460267         527.412          247.89          247.89 
       0.466387          516.11         240.733         240.733 
        0.47254         510.189         233.878         233.878 
       0.478662         500.525         227.389         227.389 
       0.484765         493.533         221.235         221.235 
       0.490885         489.819         215.336         215.336 
       0.497035         478.152         209.627         209.627 
       0.503198         477.359         204.083         204.083 
       0.509342         467.959         198.719         198.719 
       0.515458         458.604         193.544         193.544 
       0.521598          455.94         188.517         188.517 
       0.527764         446.144         183.641         183.641 
       0.533884         441.159         178.978         178.978 
           0.54         437.331           174.5           174.5 
       0.546137          429.49         170.184         170.184 
       0.552299         427.146         166.016         166.016 
       0.558452         420.443             162             162 
       0.564573         418.161         158.132         158.132 
       0.570708         411.882          154.37          154.37 
       0.576825         404.249         150.734         150.734 
       0.582926         403.105          147.22          147.22 
       0.589034         395.671         143.813         143.813 
       0.595184         392.585         140.494         140.494 
       0.601379         386.077         137.261         137.261 
       0.607522         379.149         134.157         134.157 
       0.613639         378.172         131.165         131.165 
       0.619772         376.089          128.26          128.26 
       0.625918         368.495         125.439         125.439 
       0.632068         367.258         122.702         122.702 
       0.638161         362.903         120.072         120.072 
         0.6443         357.765           117.5           117.5 
       0.650464         354.672         114.993         114.993 
       0.656582         350.994         112.576         112.576 
       0.662703         348.747         110.228         110.228 
       0.668861         342.762         107.932         107.932 
       0.675024         341.597         105.701         105.701 
       0.681124         334.617         103.556         103.556 
       0.687237         334.178         101.467         101.467 
       0.693381         328.959          99.427          99.427 
       0.699536         328.748         97.4402         97.4402 
       0.705665         323.703         95.5169         95.5169 
       0.711789         321.609         93.6477         93.6477 
       0.717957         318.518         91.8159         91.8159 
        0.72409         314.554         90.0434         90.0434 
       0.730186         315.077         88.3284         88.3284 
       0.736317         309.659         86.6487         86.6487 
       0.742472         307.285         85.0066         85.0066 
       0.748622         305.559         83.4086         83.4086 
        0.75476         302.402         81.8551         81.8551 
       0.760888         300.095         80.3437         80.3437 
       0.767043         296.842         78.8645         78.8645 
       0.773185         294.284         77.4258         77.4258 
       0.779291         291.717         76.0312         76.0312 
       0.785407         289.509         74.6692         74.6692 
       0.791564         287.956          73.332          73.332 
       0.797719         283.365         72.0284         72.0284 
       0.803834         283.759         70.7649         70.7649 
       0.809972          279.24         69.5272         69.5272 
       0.816124         276.967         68.3166         68.3166 
       0.822261         274.877         67.1382         67.1382 
       0.828378         273.485         65.9911         65.9911 
       0.834502         269.443           64.87           64.87 
       0.840667         269.275         63.7678         63.7678 
       0.846816         265.263         62.6944         62.6944 
       0.852925         265.512         61.6525         61.6525 
       0.859047         262.251         60.6322         60.6322 
       0.865192          261.03         59.6317         59.6317 
       0.871341         258.027         58.6533         58.6533 
       0.877463         256.753         57.7012         57.7012 
       0.883569         255.087         56.7728         56.7728 
       0.889708         252.736         55.8601         55.8601 
       0.895864         249.336         54.9652         54.9652 
       0.902008         248.353         54.0919         54.0919 
       0.908149          245.83         53.2381         53.2381 
       0.914301         244.878         52.4013         52.4013 
       0.920448         242.558         51.5834         51.5834 
       0.926574         240.668         50.7859         50.7859 
       0.932687         240.425         50.0069         50.0069 
       0.938823         237.604         49.2416         49.2416 
       0.944975         237.297         48.4905         48.4905 
       0.951105         234.685         47.7578         47.7578 
       0.957225         232.325         47.0415         47.0415 
       0.963368         232.485         46.3374         46.3374 
       0.969511          228.78         45.6478         45.6478 
       0.975621         226.523         44.9759         44.9759 
       0.981748         226.414         44.3159         44.3159 
       0.987916         225.004         43.6649         43.6649 
        0.99406         222.617         43.0295         43.0295 
        1.00019         221.096          42.408          42.408 
        1.00632         220.272         41.7994         41.7994 
        1.01246         218.642         41.2018         41.2018 
        1.01859         216.293         40.6169         40.6169 
        1.02471         214.765          40.044          40.044 
        1.03085         213.629         39.4803         39.4803 
        1.03698         212.856         38.9286         38.9286 
        1.04314         211.661         38.3851         38.3851 
        1.04929         210.035         37.8533         37.8533 
        1.05541         209.164         37.3337         37.3337 
        1.06154         207.024         36.8225         36.8225 
        1.06769         205.601         36.3202         36.3202 
        1.07382         203.691         35.8289         35.8289 
        1.07993         202.987         35.3477         35.3477 
        1.08607         201.912         34.8735         34.8735 
        1.09222          199.96         34.4075         34.4075 
        1.09836         198.973         33.9506         33.9506 
        1.10449         197.935         33.5025         33.5025 
        1.11063         196.435          33.062          33.062 
        1.11677         194.603         32.6296         32.6296 
         1.1229         194.603         32.2057         32.2057 
        1.12903         192.119         31.7889         31.7889 
        1.13518         191.161         31.3792         31.3792 
        1.14131         190.236         30.9769         30.9769 
        1.14745         188.432          30.582          30.582 
        1.15359         187.394         30.1938         30.1938 
        1.15973         186.619         29.8122         29.8122 
        1.16584         185.315         29.4389         29.4389 
        1.17197         184.506         29.0715         29.0715 
        1.17811         182.519         28.7092         28.7092 
        1.18424         181.587         28.3542         28.3542 
        1.19038          180.92         28.0041         28.0041 
        1.19652         178.742         27.6601         27.6601 
        1.20267         178.151         27.3219         27.3219 
        1.20881         176.914         26.9894         26.9894 
        1.21495         176.287         26.6629         26.6629 
        1.22108         174.976         26.3419         26.3419 
         1.2272         173.857          26.027          26.027 
        1.23334         172.529         25.7164         25.7164 
        1.23949         171.765         25.4102         25.4102 
        1.24562          170.55         25.1098         25.1098 
        1.25174         170.008         24.8148         24.8148 
        1.25789         168.365         24.5235         24.5235 
        1.26402         167.747         24.2374         24.2374 
        1.27014         166.786         23.9566         23.9566 
        1.27628         166.005         23.6794         23.6794 
        1.28244         164.337          23.406          23.406 
        1.28858         163.573         23.1373         23.1373 
        1.29471         162.267         22.8735         22.8735 
        1.30084         161.891         22.6139         22.6139 
        1.30697         160.625         22.3581         22.3581 
        1.31312         159.829         22.1058         22.1058 
        1.31925         158.661         21.8581         21.8581 
        1.32537         158.172         21.6146         21.6146 
        1.33151         156.587         21.3738         21.3738 
        1.33765         156.025         21.1369         21.1369 
        1.34378         155.364          20.904          20.904 
        1.34992         153.906         20.6745         20.6745 
        1.35606         153.345         20.4479         20.4479 
         1.3622         152.034         20.2252         20.2252 
        1.36833          151.57         20.0062         20.0062 
        1.37445         150.864         19.7906         19.7906 
        1.38059         149.341         19.5776         19.5776 
        1.38675         148.459         19.3671         19.3671 
        1.39288         147.731         19.1606         19.1606 
        1.39901          146.59         18.9572         18.9572 
        1.40515         145.895         18.7562         18.7562 
         1.4113         145.327         18.5583         18.5583 
        1.41742         144.313          18.364          18.364 
        1.42355         143.246         18.1721         18.1721 
         1.4297         142.526         17.9823         17.9823 
        1.43585         142.093         17.7954         17.7954 
        1.44198         140.744         17.6118         17.6118 
        1.44809         140.285         17.4311         17.4311 
        1.45423         139.484         17.2523         17.2523 
        1.46036         138.705         17.0763         17.0763 
        1.46649         137.477         16.9027         16.9027 
        1.47263         137.107         16.7314         16.7314 
        1.47877         136.217         16.5626         16.5626 
        1.48491         135.121         16.3958         16.3958 
        1.49104          134.17         16.2316         16.2316 
        1.49718         133.675         16.0696         16.0696 
        1.50333         132.467         15.9095         15.9095 
        1.50947         132.108         15.7519         15.7519 
         1.5156         131.142         15.5966         15.5966 
        1.52172         130.408         15.4435         15.4435 
        1.52787         129.911         15.2921         15.2921 
          1.534         129.229         15.1429         15.1429 
        1.54013         128.288         14.9959         14.9959 
        1.54627         127.629         14.8505         14.8505 
        1.55241         126.921          14.707          14.707 
        1.55855         126.097         14.5657         14.5657 
        1.56467          125.44         14.4265         14.4265 
         1.5708         124.653         14.2888         14.2888 
        1.57695         124.118         14.1527         14.1527 
        1.58308         123.063         14.0187         14.0187 
        1.58922         122.462         13.8863         13.8863 
        1.59535         121.815         13.7556         13.7556 
         1.6015         120.969         13.6265         13.6265 
        1.60764          120.24          13.499          13.499 
        1.61376         119.729         13.3736         13.3736 
        1.61989         119.059         13.2496         13.2496 
        1.62604         118.377          13.127          13.127 
        1.63218         117.661         13.0059         13.0059 
        1.63831         116.986         12.8867         12.8867 
        1.64444         116.047         12.7689         12.7689 
        1.65059         115.596         12.6523         12.6523 
        1.65673         114.968         12.5372         12.5372 
        1.66285         114.526          12.424          12.424 
        1.66898         113.736          12.312          12.312 
        1.67512         112.653         12.2013         12.2013 
        1.68127         112.517         12.0918         12.0918 
         1.6874         111.796         11.9838         11.9838 
        1.69353         111.145         11.8773         11.8773 
        1.69967         110.522         11.7718         11.7718 
        1.70581         109.864         11.6676         11.6676 
        1.71193         109.388         11.5651         11.5651 
        1.71806         108.329         11.4636         11.4636 
        1.72421         107.798          11.363          11.363 
        1.73035         107.441         11.2639         11.2639 
        1.73649         106.853         11.1659         11.1659 
        1.74262         106.002         11.0691         11.0691 
        1.74876         105.358         10.9735         10.9735 
        1.75489         105.323         10.8791         10.8791 
        1.76101         104.362         10.7859         10.7859 
        1.76715         103.709         10.6937         10.6937 
        1.77329         103.137         10.6024         10.6024 
        1.77943         102.469         10.5122         10.5122 
        1.78557         101.912         10.4231         10.4231 
        1.79171         101.274          10.335          10.335 
        1.79785         100.683          10.248          10.248 
        1.80399         100.087         10.1619         10.1619 
        1.81012         99.7128          10.077          10.077 
        1.81625         98.9359         9.99306         9.99306 
        1.82239          98.646         9.90995         9.90995 
        1.82853         97.8255         9.82782         9.82782 
        1.83466         97.0968          9.7467          9.7467 
        1.84078         96.9075         9.66658         9.66658 
        1.84692         96.3623         9.58722         9.58722 
        1.85306         95.7131         9.50866         9.50866 
         1.8592         95.2595         9.43109         9.43109 
        1.86533         94.6809         9.35444         9.35444 
        1.87147           94.06         9.27854         9.27854 
        1.87761         93.6213         9.20346         9.20346 
