# k  (h/Mpc)    P(k)  (Mpc/h)^3    P_linear(k)  (Mpc/h)^3     P_NL(k)  ShotnoiseSubtracted = false
     0.00783031         19081.7         19178.3         19178.3 
       0.013688         21678.8         22296.1         22296.1 
       0.019231         21147.5         21493.2         21493.2 
      0.0249154         19060.6         18970.5         18970.5 
      0.0312784         15585.9         15713.2         15713.2 
      0.0375637         12783.2         12979.1         12979.1 
      0.0433917         11119.5         11147.2         11147.2 
      0.0492413         9828.81          9919.1          9919.1 
      0.0555754         9020.38         9039.02         9039.02 
      0.0619321          8072.4         8344.98         8344.98 
       0.067871         7544.87         7678.78         7678.78 
      0.0738098         6894.82         6924.55         6924.55 
      0.0800417         6096.23         6073.35         6073.35 
      0.0862327         5293.69         5263.32         5263.32 
      0.0921407         4704.55         4608.83         4608.83 
      0.0982031         4270.79         4101.07         4101.07 
       0.104506         3838.06         3742.65         3742.65 
       0.110769         3617.53         3510.99         3510.99 
       0.116806         3485.98         3344.57         3344.57 
       0.122832         3284.18         3179.92         3179.92 
       0.129052         3067.58         2977.21         2977.21 
       0.135211         2922.89         2738.97         2738.97 
       0.141259         2648.04         2488.27         2488.27 
       0.147318         2416.29         2249.32         2249.32 
       0.153489         2245.83         2043.11         2043.11 
       0.159709          2149.9          1884.8          1884.8 
       0.165845         1979.49         1774.03         1774.03 
       0.171974         1937.56         1694.78         1694.78 
       0.178125         1878.59         1628.89         1628.89 
       0.184229         1734.27         1561.35         1561.35 
        0.19034         1698.45         1482.73         1482.73 
       0.196428         1635.39         1392.98         1392.98 
       0.202534          1519.3         1297.69         1297.69 
       0.208729         1480.51         1204.72         1204.72 
       0.214876         1401.67         1123.86         1123.86 
       0.220989         1328.48         1058.43         1058.43 
       0.227147         1291.13         1007.06         1007.06 
        0.23329          1241.1         966.425         966.425 
       0.239377         1233.44         931.295         931.295 
       0.245482         1172.65         896.386         896.386 
       0.251667         1128.52         858.399         858.399 
       0.257832         1105.96         817.376         817.376 
       0.263955         1050.97         775.162         775.162 
       0.270079         1016.94         734.063         734.063 
        0.27624         973.489         696.244         696.244 
       0.282372         958.573         663.548         663.548 
        0.28843         940.566         636.102         636.102 
       0.294538         896.024         612.379         612.379 
       0.300721         877.544         590.793         590.793 
        0.30691         855.201         570.059         570.059 
       0.313033         819.773         549.319         549.319 
       0.319153         809.583         528.053         528.053 
       0.325316         797.458         506.395         506.395 
        0.33145         777.146         485.318         485.318 
       0.337538         749.702         465.568         465.568 
       0.343633         731.265         447.502         447.502 
       0.349808          715.79         431.014         431.014 
       0.355968         701.331         416.215         416.215 
       0.362074         676.423         402.692         402.692 
       0.368217         673.442         389.762         389.762 
       0.374374         663.142         377.114         377.114 
       0.380519         637.643         364.574         364.574 
       0.386598           632.4         352.314         352.314 
       0.392688         615.781         340.309         340.309 
        0.39888         602.212         328.592         328.592 
       0.405048         588.298         317.611         317.611 
       0.411186         587.731         307.413         307.413 
       0.417313         580.599         297.923         297.923 
       0.423458          564.76         289.003         289.003 
       0.429607         548.165         280.508         280.508 
       0.435692         541.487         272.386         272.386 
       0.441815         531.405         264.436         264.436 
       0.447964          522.29         256.642         256.642 
       0.454126         516.106         249.032         249.032 
       0.460267         508.248         241.711         241.711 
       0.466387         497.424         234.732         234.732 
        0.47254         491.593         228.048         228.048 
       0.478662         482.205         221.721         221.721 
       0.484765         475.426         215.721         215.721 
       0.490885         471.758         209.968         209.968 
       0.497035         460.504         204.401         204.401 
       0.503198         459.756         198.996         198.996 
       0.509342         450.595         193.765         193.765 
       0.515458         441.561         188.719         188.719 
       0.521598         438.637         183.817         183.817 
       0.527764         429.443         179.063         179.063 
       0.533884         424.784         174.517         174.517 
           0.54          420.87          170.15          170.15 
       0.546137         413.139         165.942         165.942 
       0.552299         411.012         161.878         161.878 
       0.558452         404.438         157.962         157.962 
       0.564573         402.108          154.19          154.19 
       0.570708         396.038         150.522         150.522 
       0.576825         388.681         146.976         146.976 
       0.582926         387.547          143.55          143.55 
       0.589034         380.311         140.228         140.228 
       0.595184         377.425         136.992         136.992 
       0.601379         371.147         133.839         133.839 
       0.607522         364.322         130.813         130.813 
       0.613639         363.344         127.896         127.896 
       0.619772         361.473         125.063         125.063 
       0.625918          354.03         122.312         122.312 
       0.632068          352.73         119.644         119.644 
       0.638161         348.711         117.079         117.079 
         0.6443          343.68         114.571         114.571 
       0.650464         340.612         112.127         112.127 
       0.656582          337.04          109.77          109.77 
       0.662703         334.966          107.48          107.48 
       0.668861         329.044         105.242         105.242 
       0.675024         327.912         103.066         103.066 
       0.681124         321.417         100.975         100.975 
       0.687237         320.844         98.9378         98.9378 
       0.693381         315.786         96.9485         96.9485 
       0.699536         315.488         95.0113         95.0113 
       0.705665         310.747         93.1359         93.1359 
       0.711789         308.532         91.3133         91.3133 
       0.717957         305.657         89.5272         89.5272 
        0.72409         301.742         87.7989         87.7989 
       0.730186         302.399         86.1266         86.1266 
       0.736317         297.144         84.4888         84.4888 
       0.742472         294.866         82.8876         82.8876 
       0.748622         292.996         81.3294         81.3294 
        0.75476         290.279         79.8147         79.8147 
       0.760888         287.811         78.3409         78.3409 
       0.767043         284.608         76.8987         76.8987 
       0.773185         282.183         75.4958         75.4958 
       0.779291         279.683          74.136          74.136 
       0.785407         277.593         72.8079         72.8079 
       0.791564         276.033         71.5041         71.5041 
       0.797719         271.603         70.2329         70.2329 
       0.803834         272.087         69.0009         69.0009 
       0.809972         267.762         67.7941         67.7941 
       0.816124         265.386         66.6137         66.6137 
       0.822261         263.387         65.4646         65.4646 
       0.828378         262.094         64.3462         64.3462 
       0.834502         258.259          63.253          63.253 
       0.840667         258.188         62.1782         62.1782 
       0.846816         254.098         61.1316         61.1316 
       0.852925         254.334         60.1157         60.1157 
       0.859047         251.304         59.1208         59.1208 
       0.865192         250.157         58.1453         58.1453 
       0.871341         247.238         57.1912         57.1912 
       0.877463         245.923         56.2629         56.2629 
       0.883569         244.396         55.3576         55.3576 
       0.889708         242.188         54.4677         54.4677 
       0.895864         238.905         53.5951         53.5951 
       0.902008         237.872         52.7435         52.7435 
       0.908149         235.521          51.911          51.911 
       0.914301          234.49         51.0951         51.0951 
       0.920448         232.483         50.2976         50.2976 
       0.926574         230.561         49.5199         49.5199 
       0.932687         230.345         48.7604         48.7604 
       0.938823         227.618         48.0141         48.0141 
       0.944975         227.303         47.2817         47.2817 
       0.951105         224.725         46.5673         46.5673 
       0.957225         222.545         45.8689         45.8689 
       0.963368          222.69         45.1824         45.1824 
       0.969511         219.077         44.5099         44.5099 
       0.975621         216.901         43.8548         43.8548 
       0.981748         216.821         43.2112         43.2112 
       0.987916         215.487         42.5765         42.5765 
        0.99406         213.229         41.9569         41.9569 
        1.00019         211.845         41.3509         41.3509 
        1.00632         210.983         40.7574         40.7574 
        1.01246         209.396         40.1748         40.1748 
        1.01859         207.104         39.6044         39.6044 
        1.02471         205.634         39.0459         39.0459 
        1.03085         204.496         38.4962         38.4962 
        1.03698         203.855         37.9582         37.9582 
        1.04314         202.704         37.4283         37.4283 
        1.04929         201.136         36.9097         36.9097 
        1.05541         200.306          36.403          36.403 
        1.06154          198.27         35.9046         35.9046 
        1.06769         196.919         35.4148         35.4148 
        1.07382         195.107         34.9357         34.9357 
        1.07993         194.306         34.4666         34.4666 
        1.08607         193.373         34.0042         34.0042 
        1.09222         191.465         33.5498         33.5498 
        1.09836         190.568         33.1043         33.1043 
        1.10449          189.54         32.6673         32.6673 
        1.11063         188.034         32.2378         32.2378 
        1.11677         186.392         31.8162         31.8162 
         1.1229         186.333         31.4029         31.4029 
        1.12903          183.95         30.9965         30.9965 
        1.13518         183.067          30.597          30.597 
        1.14131          182.21         30.2048         30.2048 
        1.14745         180.404         29.8196         29.8196 
        1.15359          179.44         29.4412         29.4412 
        1.15973         178.719         29.0691         29.0691 
        1.16584         177.459         28.7051         28.7051 
        1.17197         176.696         28.3468         28.3468 
        1.17811         174.839         27.9936         27.9936 
        1.18424         173.921         27.6474         27.6474 
        1.19038          173.28         27.3061         27.3061 
        1.19652         171.165         26.9706         26.9706 
        1.20267         170.593         26.6408         26.6408 
        1.20881         169.393         26.3166         26.3166 
        1.21495         168.905         25.9983         25.9983 
        1.22108         167.581         25.6853         25.6853 
         1.2272         166.554         25.3782         25.3782 
        1.23334         165.287         25.0754         25.0754 
        1.23949         164.526         24.7768         24.7768 
        1.24562         163.371         24.4839         24.4839 
        1.25174         162.836         24.1962         24.1962 
        1.25789         161.288         23.9122         23.9122 
        1.26402         160.679         23.6333         23.6333 
        1.27014         159.792         23.3594         23.3594 
        1.27628         159.047         23.0891         23.0891 
        1.28244         157.453         22.8226         22.8226 
        1.28858         156.684         22.5606         22.5606 
        1.29471         155.435         22.3033         22.3033 
        1.30084         155.016         22.0502         22.0502 
        1.30697         153.839         21.8007         21.8007 
        1.31312         153.087         21.5547         21.5547 
        1.31925         151.918         21.3133         21.3133 
        1.32537          151.48         21.0758         21.0758 
        1.33151         150.002          20.841          20.841 
        1.33765         149.456           20.61           20.61 
        1.34378         148.841          20.383          20.383 
        1.34992         147.457         20.1592         20.1592 
        1.35606         146.903         19.9382         19.9382 
         1.3622         145.693          19.721          19.721 
        1.36833         145.143         19.5075         19.5075 
        1.37445         144.508         19.2973         19.2973 
        1.38059         143.099         19.0896         19.0896 
        1.38675         142.302         18.8843         18.8843 
        1.39288         141.521          18.683          18.683 
        1.39901         140.434         18.4846         18.4846 
        1.40515         139.811         18.2887         18.2887 
         1.4113         139.212         18.0957         18.0957 
        1.41742         138.292         17.9062         17.9062 
        1.42355         137.319         17.7191         17.7191 
         1.4297         136.583         17.5341         17.5341 
        1.43585         136.154         17.3518         17.3518 
        1.44198         134.849         17.1727         17.1727 
        1.44809         134.406         16.9966         16.9966 
        1.45423         133.668         16.8222         16.8222 
        1.46036          132.88         16.6507         16.6507 
        1.46649         131.738         16.4814         16.4814 
        1.47263          131.37         16.3144         16.3144 
        1.47877         130.513         16.1497         16.1497 
        1.48491         129.476         15.9871         15.9871 
        1.49104         128.566          15.827          15.827 
        1.49718         128.106          15.669          15.669 
        1.50333         126.941         15.5129         15.5129 
        1.50947         126.642         15.3592         15.3592 
         1.5156         125.679         15.2079         15.2079 
        1.52172         124.979         15.0585         15.0585 
        1.52787         124.536         14.9109         14.9109 
          1.534         123.841         14.7654         14.7654 
        1.54013         122.907         14.6221         14.6221 
        1.54627         122.303         14.4803         14.4803 
        1.55241         121.645         14.3404         14.3404 
        1.55855         120.856         14.2026         14.2026 
        1.56467         120.248         14.0669         14.0669 
         1.5708         119.428         13.9326         13.9326 
        1.57695         118.977         13.7999         13.7999 
        1.58308         117.948         13.6692         13.6692 
        1.58922         117.392         13.5401         13.5401 
        1.59535         116.803         13.4127         13.4127 
         1.6015         115.955         13.2868         13.2868 
        1.60764         115.273         13.1626         13.1626 
        1.61376         114.789         13.0402         13.0402 
        1.61989         114.176         12.9194         12.9194 
        1.62604         113.444         12.7997         12.7997 
        1.63218         112.829         12.6817         12.6817 
        1.63831         112.144         12.5654         12.5654 
        1.64444         111.242         12.4506         12.4506 
        1.65059         110.857         12.3369         12.3369 
        1.65673         110.282         12.2247         12.2247 
        1.66285         109.878         12.1143         12.1143 
        1.66898         109.058         12.0051         12.0051 
        1.67512         108.024         11.8971         11.8971 
        1.68127         107.927         11.7903         11.7903 
         1.6874         107.251         11.6851         11.6851 
        1.69353         106.594         11.5812         11.5812 
        1.69967         105.992         11.4783         11.4783 
        1.70581         105.382         11.3768         11.3768 
        1.71193         104.901         11.2768         11.2768 
        1.71806         103.868         11.1778         11.1778 
        1.72421         103.409         11.0798         11.0798 
        1.73035         103.023         10.9831         10.9831 
        1.73649         102.485         10.8875         10.8875 
        1.74262         101.701         10.7932         10.7932 
        1.74876         101.055         10.6999         10.6999 
        1.75489         101.032          10.608          10.608 
        1.76101         100.133         10.5171         10.5171 
        1.76715         99.4572         10.4271         10.4271 
        1.77329         98.9241         10.3381         10.3381 
        1.77943         98.3203         10.2501         10.2501 
        1.78557         97.8302         10.1633         10.1633 
        1.79171         97.1865         10.0774         10.0774 
        1.79785         96.6125         9.99253         9.99253 
        1.80399         96.0411         9.90864         9.90864 
        1.81012         95.6241         9.82581         9.82581 
        1.81625         94.9417         9.74396         9.74396 
        1.82239         94.6541         9.66292         9.66292 
        1.82853         93.8388         9.58284         9.58284 
        1.83466         93.1481         9.50374         9.50374 
        1.84078          93.007         9.42562         9.42562 
        1.84692         92.5236         9.34824         9.34824 
        1.85306         91.8937         9.27163         9.27163 
         1.8592          91.463           9.196           9.196 
        1.86533          90.901         9.12126         9.12126 
        1.87147         90.3176         9.04726         9.04726 
        1.87761          89.851         8.97404         8.97404 
