# k  (h/Mpc)    Pcb(k)  (Mpc/h)^3    Pcb_linear(k) (Mpc/h)^3    Pcb_NL(k) (Mpc/h)^3   ShotnoiseSubtracted = false
     0.00783031         8350.27         8401.93         8401.93 
       0.013688         9585.39         9777.27         9777.27 
       0.019231         9332.68         9427.88         9427.88 
      0.0249154         8359.11         8322.48         8322.48 
      0.0312784         6875.73         6894.04         6894.04 
      0.0375637         5651.57         5694.78         5694.78 
      0.0433917         4899.17         4891.12         4891.12 
      0.0492413         4336.45         4352.36         4352.36 
      0.0555754         3978.02         3966.26         3966.26 
      0.0619321         3590.85         3661.77         3661.77 
       0.067871         3346.45         3369.46         3369.46 
      0.0738098         3037.96         3038.53         3038.53 
      0.0800417         2681.84         2665.03         2665.03 
      0.0862327         2321.68          2309.6          2309.6 
      0.0921407         2045.03         2022.41         2022.41 
      0.0982031         1843.46          1799.6          1799.6 
       0.104506         1659.58         1642.33         1642.33 
       0.110769         1561.86         1540.68         1540.68 
       0.116806         1505.33         1467.65         1467.65 
       0.122832         1415.76          1395.4          1395.4 
       0.129052          1330.5         1306.45         1306.45 
       0.135211         1247.69         1201.91         1201.91 
       0.141259         1129.22          1091.9          1091.9 
       0.147318         1019.37         987.045         987.045 
       0.153489         939.415         896.558         896.558 
       0.159709         885.867         827.088         827.088 
       0.165845         816.079         778.478         778.478 
       0.171974         800.278         743.704         743.704 
       0.178125         769.812         714.791         714.791 
       0.184229         721.206         685.155         685.155 
        0.19034          698.07         650.653         650.653 
       0.196428          664.72         611.268         611.268 
       0.202534         610.743         569.453         569.453 
       0.208729         588.998         528.656         528.656 
       0.214876         557.663         493.172         493.172 
       0.220989          518.87         464.463         464.463 
       0.227147         505.742         441.921         441.921 
        0.23329         486.722         424.089         424.089 
       0.239377         477.107         408.673         408.673 
       0.245482         453.177         393.355         393.355 
       0.251667         433.482         376.684         376.684 
       0.257832         425.324         358.683         358.683 
       0.263955          399.14         340.158         340.158 
       0.270079          381.46         322.123         322.123 
        0.27624         363.695         305.529         305.529 
       0.282372         352.923          291.18          291.18 
        0.28843         349.007         279.137         279.137 
       0.294538         331.372         268.726         268.726 
       0.300721         319.766         259.253         259.253 
        0.30691         314.031         250.155         250.155 
       0.313033         299.307         241.054         241.054 
       0.319153         293.402         231.722         231.722 
       0.325316         284.978         222.218         222.218 
        0.33145         276.281         212.969         212.969 
       0.337538         265.733         204.303         204.303 
       0.343633         256.866         196.374         196.374 
       0.349808         249.329          189.14          189.14 
       0.355968         243.586         182.645         182.645 
       0.362074         236.342          176.71          176.71 
       0.368217         232.667         171.037         171.037 
       0.374374         226.755         165.485         165.485 
       0.380519         217.212         159.984         159.984 
       0.386598         213.223         154.603         154.603 
       0.392688         206.848         149.335         149.335 
        0.39888         202.213         144.194         144.194 
       0.405048         197.339         139.375         139.375 
       0.411186         194.954           134.9           134.9 
       0.417313         190.446         130.736         130.736 
       0.423458          185.42         126.822         126.822 
       0.429607         180.484         123.093         123.093 
       0.435692         177.304          119.53          119.53 
       0.441815         173.185         116.041         116.041 
       0.447964         167.729          112.62          112.62 
       0.454126         164.881         109.281         109.281 
       0.460267         162.888         106.068         106.068 
       0.466387          158.89         103.006         103.006 
        0.47254         156.839         100.073         100.073 
       0.478662         151.731         97.2968         97.2968 
       0.484765         149.493         94.6631         94.6631 
       0.490885         146.751         92.1391         92.1391 
       0.497035         144.902         89.6961         89.6961 
       0.503198         142.512          87.324          87.324 
       0.509342         138.694         85.0288         85.0288 
       0.515458          136.51         82.8145         82.8145 
       0.521598         133.099         80.6634         80.6634 
       0.527764          131.83         78.5773         78.5773 
       0.533884         130.769         76.5822         76.5822 
           0.54         127.281         74.6658         74.6658 
       0.546137          124.28         72.8193         72.8193 
       0.552299         122.533         71.0357         71.0357 
       0.558452         120.332         69.3175         69.3175 
       0.564573         119.594         67.6622         67.6622 
       0.570708         116.324         66.0527         66.0527 
       0.576825         114.849         64.4967         64.4967 
       0.582926         113.551          62.993          62.993 
       0.589034         111.513         61.5354         61.5354 
       0.595184         110.165         60.1154         60.1154 
       0.601379         107.859         58.7318         58.7318 
       0.607522          105.61          57.404          57.404 
       0.613639         104.738         56.1237         56.1237 
       0.619772         103.088         54.8805         54.8805 
       0.625918         102.193         53.6734         53.6734 
       0.632068         99.8256         52.5025         52.5025 
       0.638161         98.5858         51.3772         51.3772 
         0.6443          97.935         50.2766         50.2766 
       0.650464         95.7171         49.2039         49.2039 
       0.656582         95.2558         48.1698         48.1698 
       0.662703         93.9428         47.1648         47.1648 
       0.668861         91.9131         46.1827         46.1827 
       0.675024         91.7905         45.2279         45.2279 
       0.681124         90.1898         44.3101         44.3101 
       0.687237         88.7593         43.4163         43.4163 
       0.693381         87.8293         42.5433         42.5433 
       0.699536           86.78         41.6932         41.6932 
       0.705665         85.6063         40.8703         40.8703 
       0.711789         84.3164         40.0705         40.0705 
       0.717957          83.256         39.2867         39.2867 
        0.72409          82.397         38.5283         38.5283 
       0.730186         82.0379         37.7944         37.7944 
       0.736317         80.6923         37.0757         37.0757 
       0.742472         79.3314         36.3731         36.3731 
       0.748622          78.113         35.6893         35.6893 
        0.75476         78.0372         35.0246         35.0246 
       0.760888         77.3142         34.3779         34.3779 
       0.767043         75.7188          33.745          33.745 
       0.773185         74.7027         33.1294         33.1294 
       0.779291         73.9102         32.5327         32.5327 
       0.785407         73.1333         31.9498         31.9498 
       0.791564         72.7333         31.3777         31.3777 
       0.797719         71.5585         30.8199         30.8199 
       0.803834         71.1964         30.2793         30.2793 
       0.809972         70.5282         29.7497         29.7497 
       0.816124         69.4641         29.2317         29.2317 
       0.822261         68.6057         28.7274         28.7274 
       0.828378         68.4272         28.2366         28.2366 
       0.834502         67.4801         27.7569         27.7569 
       0.840667         66.9312         27.2853         27.2853 
       0.846816          66.212          26.826          26.826 
       0.852925         65.4025         26.3802         26.3802 
       0.859047           65.06         25.9436         25.9436 
       0.865192         64.1708         25.5156         25.5156 
       0.871341         63.5069         25.0969         25.0969 
       0.877463         62.9405         24.6895         24.6895 
       0.883569         62.7883         24.2923         24.2923 
       0.889708         62.0926         23.9017         23.9017 
       0.895864         61.5727         23.5188         23.5188 
       0.902008         60.8111         23.1451         23.1451 
       0.908149         60.0433         22.7798         22.7798 
       0.914301         59.7791         22.4218         22.4218 
       0.920448          59.648         22.0718         22.0718 
       0.926574         58.3309         21.7305         21.7305 
       0.932687         58.0989         21.3972         21.3972 
       0.938823         57.6126         21.0697         21.0697 
       0.944975         56.8853         20.7484         20.7484 
       0.951105         56.4192         20.4349         20.4349 
       0.957225         56.1982         20.1284         20.1284 
       0.963368         55.5906         19.8271         19.8271 
       0.969511         55.1685          19.532          19.532 
       0.975621         54.5845         19.2446         19.2446 
       0.981748         54.1186         18.9621         18.9621 
       0.987916         53.6574         18.6836         18.6836 
        0.99406         53.4348         18.4117         18.4117 
        1.00019         52.7248         18.1458         18.1458 
        1.00632         52.3052         17.8853         17.8853 
        1.01246         51.9724         17.6297         17.6297 
        1.01859         51.6936         17.3794         17.3794 
        1.02471         51.1535         17.1343         17.1343 
        1.03085         50.7038         16.8931         16.8931 
        1.03698         50.3741          16.657          16.657 
        1.04314         49.9492         16.4244         16.4244 
        1.04929         49.4935         16.1969         16.1969 
        1.05541          49.224         15.9745         15.9745 
        1.06154         48.8377         15.7558         15.7558 
        1.06769         48.3631         15.5409         15.5409 
        1.07382          47.909         15.3306         15.3306 
        1.07993         47.7408         15.1248         15.1248 
        1.08607         47.3315         14.9219         14.9219 
        1.09222         47.0934         14.7225         14.7225 
        1.09836          46.685          14.527          14.527 
        1.10449         46.3839         14.3352         14.3352 
        1.11063          45.955         14.1467         14.1467 
        1.11677         45.7861         13.9617         13.9617 
         1.1229         45.2875         13.7803         13.7803 
        1.12903         45.0834          13.602          13.602 
        1.13518         44.8681         13.4267         13.4267 
        1.14131         44.4303         13.2546         13.2546 
        1.14745         44.1288         13.0856         13.0856 
        1.15359         43.5797         12.9195         12.9195 
        1.15973          43.584         12.7562         12.7562 
        1.16584         43.2147         12.5965         12.5965 
        1.17197          42.799         12.4393         12.4393 
        1.17811         42.5628         12.2843         12.2843 
        1.18424           41.98         12.1324         12.1324 
        1.19038         41.8824         11.9826         11.9826 
        1.19652         41.6791         11.8354         11.8354 
        1.20267         41.3242         11.6906         11.6906 
        1.20881         41.0596         11.5484         11.5484 
        1.21495         40.8672         11.4087         11.4087 
        1.22108         40.7503         11.2713         11.2713 
         1.2272         40.2549         11.1366         11.1366 
        1.23334         40.0826         11.0037         11.0037 
        1.23949         39.8151         10.8727         10.8727 
        1.24562         39.5156         10.7441         10.7441 
        1.25174         39.2654         10.6179         10.6179 
        1.25789         39.1282         10.4933         10.4933 
        1.26402          38.833         10.3708         10.3708 
        1.27014         38.6921         10.2507         10.2507 
        1.27628         38.2643         10.1321         10.1321 
        1.28244         38.2557         10.0151         10.0151 
        1.28858         37.8619         9.90014         9.90014 
        1.29471          37.547         9.78723         9.78723 
        1.30084          37.225         9.67618         9.67618 
        1.30697         37.2771         9.56669         9.56669 
        1.31312         36.9418         9.45874         9.45874 
        1.31925         36.6276         9.35279         9.35279 
        1.32537         36.4229         9.24857         9.24857 
        1.33151         36.1729         9.14556         9.14556 
        1.33765         36.0453         9.04418         9.04418 
        1.34378         35.8542         8.94454         8.94454 
        1.34992          35.576         8.84633         8.84633 
        1.35606         35.2753         8.74938         8.74938 
         1.3622         35.1716         8.65405         8.65405 
        1.36833         35.0432         8.56038         8.56038 
        1.37445         34.6595         8.46813         8.46813 
        1.38059         34.5428         8.37696         8.37696 
        1.38675         34.2537         8.28691         8.28691 
        1.39288         34.1695         8.19854         8.19854 
        1.39901         33.8686          8.1115          8.1115 
        1.40515         33.7548         8.02553         8.02553 
         1.4113         33.6583         7.94084         7.94084 
        1.41742         33.3848         7.85769         7.85769 
        1.42355         33.1376         7.77557         7.77557 
         1.4297         33.0545         7.69438         7.69438 
        1.43585         32.8142         7.61438         7.61438 
        1.44198          32.574         7.53582         7.53582 
        1.44809          32.335         7.45852         7.45852 
        1.45423         32.2417         7.38201         7.38201 
        1.46036         32.1224         7.30671         7.30671 
        1.46649         31.8607         7.23244         7.23244 
        1.47263         31.6963         7.15914         7.15914 
        1.47877         31.5362         7.08689         7.08689 
        1.48491         31.3546         7.01551         7.01551 
        1.49104         31.1254         6.94527         6.94527 
        1.49718         31.0525         6.87594         6.87594 
        1.50333         30.9076         6.80744         6.80744 
        1.50947         30.6396         6.74001         6.74001 
         1.5156         30.5579         6.67359         6.67359 
        1.52172         30.3133         6.60806         6.60806 
        1.52787         30.2451         6.54328         6.54328 
          1.534         29.9781         6.47944         6.47944 
        1.54013          30.012         6.41652         6.41652 
        1.54627          29.703         6.35432         6.35432 
        1.55241         29.5497         6.29293         6.29293 
        1.55855         29.4276         6.23244         6.23244 
        1.56467         29.2044         6.17291         6.17291 
         1.5708           29.16         6.11398         6.11398 
        1.57695         29.0059         6.05574         6.05574 
        1.58308         28.7603         5.99839         5.99839 
        1.58922         28.6168         5.94173         5.94173 
        1.59535         28.5367         5.88583         5.88583 
         1.6015         28.4722         5.83058         5.83058 
        1.60764         28.1916         5.77605         5.77605 
        1.61376         28.0471         5.72237         5.72237 
        1.61989           27.86         5.66933         5.66933 
        1.62604         27.7403         5.61684         5.61684 
        1.63218         27.5417         5.56505         5.56505 
        1.63831         27.4889         5.51403         5.51403 
        1.64444         27.3545         5.46362         5.46362 
        1.65059         27.1719         5.41373         5.41373 
        1.65673         27.0703         5.36451         5.36451 
        1.66285         26.9731         5.31603         5.31603 
        1.66898         26.7811         5.26814         5.26814 
        1.67512          26.674         5.22075         5.22075 
        1.68127         26.5289         5.17389         5.17389 
         1.6874         26.4217         5.12771         5.12771 
        1.69353         26.2967         5.08212         5.08212 
        1.69967         26.1846         5.03698         5.03698 
        1.70581         26.0065          4.9924          4.9924 
        1.71193         25.8861         4.94853         4.94853 
        1.71806         25.8025         4.90509         4.90509 
        1.72421         25.6326         4.86209         4.86209 
        1.73035         25.5083         4.81965         4.81965 
        1.73649         25.3427         4.77772         4.77772 
        1.74262         25.1829         4.73633         4.73633 
        1.74876         25.2191          4.6954          4.6954 
        1.75489         24.9881         4.65503         4.65503 
        1.76101         24.9222         4.61515         4.61515 
        1.76715         24.7601         4.57569         4.57569 
        1.77329         24.5743         4.53663         4.53663 
        1.77943         24.5741         4.49801         4.49801 
        1.78557         24.4823          4.4599          4.4599 
        1.79171         24.3239         4.42222         4.42222 
        1.79785          24.221         4.38497         4.38497 
        1.80399         24.0654         4.34815         4.34815 
        1.81012         24.0034         4.31181         4.31181 
        1.81625         23.7787         4.27589         4.27589 
        1.82239         23.7092         4.24033         4.24033 
        1.82853         23.6197         4.20519         4.20519 
        1.83466         23.4958         4.17048         4.17048 
        1.84078         23.3708         4.13619         4.13619 
        1.84692         23.2619         4.10224         4.10224 
        1.85306         23.1355         4.06862         4.06862 
         1.8592         23.0862         4.03543         4.03543 
        1.86533         22.9587         4.00263         4.00263 
        1.87147         22.8381         3.97016         3.97016 
