# k  (h/Mpc)    P(k)  (Mpc/h)^3    P_linear(k)  (Mpc/h)^3     P_NL(k)  ShotnoiseSubtracted = false
     0.00783031         4367.31         4397.36         4397.36 
       0.013688         5039.32         5119.26         5119.26 
       0.019231         4900.55         4936.97         4936.97 
      0.0249154         4373.78          4358.4          4358.4 
      0.0312784         3607.87         3610.49         3610.49 
      0.0375637         2969.54         2982.49         2982.49 
      0.0433917          2568.6         2561.63         2561.63 
      0.0492413         2275.85         2279.49         2279.49 
      0.0555754         2085.25         2077.29         2077.29 
      0.0619321         1892.33         1917.83         1917.83 
       0.067871         1758.78         1764.74         1764.74 
      0.0738098          1592.5         1591.42         1591.42 
      0.0800417         1403.88         1395.81         1395.81 
      0.0862327         1214.65         1209.65         1209.65 
      0.0921407          1066.3         1059.24         1059.24 
      0.0982031         957.669         942.545         942.545 
       0.104506         864.085         860.173         860.173 
       0.110769         812.405         806.934         806.934 
       0.116806         781.271         768.687         768.687 
       0.122832         735.931         730.849         730.849 
       0.129052         692.222         684.261         684.261 
       0.135211         644.282         629.507         629.507 
       0.141259         583.169         571.887         571.887 
       0.147318         525.341          516.97          516.97 
       0.153489         481.911         469.577         469.577 
       0.159709         450.611         433.192         433.192 
       0.165845         416.829         407.733         407.733 
       0.171974          406.93          389.52          389.52 
       0.178125         390.501         374.376         374.376 
       0.184229         368.975         358.854         358.854 
        0.19034         355.195         340.783         340.783 
       0.196428         335.961         320.156         320.156 
       0.202534         308.758         298.255         298.255 
       0.208729         294.427         276.887         276.887 
       0.214876         278.242         258.302         258.302 
       0.220989         258.147         243.265         243.265 
       0.227147          250.83         231.458         231.458 
        0.23329         241.302         222.119         222.119 
       0.239377         234.744         214.045         214.045 
       0.245482         223.789         206.022         206.022 
       0.251667         213.409         197.291         197.291 
       0.257832         208.253         187.863         187.863 
       0.263955         195.213         178.161         178.161 
       0.270079         185.801         168.715         168.715 
        0.27624         176.519         160.022         160.022 
       0.282372         170.003         152.508         152.508 
        0.28843         167.206           146.2           146.2 
       0.294538         159.531         140.747         140.747 
       0.300721         152.943         135.786         135.786 
        0.30691          149.96         131.021         131.021 
       0.313033         143.364         126.254         126.254 
       0.319153         140.258         121.366         121.366 
       0.325316         134.342         116.388         116.388 
        0.33145         129.434         111.544         111.544 
       0.337538         124.678         107.005         107.005 
       0.343633         120.502         102.853         102.853 
       0.349808         116.409          99.063          99.063 
       0.355968         113.037         95.6615         95.6615 
       0.362074         110.507         92.5535         92.5535 
       0.368217         107.619         89.5818         89.5818 
       0.374374         104.791         86.6748         86.6748 
       0.380519         100.258         83.7926         83.7926 
       0.386598         97.5921         80.9748         80.9748 
       0.392688         94.3583         78.2156         78.2156 
        0.39888         92.4705         75.5226         75.5226 
       0.405048         90.0229         72.9989         72.9989 
       0.411186         87.8557         70.6549         70.6549 
       0.417313         85.3478         68.4737         68.4737 
       0.423458         83.0247         66.4237         66.4237 
       0.429607         81.2413         64.4713         64.4713 
       0.435692         79.8113         62.6046         62.6046 
       0.441815         77.0024         60.7773         60.7773 
       0.447964         74.3955          58.986          58.986 
       0.454126         72.9976         57.2369         57.2369 
       0.460267         72.1883         55.5541         55.5541 
       0.466387         70.1669         53.9502         53.9502 
        0.47254         69.1432         52.4141         52.4141 
       0.478662         66.6287         50.9599         50.9599 
       0.484765         65.3798         49.5807         49.5807 
       0.490885         63.6073         48.2586         48.2586 
       0.497035         62.8411         46.9791         46.9791 
       0.503198         61.3389         45.7367         45.7367 
       0.509342         59.6278         44.5345         44.5345 
       0.515458         58.6696         43.3748         43.3748 
       0.521598         57.1808         42.2481         42.2481 
       0.527764         56.4116         41.1555         41.1555 
       0.533884         55.5565         40.1106         40.1106 
           0.54         54.0786         39.1068         39.1068 
       0.546137         52.5377         38.1397         38.1397 
       0.552299         51.5788         37.2055         37.2055 
       0.558452         50.4883         36.3056         36.3056 
       0.564573         50.0846         35.4386         35.4386 
       0.570708         48.5914         34.5956         34.5956 
       0.576825         48.0388         33.7807         33.7807 
       0.582926         47.2987         32.9931         32.9931 
       0.589034          46.286         32.2297         32.2297 
       0.595184         45.5876         31.4859         31.4859 
       0.601379         44.4003         30.7613         30.7613 
       0.607522         43.5715         30.0658         30.0658 
       0.613639         43.0586         29.3953         29.3953 
       0.619772         42.1508         28.7441         28.7441 
       0.625918         41.4911         28.1119         28.1119 
       0.632068         40.9628         27.4986         27.4986 
       0.638161         40.0859         26.9092         26.9092 
         0.6443         39.6276         26.3328         26.3328 
       0.650464         38.6189          25.771          25.771 
       0.656582          38.381         25.2293         25.2293 
       0.662703         37.7762         24.7029         24.7029 
       0.668861         36.8464         24.1886         24.1886 
       0.675024         36.5056         23.6885         23.6885 
       0.681124         36.0963         23.2078         23.2078 
       0.687237         35.3314         22.7396         22.7396 
       0.693381         34.7941         22.2824         22.2824 
       0.699536         34.4577         21.8372         21.8372 
       0.705665         33.8192         21.4061         21.4061 
       0.711789          33.249         20.9872         20.9872 
       0.717957         32.6377         20.5767         20.5767 
        0.72409         32.2807         20.1795         20.1795 
       0.730186          32.062         19.7951         19.7951 
       0.736317         31.4151         19.4187         19.4187 
       0.742472         31.0168         19.0507         19.0507 
       0.748622         30.4806         18.6926         18.6926 
        0.75476         29.8685         18.3444         18.3444 
       0.760888         29.7997         18.0057         18.0057 
       0.767043         29.1783         17.6742         17.6742 
       0.773185         28.8104         17.3518         17.3518 
       0.779291         28.4254         17.0393         17.0393 
       0.785407         28.0221          16.734          16.734 
       0.791564         27.9166         16.4343         16.4343 
       0.797719         27.2684         16.1422         16.1422 
       0.803834         27.1152          15.859          15.859 
       0.809972         26.6499         15.5816         15.5816 
       0.816124         26.3475         15.3103         15.3103 
       0.822261           25.99         15.0462         15.0462 
       0.828378         25.7884         14.7892         14.7892 
       0.834502         25.4523         14.5379         14.5379 
       0.840667         25.1851         14.2909         14.2909 
       0.846816         24.7035         14.0503         14.0503 
       0.852925         24.5476         13.8169         13.8169 
       0.859047         24.3323         13.5882         13.5882 
       0.865192         23.9242          13.364          13.364 
       0.871341         23.6373         13.1447         13.1447 
       0.877463         23.3605         12.9313         12.9313 
       0.883569         23.2145         12.7233         12.7233 
       0.889708         22.8761         12.5187         12.5187 
       0.895864         22.5827         12.3182         12.3182 
       0.902008         22.3361         12.1225         12.1225 
       0.908149         22.0602         11.9311         11.9311 
       0.914301         21.8805         11.7436         11.7436 
       0.920448         21.6208         11.5603         11.5603 
       0.926574         21.3473         11.3816         11.3816 
       0.932687         21.1019          11.207          11.207 
       0.938823         20.8046         11.0355         11.0355 
       0.944975         20.6378         10.8671         10.8671 
       0.951105          20.452         10.7029         10.7029 
       0.957225         20.2809         10.5424         10.5424 
       0.963368         19.9787         10.3846         10.3846 
       0.969511         19.7974         10.2301         10.2301 
       0.975621         19.6288         10.0795         10.0795 
       0.981748         19.3667         9.93157         9.93157 
       0.987916         19.2356         9.78569         9.78569 
        0.99406         18.9671         9.64329         9.64329 
        1.00019         18.8429           9.504           9.504 
        1.00632         18.6722          9.3676          9.3676 
        1.01246         18.4649         9.23368         9.23368 
        1.01859         18.2615         9.10259         9.10259 
        1.02471         18.0784         8.97422         8.97422 
        1.03085         17.9733         8.84788         8.84788 
        1.03698         17.8213         8.72424         8.72424 
        1.04314          17.599         8.60244         8.60244 
        1.04929         17.3648         8.48325         8.48325 
        1.05541         17.2934          8.3668          8.3668 
        1.06154         17.1515         8.25224         8.25224 
        1.06769         16.8959         8.13966         8.13966 
        1.07382         16.7629         8.02956         8.02956 
        1.07993         16.6161         7.92174         7.92174 
        1.08607         16.4808         7.81546         7.81546 
        1.09222           16.32         7.71102         7.71102 
        1.09836         16.1503         7.60862         7.60862 
        1.10449         16.0648         7.50819         7.50819 
        1.11063         15.9177         7.40948         7.40948 
        1.11677         15.8318         7.31257         7.31257 
         1.1229         15.6508         7.21757         7.21757 
        1.12903         15.4863         7.12417         7.12417 
        1.13518         15.4035         7.03235         7.03235 
        1.14131         15.2689          6.9422          6.9422 
        1.14745         15.0652         6.85368         6.85368 
        1.15359         14.9067         6.76669         6.76669 
        1.15973         14.8242         6.68118         6.68118 
        1.16584         14.6891         6.59752         6.59752 
        1.17197         14.5216         6.51518         6.51518 
        1.17811         14.4448         6.43399         6.43399 
        1.18424         14.2928         6.35442         6.35442 
        1.19038         14.2341         6.27597         6.27597 
        1.19652         14.0561         6.19888         6.19888 
        1.20267         14.0017         6.12308         6.12308 
        1.20881         13.8334         6.04856         6.04856 
        1.21495         13.7603          5.9754          5.9754 
        1.22108         13.6832         5.90346         5.90346 
         1.2272         13.5542         5.83288         5.83288 
        1.23334         13.4692         5.76328         5.76328 
        1.23949         13.3394         5.69466         5.69466 
        1.24562         13.1855         5.62734         5.62734 
        1.25174         13.1453          5.5612          5.5612 
        1.25789         13.0479         5.49593         5.49593 
        1.26402         12.9424         5.43182         5.43182 
        1.27014         12.8625         5.36889         5.36889 
        1.27628         12.7188         5.30676         5.30676 
        1.28244         12.6978          5.2455          5.2455 
        1.28858         12.5463         5.18528         5.18528 
        1.29471         12.4161         5.12614         5.12614 
        1.30084         12.3265         5.06798         5.06798 
        1.30697         12.2712         5.01064         5.01064 
        1.31312         12.1689          4.9541          4.9541 
        1.31925         12.0931          4.8986          4.8986 
        1.32537         11.9777         4.84402         4.84402 
        1.33151         11.8924         4.79007         4.79007 
        1.33765         11.8467         4.73697         4.73697 
        1.34378          11.766         4.68478         4.68478 
        1.34992         11.6534         4.63334         4.63334 
        1.35606          11.548         4.58256         4.58256 
         1.3622         11.4715         4.53264         4.53264 
        1.36833         11.4358         4.48357         4.48357 
        1.37445          11.345         4.43526         4.43526 
        1.38059         11.2546          4.3875          4.3875 
        1.38675          11.191         4.34034         4.34034 
        1.39288         11.0845         4.29406         4.29406 
        1.39901         11.0089         4.24847         4.24847 
        1.40515         10.9485         4.20344         4.20344 
         1.4113         10.8719         4.15908         4.15908 
        1.41742         10.8154         4.11553         4.11553 
        1.42355         10.7133         4.07252         4.07252 
         1.4297         10.6455            4.03            4.03 
        1.43585          10.579          3.9881          3.9881 
        1.44198           10.54         3.94695         3.94695 
        1.44809         10.4532         3.90646         3.90646 
        1.45423         10.3785         3.86639         3.86639 
        1.46036         10.3068         3.82696         3.82696 
        1.46649         10.2413         3.78805         3.78805 
        1.47263         10.1781         3.74966         3.74966 
        1.47877         10.1058         3.71182         3.71182 
        1.48491         10.0493         3.67444         3.67444 
        1.49104         9.98116         3.63765         3.63765 
        1.49718         9.93688         3.60133         3.60133 
        1.50333         9.88291         3.56545         3.56545 
        1.50947         9.80718         3.53014         3.53014 
         1.5156         9.75884         3.49535         3.49535 
        1.52172         9.67183         3.46103         3.46103 
        1.52787         9.65252          3.4271          3.4271 
          1.534         9.58066         3.39366         3.39366 
        1.54013         9.52757         3.36071         3.36071 
        1.54627         9.44104         3.32813         3.32813 
        1.55241         9.36643         3.29598         3.29598 
        1.55855          9.3394         3.26429         3.26429 
        1.56467         9.29429         3.23311         3.23311 
         1.5708         9.23743         3.20225         3.20225 
        1.57695         9.18144         3.17174         3.17174 
        1.58308         9.11246         3.14171         3.14171 
        1.58922         9.06771         3.11203         3.11203 
        1.59535         9.01845         3.08276         3.08276 
         1.6015         8.92763         3.05381         3.05381 
        1.60764         8.89006         3.02526         3.02526 
        1.61376         8.85437         2.99714         2.99714 
        1.61989          8.7798         2.96936         2.96936 
        1.62604         8.75435         2.94187         2.94187 
        1.63218         8.70677         2.91474         2.91474 
        1.63831         8.63796         2.88802         2.88802 
        1.64444         8.57994         2.86162         2.86162 
        1.65059         8.53184         2.83549         2.83549 
        1.65673         8.50312         2.80971         2.80971 
        1.66285         8.42714         2.78432         2.78432 
        1.66898         8.41062         2.75924         2.75924 
        1.67512         8.38034         2.73441         2.73441 
        1.68127         8.30107         2.70987         2.70987 
         1.6874          8.2829         2.68568         2.68568 
        1.69353         8.18606         2.66181         2.66181 
        1.69967         8.16337         2.63816         2.63816 
        1.70581         8.12244         2.61481         2.61481 
        1.71193         8.07417         2.59184         2.59184 
        1.71806          8.0346         2.56908         2.56908 
        1.72421         7.98657         2.54656         2.54656 
        1.73035          7.9521         2.52433         2.52433 
        1.73649          7.9211         2.50237         2.50237 
        1.74262         7.84662         2.48069         2.48069 
        1.74876         7.82822         2.45926         2.45926 
        1.75489         7.78873         2.43811         2.43811 
        1.76101         7.71873         2.41723         2.41723 
        1.76715         7.71275         2.39656         2.39656 
        1.77329         7.65219          2.3761          2.3761 
        1.77943          7.6014         2.35587         2.35587 
        1.78557         7.59941         2.33591         2.33591 
        1.79171         7.53609         2.31618         2.31618 
        1.79785         7.49992         2.29667         2.29667 
        1.80399         7.45997         2.27738         2.27738 
        1.81012         7.42073         2.25835         2.25835 
        1.81625         7.37957         2.23954         2.23954 
        1.82239         7.34214         2.22091         2.22091 
        1.82853         7.29357          2.2025          2.2025 
        1.83466         7.24784         2.18432         2.18432 
        1.84078         7.21747         2.16637         2.16637 
        1.84692           7.208         2.14858         2.14858 
        1.85306          7.1616         2.13098         2.13098 
         1.8592         7.13293         2.11359         2.11359 
        1.86533         7.07445         2.09641         2.09641 
        1.87147         7.04795         2.07941         2.07941 
        1.87761         7.02298         2.06258         2.06258 
