# k  (h/Mpc)    Pcb(k)  (Mpc/h)^3    Pcb_linear(k) (Mpc/h)^3    Pcb_NL(k) (Mpc/h)^3   ShotnoiseSubtracted = false
     0.00783031         1666.82         1679.61         1679.61 
       0.013688         1933.29         1956.16         1956.16 
       0.019231         1877.48         1886.77         1886.77 
      0.0249154          1669.3         1665.77         1665.77 
      0.0312784         1380.72         1379.98         1379.98 
      0.0375637         1138.17         1139.98         1139.98 
      0.0433917         982.048         979.129         979.129 
      0.0492413         871.179         871.296         871.296 
      0.0555754         796.712         794.015         794.015 
      0.0619321         727.264         733.067         733.067 
       0.067871          673.56         674.555         674.555 
      0.0738098         608.617         608.307         608.307 
      0.0800417          535.62         533.537         533.537 
      0.0862327         463.527         462.381         462.381 
      0.0921407         406.023         404.888         404.888 
      0.0982031         363.321         360.282         360.282 
       0.104506         328.908         328.797         328.797 
       0.110769         308.882         308.447         308.447 
       0.116806         295.989         293.827         293.827 
       0.122832         279.623         279.364         279.364 
       0.129052         262.801         261.556         261.556 
       0.135211         243.097         240.627         240.627 
       0.141259          220.19         218.602         218.602 
       0.147318         198.389          197.61          197.61 
       0.153489         181.199         179.495         179.495 
       0.159709         168.152         165.586         165.586 
       0.165845         156.506         155.855         155.855 
       0.171974         151.593         148.893         148.893 
       0.178125         145.371         143.104         143.104 
       0.184229         138.342         137.171         137.171 
        0.19034         132.499         130.264         130.264 
       0.196428          124.63         122.379         122.379 
       0.202534         114.958         114.007         114.007 
       0.208729         108.277         105.839         105.839 
       0.214876         101.876         98.7355         98.7355 
       0.220989         94.7888         92.9878         92.9878 
       0.227147         91.4625         88.4748         88.4748 
        0.23329         87.8723         84.9048         84.9048 
       0.239377         84.9748         81.8185         81.8185 
       0.245482         81.4189         78.7517         78.7517 
       0.251667         77.5762         75.4142         75.4142 
       0.257832         74.9318         71.8103         71.8103 
       0.263955         70.5102         68.1016         68.1016 
       0.270079         66.8969         64.4909         64.4909 
        0.27624         63.3372         61.1685         61.1685 
       0.282372         60.6255         58.2958         58.2958 
        0.28843         58.9894         55.8847         55.8847 
       0.294538         56.5745         53.8005         53.8005 
       0.300721         54.1798         51.9039         51.9039 
        0.30691         52.8393         50.0824         50.0824 
       0.313033         50.7225         48.2604         48.2604 
       0.319153         49.4143         46.3921         46.3921 
       0.325316         46.8871         44.4892         44.4892 
        0.33145         44.9917         42.6376         42.6376 
       0.337538         43.3495         40.9025         40.9025 
       0.343633         41.8998         39.3152         39.3152 
       0.349808         40.3169         37.8669         37.8669 
       0.355968         38.9256         36.5665         36.5665 
       0.362074         38.0379         35.3784         35.3784 
       0.368217         36.8083         34.2426         34.2426 
       0.374374         35.8825         33.1311         33.1311 
       0.380519         34.3757         32.0296         32.0296 
       0.386598         33.2098         30.9525         30.9525 
       0.392688         32.0501         29.8978         29.8978 
        0.39888          31.268         28.8685         28.8685 
       0.405048         30.3629         27.9037         27.9037 
       0.411186         29.3889         27.0078         27.0078 
       0.417313         28.4907          26.174          26.174 
       0.423458         27.5772         25.3904         25.3904 
       0.429607         27.0321          24.644          24.644 
       0.435692          26.442         23.9305         23.9305 
       0.441815         25.4378         23.2321         23.2321 
       0.447964         24.5472         22.5473         22.5473 
       0.454126         24.0772         21.8787         21.8787 
       0.460267         23.6529         21.2355         21.2355 
       0.466387         22.9135         20.6224         20.6224 
        0.47254         22.4504         20.0352         20.0352 
       0.478662         21.7155         19.4794         19.4794 
       0.484765         21.1819         18.9521         18.9521 
       0.490885         20.5345         18.4468         18.4468 
       0.497035         20.0633         17.9577         17.9577 
       0.503198         19.6415         17.4828         17.4828 
       0.509342         19.0262         17.0233         17.0233 
       0.515458         18.6958           16.58           16.58 
       0.521598         18.2396         16.1493         16.1493 
       0.527764         17.9132         15.7316         15.7316 
       0.533884         17.3759         15.3322         15.3322 
           0.54         17.0187         14.9485         14.9485 
       0.546137         16.4799         14.5789         14.5789 
       0.552299         16.1632         14.2218         14.2218 
       0.558452         15.7699         13.8778         13.8778 
       0.564573         15.5132         13.5464         13.5464 
       0.570708         15.1296         13.2241         13.2241 
       0.576825          14.852         12.9126         12.9126 
       0.582926         14.5168         12.6116         12.6116 
       0.589034         14.2085         12.3198         12.3198 
       0.595184         13.9919         12.0355         12.0355 
       0.601379          13.589         11.7585         11.7585 
       0.607522         13.3198         11.4926         11.4926 
       0.613639         13.0367         11.2363         11.2363 
       0.619772         12.7955         10.9874         10.9874 
       0.625918         12.5102         10.7457         10.7457 
       0.632068         12.3453         10.5113         10.5113 
       0.638161         12.0598          10.286          10.286 
         0.6443         11.8252         10.0657         10.0657 
       0.650464         11.5269         9.85093         9.85093 
       0.656582         11.4059         9.64388         9.64388 
       0.662703         11.2165         9.44268         9.44268 
       0.668861         10.9026         9.24606         9.24606 
       0.675024         10.7098         9.05491         9.05491 
       0.681124         10.6568         8.87114         8.87114 
       0.687237         10.4002          8.6922          8.6922 
       0.693381         10.1327         8.51744         8.51744 
       0.699536         10.0446         8.34724         8.34724 
       0.705665          9.8313         8.18248         8.18248 
       0.711789         9.62385         8.02235         8.02235 
       0.717957         9.40838         7.86543         7.86543 
        0.72409          9.3077         7.71359         7.71359 
       0.730186         9.22396         7.56667         7.56667 
       0.736317         8.99479         7.42278         7.42278 
       0.742472         8.87601         7.28211         7.28211 
       0.748622         8.71396         7.14522         7.14522 
        0.75476         8.47748         7.01214         7.01214 
       0.760888          8.4115         6.88266         6.88266 
       0.767043         8.22398         6.75595         6.75595 
       0.773185         8.10678          6.6327          6.6327 
       0.779291         8.04213         6.51324         6.51324 
       0.785407         7.87467         6.39656         6.39656 
       0.791564         7.76105         6.28201         6.28201 
       0.797719         7.59545         6.17033         6.17033 
       0.803834         7.52935         6.06209         6.06209 
       0.809972         7.37302         5.95607         5.95607 
       0.816124         7.26929         5.85236         5.85236 
       0.822261         7.16783         5.75141         5.75141 
       0.828378         7.05998         5.65315         5.65315 
       0.834502         6.95845         5.55711         5.55711 
       0.840667         6.87556         5.46269         5.46269 
       0.846816          6.7198         5.37073         5.37073 
       0.852925         6.65447         5.28148         5.28148 
       0.859047         6.54909         5.19408         5.19408 
       0.865192         6.44605         5.10837         5.10837 
       0.871341         6.35029         5.02455         5.02455 
       0.877463          6.2543         4.94299         4.94299 
       0.883569         6.18955         4.86346         4.86346 
       0.889708         6.08163         4.78528         4.78528 
       0.895864         5.99626         4.70862         4.70862 
       0.902008         5.90368          4.6338          4.6338 
       0.908149         5.81467         4.56066         4.56066 
       0.914301         5.75424         4.48898         4.48898 
       0.920448          5.6748         4.41891         4.41891 
       0.926574         5.62278         4.35059         4.35059 
       0.932687         5.51852         4.28386         4.28386 
       0.938823         5.42584         4.21829         4.21829 
       0.944975         5.38727         4.15395         4.15395 
       0.951105         5.28517         4.09119         4.09119 
       0.957225         5.24764         4.02982         4.02982 
       0.963368         5.16508         3.96951         3.96951 
       0.969511         5.09779         3.91044         3.91044 
       0.975621          5.0262         3.85288         3.85288 
       0.981748         4.94252         3.79634         3.79634 
       0.987916         4.89377         3.74057         3.74057 
        0.99406         4.84297         3.68614         3.68614 
        1.00019         4.78741          3.6329          3.6329 
        1.00632         4.73549         3.58076         3.58076 
        1.01246         4.66405         3.52957         3.52957 
        1.01859         4.60197         3.47946         3.47946 
        1.02471         4.52868         3.43039         3.43039 
        1.03085         4.49898         3.38209         3.38209 
        1.03698         4.44156         3.33483         3.33483 
        1.04314         4.38336         3.28828         3.28828 
        1.04929         4.31615         3.24272         3.24272 
        1.05541         4.26973          3.1982          3.1982 
        1.06154         4.22656         3.15441         3.15441 
        1.06769         4.19527         3.11138         3.11138 
        1.07382         4.11621         3.06929         3.06929 
        1.07993         4.06819         3.02808         3.02808 
        1.08607         4.03846         2.98745         2.98745 
        1.09222         3.97597         2.94753         2.94753 
        1.09836         3.96103         2.90839         2.90839 
        1.10449          3.8733            2.87            2.87 
        1.11063         3.85248         2.83227         2.83227 
        1.11677         3.80976         2.79522         2.79522 
         1.1229         3.76704         2.75891         2.75891 
        1.12903         3.73009         2.72321         2.72321 
        1.13518         3.67183         2.68811         2.68811 
        1.14131         3.63018         2.65365         2.65365 
        1.14745         3.58243         2.61982         2.61982 
        1.15359         3.54424         2.58656         2.58656 
        1.15973         3.50474         2.55387         2.55387 
        1.16584         3.47609          2.5219          2.5219 
        1.17197         3.42984         2.49042         2.49042 
        1.17811          3.3913         2.45939         2.45939 
        1.18424         3.35645         2.42897         2.42897 
        1.19038         3.32735         2.39899         2.39899 
        1.19652         3.29535         2.36952         2.36952 
        1.20267         3.26222         2.34054         2.34054 
        1.20881          3.2189         2.31206         2.31206 
        1.21495         3.18958         2.28409         2.28409 
        1.22108         3.15408         2.25659         2.25659 
         1.2272         3.11365         2.22961         2.22961 
        1.23334         3.10161         2.20301         2.20301 
        1.23949         3.05533         2.17678         2.17678 
        1.24562         3.02946         2.15105         2.15105 
        1.25174         3.00842         2.12577         2.12577 
        1.25789         2.95529         2.10082         2.10082 
        1.26402         2.93522         2.07631         2.07631 
        1.27014          2.9085         2.05225         2.05225 
        1.27628         2.87284         2.02851         2.02851 
        1.28244         2.85086         2.00509         2.00509 
        1.28858         2.82804         1.98207         1.98207 
        1.29471         2.78629         1.95947         1.95947 
        1.30084         2.75819         1.93723         1.93723 
        1.30697         2.74235         1.91531         1.91531 
        1.31312         2.71145          1.8937          1.8937 
        1.31925         2.68323         1.87249         1.87249 
        1.32537         2.66144         1.85162         1.85162 
        1.33151         2.63154           1.831           1.831 
        1.33765           2.607          1.8107          1.8107 
        1.34378         2.59329         1.79075         1.79075 
        1.34992          2.5638         1.77109         1.77109 
        1.35606         2.54157         1.75168         1.75168 
         1.3622         2.51633          1.7326          1.7326 
        1.36833         2.48758         1.71384         1.71384 
        1.37445         2.46098         1.69537         1.69537 
        1.38059         2.43796         1.67712         1.67712 
        1.38675         2.41722         1.65909         1.65909 
        1.39288         2.40367          1.6414          1.6414 
        1.39901         2.37041         1.62397         1.62397 
        1.40515         2.35347         1.60676         1.60676 
         1.4113         2.33401         1.58981         1.58981 
        1.41742         2.31039         1.57316         1.57316 
        1.42355         2.28842         1.55672         1.55672 
         1.4297         2.27071         1.54046         1.54046 
        1.43585         2.25325         1.52445         1.52445 
        1.44198         2.22791         1.50872         1.50872 
        1.44809         2.21377         1.49324         1.49324 
        1.45423         2.19117         1.47793         1.47793 
        1.46036          2.1756         1.46285         1.46285 
        1.46649         2.15075         1.44798         1.44798 
        1.47263         2.14009         1.43331         1.43331 
        1.47877         2.12174         1.41884         1.41884 
        1.48491         2.09826         1.40455         1.40455 
        1.49104         2.08188         1.39049         1.39049 
        1.49718         2.06674         1.37661         1.37661 
        1.50333         2.04554         1.36289         1.36289 
        1.50947         2.02572         1.34939         1.34939 
         1.5156         2.01261         1.33609         1.33609 
        1.52172         1.99523         1.32298         1.32298 
        1.52787         1.98024         1.31001         1.31001 
          1.534         1.96284         1.29723         1.29723 
        1.54013         1.94787         1.28463         1.28463 
        1.54627         1.92883         1.27218         1.27218 
        1.55241         1.91101         1.25988         1.25988 
        1.55855         1.89938         1.24777         1.24777 
        1.56467         1.88592         1.23586         1.23586 
         1.5708         1.86708         1.22406         1.22406 
        1.57695         1.84802          1.2124          1.2124 
        1.58308          1.8312         1.20092         1.20092 
        1.58922         1.82508         1.18957         1.18957 
        1.59535         1.80588         1.17838         1.17838 
         1.6015         1.78965         1.16732         1.16732 
        1.60764         1.78116          1.1564          1.1564 
        1.61376         1.76111         1.14566         1.14566 
        1.61989         1.74523         1.13504         1.13504 
        1.62604         1.73246         1.12453         1.12453 
        1.63218         1.72339         1.11416         1.11416 
        1.63831         1.71194         1.10394         1.10394 
        1.64444         1.69515         1.09385         1.09385 
        1.65059         1.68585         1.08386         1.08386 
        1.65673         1.66753         1.07401         1.07401 
        1.66285         1.65509          1.0643          1.0643 
        1.66898         1.64194         1.05472         1.05472 
        1.67512         1.62895         1.04523         1.04523 
        1.68127         1.61707         1.03585         1.03585 
         1.6874         1.60824          1.0266          1.0266 
        1.69353         1.59072         1.01747         1.01747 
        1.69967         1.57906         1.00844         1.00844 
        1.70581         1.57124        0.999511        0.999511 
        1.71193         1.55204        0.990728        0.990728 
        1.71806          1.5457        0.982031        0.982031 
        1.72421         1.53575        0.973422        0.973422 
        1.73035         1.52038        0.964925        0.964925 
        1.73649         1.51119        0.956531        0.956531 
        1.74262         1.50043        0.948244        0.948244 
        1.74876         1.48963        0.940049        0.940049 
        1.75489         1.47682        0.931968        0.931968 
        1.76101         1.46469        0.923984        0.923984 
        1.76715          1.4595        0.916082        0.916082 
        1.77329         1.44488        0.908263        0.908263 
        1.77943         1.43469        0.900532        0.900532 
        1.78557         1.42537        0.892901        0.892901 
        1.79171         1.41548        0.885358        0.885358 
        1.79785         1.40718          0.8779          0.8779 
        1.80399         1.39473        0.870529        0.870529 
        1.81012         1.38554        0.863252        0.863252 
        1.81625         1.37222        0.856061        0.856061 
        1.82239         1.36594        0.848942        0.848942 
        1.82853         1.35586        0.841906        0.841906 
        1.83466          1.3426        0.834957        0.834957 
        1.84078         1.33402        0.828093        0.828093 
        1.84692         1.32497        0.821295        0.821295 
        1.85306         1.31653        0.814565        0.814565 
         1.8592           1.307         0.80792         0.80792 
        1.86533           1.299        0.801353        0.801353 
        1.87147         1.29146        0.794852        0.794852 
