# k  (h/Mpc)    Pcb(k)  (Mpc/h)^3    Pcb_linear(k) (Mpc/h)^3    Pcb_NL(k) (Mpc/h)^3   ShotnoiseSubtracted = false
     0.00783031         13335.9         13410.4         13410.4 
       0.013688         15229.8         15598.8         15598.8 
       0.019231         14843.6         15039.3         15039.3 
      0.0249154         13338.6         13275.1         13275.1 
      0.0312784         10939.5         10996.2         10996.2 
      0.0375637         8981.26         9083.12         9083.12 
      0.0433917         7800.09         7801.18         7801.18 
      0.0492413         6898.67         6941.81         6941.81 
      0.0555754         6331.75         6325.94         6325.94 
      0.0619321         5688.96         5840.26         5840.26 
       0.067871         5311.49         5374.04         5374.04 
      0.0738098         4836.72          4846.2          4846.2 
      0.0800417         4273.93          4250.5          4250.5 
      0.0862327         3704.55          3683.6          3683.6 
      0.0921407         3276.81         3225.55         3225.55 
      0.0982031         2964.38         2870.19         2870.19 
       0.104506         2665.31         2619.35         2619.35 
       0.110769         2510.38         2457.23         2457.23 
       0.116806         2421.05         2340.75         2340.75 
       0.122832         2277.16         2225.53         2225.53 
       0.129052          2134.7         2083.66         2083.66 
       0.135211         2018.07         1916.92         1916.92 
       0.141259         1826.96         1741.46         1741.46 
       0.147318         1656.46         1574.23         1574.23 
       0.153489         1533.36         1429.91         1429.91 
       0.159709         1457.55         1319.12         1319.12 
       0.165845         1340.71         1241.59         1241.59 
       0.171974         1315.62         1186.13         1186.13 
       0.178125          1270.2         1140.01         1140.01 
       0.184229         1180.26         1092.75         1092.75 
        0.19034         1149.02         1037.72         1037.72 
       0.196428         1100.99         974.906         974.906 
       0.202534         1015.31         908.215         908.215 
       0.208729          986.51         843.147         843.147 
       0.214876         934.068         786.554         786.554 
       0.220989         875.942         740.766         740.766 
       0.227147          853.35         704.814         704.814 
        0.23329         820.835         676.374         676.374 
       0.239377         810.952         651.788         651.788 
       0.245482         769.424         627.357         627.357 
       0.251667         738.567         600.769         600.769 
       0.257832         725.129         572.059         572.059 
       0.263955         684.204         542.515         542.515 
       0.270079         657.625         513.751         513.751 
        0.27624         628.366         487.284         487.284 
       0.282372         614.463         464.399         464.399 
        0.28843         606.814         445.191         445.191 
       0.294538         575.547         428.588         428.588 
       0.300721          559.96          413.48          413.48 
        0.30691         548.562         398.969         398.969 
       0.313033         523.172         384.454         384.454 
       0.319153         514.452          369.57          369.57 
       0.325316         504.697         354.412         354.412 
        0.33145         491.327         339.662         339.662 
       0.337538         472.573         325.839         325.839 
       0.343633         458.644         313.194         313.194 
       0.349808         447.053         301.657         301.657 
       0.355968         438.063         291.297         291.297 
       0.362074         422.087         281.833         281.833 
       0.368217           419.1         272.785         272.785 
       0.374374         410.901          263.93          263.93 
       0.380519         393.889         255.156         255.156 
       0.386598         389.025         246.575         246.575 
       0.392688         378.673         238.173         238.173 
        0.39888         368.965         229.973         229.973 
       0.405048         360.674         222.287         222.287 
       0.411186         359.338          215.15          215.15 
       0.417313         353.434         208.508         208.508 
       0.423458         343.744         202.266         202.266 
       0.429607         333.377          196.32          196.32 
       0.435692         328.098         190.636         190.636 
       0.441815         322.226         185.072         185.072 
       0.447964         314.135         179.617         179.617 
       0.454126         310.328         174.291         174.291 
       0.460267         305.128         169.167         169.167 
       0.466387         298.473         164.283         164.283 
        0.47254         294.478         159.605         159.605 
       0.478662          287.41         155.177         155.177 
       0.484765         283.243         150.977         150.977 
       0.490885         280.019         146.951         146.951 
       0.497035         274.234         143.055         143.055 
       0.503198         272.918         139.272         139.272 
       0.509342         266.311         135.611         135.611 
       0.515458         261.608          132.08          132.08 
       0.521598         256.762         128.649         128.649 
       0.527764         253.524         125.322         125.322 
       0.533884         251.526          122.14          122.14 
           0.54          247.23         119.083         119.083 
       0.546137         241.535         116.139         116.139 
       0.552299         240.045         113.294         113.294 
       0.558452         235.829         110.553         110.553 
       0.564573         234.195         107.913         107.913 
       0.570708         229.373         105.346         105.346 
       0.576825         225.546         102.865         102.865 
       0.582926           223.8         100.467         100.467 
       0.589034          219.85          98.142          98.142 
       0.595184         218.135         95.8772         95.8772 
       0.601379         214.568         93.6705         93.6705 
       0.607522         209.624         91.5527         91.5527 
       0.613639         208.645         89.5109         89.5109 
       0.619772          207.34         87.5281         87.5281 
       0.625918         203.905         85.6029         85.6029 
       0.632068         200.759         83.7355         83.7355 
       0.638161         199.394         81.9407         81.9407 
         0.6443         196.819         80.1854         80.1854 
       0.650464         193.585         78.4746         78.4746 
       0.656582         191.774         76.8253         76.8253 
       0.662703         190.448         75.2224         75.2224 
       0.668861         186.448         73.6561         73.6561 
       0.675024         185.928         72.1334         72.1334 
       0.681124         183.332         70.6695         70.6695 
       0.687237         181.778         69.2439         69.2439 
       0.693381         178.721         67.8517         67.8517 
       0.699536         177.747         66.4959         66.4959 
       0.705665         175.645         65.1834         65.1834 
       0.711789         173.196         63.9078         63.9078 
       0.717957         171.757         62.6577         62.6577 
        0.72409         169.344         61.4481         61.4481 
       0.730186           170.1         60.2778         60.2778 
       0.736317         167.326         59.1315         59.1315 
       0.742472         165.023         58.0109         58.0109 
       0.748622         162.739         56.9203         56.9203 
        0.75476         163.076         55.8602         55.8602 
       0.760888         160.767         54.8288         54.8288 
       0.767043         158.123         53.8194         53.8194 
       0.773185         156.676         52.8375         52.8375 
       0.779291         155.104         51.8859         51.8859 
       0.785407         154.035         50.9563         50.9563 
       0.791564         152.673         50.0438         50.0438 
       0.797719         150.114         49.1542         49.1542 
       0.803834         150.645         48.2919         48.2919 
       0.809972         148.749         47.4473         47.4473 
       0.816124         146.167         46.6212         46.6212 
       0.822261         145.363          45.817          45.817 
       0.828378         144.783         45.0342         45.0342 
       0.834502         143.083         44.2691         44.2691 
       0.840667         142.704         43.5169         43.5169 
       0.846816         140.159         42.7844         42.7844 
       0.852925         139.536         42.0734         42.0734 
       0.859047         138.106         41.3771         41.3771 
       0.865192         137.486         40.6944         40.6944 
       0.871341         135.991         40.0266         40.0266 
       0.877463         134.727         39.3769         39.3769 
       0.883569          134.53         38.7434         38.7434 
       0.889708          133.17         38.1205         38.1205 
       0.895864           131.7         37.5098         37.5098 
       0.902008         130.289         36.9138         36.9138 
       0.908149         129.042         36.3312         36.3312 
       0.914301         128.245         35.7602         35.7602 
       0.920448         128.229          35.202          35.202 
       0.926574         126.063         34.6577         34.6577 
       0.932687         125.877         34.1261         34.1261 
       0.938823         124.805         33.6038         33.6038 
       0.944975         123.977         33.0913         33.0913 
       0.951105         122.653         32.5912         32.5912 
       0.957225         121.952         32.1024         32.1024 
       0.963368         121.043          31.622          31.622 
       0.969511         119.798         31.1514         31.1514 
       0.975621         118.341         30.6928         30.6928 
       0.981748         117.949         30.2424         30.2424 
       0.987916         117.277         29.7982         29.7982 
        0.99406         116.467         29.3645         29.3645 
        1.00019         115.695         28.9404         28.9404 
        1.00632         114.651         28.5251         28.5251 
        1.01246         113.834         28.1173         28.1173 
        1.01859          113.05         27.7181         27.7181 
        1.02471         112.241         27.3272         27.3272 
        1.03085         111.332         26.9425         26.9425 
        1.03698         110.477          26.566          26.566 
        1.04314         110.093         26.1951         26.1951 
        1.04929         109.388         25.8321         25.8321 
        1.05541          108.63         25.4775         25.4775 
        1.06154         107.465         25.1287         25.1287 
        1.06769         106.972         24.7859         24.7859 
        1.07382         106.367         24.4506         24.4506 
        1.07993         105.514         24.1223         24.1223 
        1.08607         105.101         23.7987         23.7987 
        1.09222         104.077         23.4806         23.4806 
        1.09836         103.424         23.1688         23.1688 
        1.10449         102.798          22.863          22.863 
        1.11063         101.884         22.5624         22.5624 
        1.11677         101.471         22.2673         22.2673 
         1.1229         100.488          21.978          21.978 
        1.12903         99.8008         21.6937         21.6937 
        1.13518         99.0551         21.4141         21.4141 
        1.14131         98.7198         21.1395         21.1395 
        1.14745         98.0129           20.87           20.87 
        1.15359         97.1598         20.6051         20.6051 
        1.15973         96.8071         20.3447         20.3447 
        1.16584         96.0628           20.09           20.09 
        1.17197         95.6405         19.8392         19.8392 
        1.17811          94.807          19.592          19.592 
        1.18424         94.2021         19.3497         19.3497 
        1.19038         93.7212         19.1108         19.1108 
        1.19652         93.1514         18.8761         18.8761 
        1.20267         92.4596         18.6452         18.6452 
        1.20881         91.7371         18.4183         18.4183 
        1.21495         91.4114         18.1955         18.1955 
        1.22108         90.7975         17.9765         17.9765 
         1.2272         90.2854         17.7615         17.7615 
        1.23334         89.8818         17.5496         17.5496 
        1.23949         89.2721         17.3407         17.3407 
        1.24562         88.4786         17.1357         17.1357 
        1.25174         88.3522         16.9343         16.9343 
        1.25789         87.4922         16.7355         16.7355 
        1.26402         87.2144         16.5403         16.5403 
        1.27014         86.3906         16.3487         16.3487 
        1.27628          86.023         16.1595         16.1595 
        1.28244         85.7366         15.9729         15.9729 
        1.28858         84.9841         15.7896         15.7896 
        1.29471         84.4951         15.6095         15.6095 
        1.30084         83.7832         15.4324         15.4324 
        1.30697         83.4666         15.2578         15.2578 
        1.31312         82.9586         15.0856         15.0856 
        1.31925         82.2819         14.9166         14.9166 
        1.32537         81.9134         14.7504         14.7504 
        1.33151         81.8047         14.5861         14.5861 
        1.33765         81.0177         14.4244         14.4244 
        1.34378         80.6975         14.2655         14.2655 
        1.34992         80.2829         14.1089         14.1089 
        1.35606         79.7915         13.9542         13.9542 
         1.3622         79.5507         13.8022         13.8022 
        1.36833         78.7963         13.6528         13.6528 
        1.37445         78.5203         13.5057         13.5057 
        1.38059         78.0344         13.3603         13.3603 
        1.38675         77.4629         13.2167         13.2167 
        1.39288         76.9868         13.0757         13.0757 
        1.39901          76.638         12.9369         12.9369 
        1.40515         76.1373         12.7998         12.7998 
         1.4113         75.7335         12.6647         12.6647 
        1.41742          75.406         12.5321         12.5321 
        1.42355         75.0735         12.4011         12.4011 
         1.4297         74.5382         12.2716         12.2716 
        1.43585         74.1963         12.1441         12.1441 
        1.44198         73.5319         12.0188         12.0188 
        1.44809         73.0558         11.8955         11.8955 
        1.45423         73.1102         11.7735         11.7735 
        1.46036         72.4637         11.6534         11.6534 
        1.46649         71.9709         11.5349         11.5349 
        1.47263         71.4957          11.418          11.418 
        1.47877         71.2399         11.3028         11.3028 
        1.48491         70.7927         11.1889         11.1889 
        1.49104           70.26         11.0769         11.0769 
        1.49718         69.9775         10.9663         10.9663 
        1.50333         69.7021         10.8571         10.8571 
        1.50947         69.3799         10.7495         10.7495 
         1.5156         69.0946         10.6436         10.6436 
        1.52172         68.3949         10.5391         10.5391 
        1.52787         68.1821         10.4358         10.4358 
          1.534         67.7618          10.334          10.334 
        1.54013         67.5185         10.2336         10.2336 
        1.54627         66.9336         10.1344         10.1344 
        1.55241         66.9175         10.0365         10.0365 
        1.55855           66.14         9.94002         9.94002 
        1.56467         65.7648         9.84507         9.84507 
         1.5708         65.4245         9.75109         9.75109 
        1.57695         65.1764          9.6582          9.6582 
        1.58308         64.8745         9.56673         9.56673 
        1.58922         64.6554         9.47638         9.47638 
        1.59535         64.4293         9.38722         9.38722 
         1.6015         63.8449         9.29909         9.29909 
        1.60764         63.5283         9.21213         9.21213 
        1.61376         63.3091         9.12652         9.12652 
        1.61989         62.7711         9.04193         9.04193 
        1.62604         62.6117         8.95821         8.95821 
        1.63218         62.2287         8.87561         8.87561 
        1.63831         61.9324         8.79423         8.79423 
        1.64444         61.5939         8.71384         8.71384 
        1.65059         61.2378         8.63427         8.63427 
        1.65673         60.9899         8.55577         8.55577 
        1.66285         60.5655         8.47846         8.47846 
        1.66898         60.1461         8.40208         8.40208 
        1.67512          59.822         8.32649         8.32649 
        1.68127         59.6681         8.25175         8.25175 
         1.6874         59.2679          8.1781          8.1781 
        1.69353          58.962         8.10539         8.10539 
        1.69967         58.6732          8.0334          8.0334 
        1.70581         58.3898          7.9623          7.9623 
        1.71193         57.9684         7.89233         7.89233 
        1.71806         57.8256         7.82305         7.82305 
        1.72421         57.4767         7.75447         7.75447 
        1.73035         57.1318         7.68678         7.68678 
        1.73649         56.8248         7.61992         7.61992 
        1.74262         56.5205          7.5539          7.5539 
        1.74876         56.3066         7.48862         7.48862 
        1.75489         55.9895         7.42424         7.42424 
        1.76101         55.7397         7.36064         7.36064 
        1.76715         55.3736         7.29769         7.29769 
        1.77329         55.0851          7.2354          7.2354 
        1.77943         54.9651         7.17381         7.17381 
        1.78557         54.6385         7.11302         7.11302 
        1.79171          54.187         7.05293         7.05293 
        1.79785         53.9996         6.99352         6.99352 
        1.80399         53.8347          6.9348          6.9348 
        1.81012         53.4184         6.87683         6.87683 
        1.81625         53.2064         6.81955         6.81955 
        1.82239         52.8115         6.76283         6.76283 
        1.82853         52.6786         6.70679         6.70679 
        1.83466         52.2824         6.65143         6.65143 
        1.84078         52.0428         6.59675         6.59675 
        1.84692         51.9834         6.54259         6.54259 
        1.85306         51.6854         6.48898         6.48898 
         1.8592         51.3506         6.43605         6.43605 
        1.86533         51.1021         6.38374         6.38374 
        1.87147         50.7961         6.33194         6.33194 
