# k  (h/Mpc)    Pcb(k)  (Mpc/h)^3    Pcb_linear(k) (Mpc/h)^3    Pcb_NL(k) (Mpc/h)^3   ShotnoiseSubtracted = false
     0.00783031         6580.02         6622.54         6622.54 
       0.013688         7569.51         7707.92         7707.92 
       0.019231         7366.42         7432.88         7432.88 
      0.0249154         6588.49         6561.57         6561.57 
      0.0312784         5425.78         5435.45         5435.45 
      0.0375637         4462.18         4489.97         4489.97 
      0.0433917         3864.79         3856.35         3856.35 
      0.0492413         3422.21         3431.59         3431.59 
      0.0555754         3138.07         3127.18         3127.18 
      0.0619321         2838.68         2887.11         2887.11 
       0.067871         2642.79         2656.65         2656.65 
      0.0738098         2396.44         2395.73         2395.73 
      0.0800417         2114.41         2101.25         2101.25 
      0.0862327         1829.86         1821.01         1821.01 
      0.0921407         1609.37         1594.57         1594.57 
      0.0982031         1448.54          1418.9          1418.9 
       0.104506          1305.1          1294.9          1294.9 
       0.110769         1227.78         1214.75         1214.75 
       0.116806         1182.49         1157.17         1157.17 
       0.122832         1112.63         1100.21         1100.21 
       0.129052         1046.23         1030.08         1030.08 
       0.135211         977.954         947.652         947.652 
       0.141259         885.082         860.911         860.911 
       0.147318         798.067         778.241         778.241 
       0.153489         734.065         706.896         706.896 
       0.159709           689.8         652.122         652.122 
       0.165845         636.347         613.795         613.795 
       0.171974         623.166         586.378         586.378 
       0.178125         598.728         563.581         563.581 
       0.184229         562.952         540.214         540.214 
        0.19034         543.632         513.011         513.011 
       0.196428         516.211         481.958         481.958 
       0.202534         474.128         448.989         448.989 
       0.208729         455.264         416.822         416.822 
       0.214876         430.838         388.844         388.844 
       0.220989         400.116         366.208         366.208 
       0.227147          389.68         348.435         348.435 
        0.23329         375.013         334.375         334.375 
       0.239377         366.406         322.221         322.221 
       0.245482         348.466         310.143         310.143 
       0.251667         332.847         296.999         296.999 
       0.257832         326.057         282.806         282.806 
       0.263955         305.643           268.2           268.2 
       0.270079         291.564          253.98          253.98 
        0.27624         277.619         240.896         240.896 
       0.282372         268.529         229.583         229.583 
        0.28843         265.178         220.087         220.087 
       0.294538         252.213         211.879         211.879 
       0.300721          242.61          204.41          204.41 
        0.30691         238.222         197.236         197.236 
       0.313033         227.268         190.061         190.061 
       0.319153         222.611         182.703         182.703 
       0.325316         214.998         175.209         175.209 
        0.33145         207.899         167.917         167.917 
       0.337538         200.074         161.084         161.084 
       0.343633         193.315         154.832         154.832 
       0.349808         187.276         149.128         149.128 
       0.355968          182.55         144.007         144.007 
       0.362074         177.778         139.328         139.328 
       0.368217         174.202         134.855         134.855 
       0.374374         169.597         130.478         130.478 
       0.380519          162.37          126.14          126.14 
       0.386598         158.878         121.898         121.898 
       0.392688         153.877         117.744         117.744 
        0.39888         150.684         113.691         113.691 
       0.405048         146.893         109.891         109.891 
       0.411186         144.399         106.363         106.363 
       0.417313         140.692         103.079         103.079 
       0.423458         137.004         99.9933         99.9933 
       0.429607         133.652         97.0537         97.0537 
       0.435692         131.307          94.244          94.244 
       0.441815         127.624         91.4932         91.4932 
       0.447964         123.435         88.7964         88.7964 
       0.454126         121.148         86.1635         86.1635 
       0.460267         119.854         83.6303         83.6303 
       0.466387         116.756         81.2156         81.2156 
        0.47254         115.228         78.9032         78.9032 
       0.478662         111.167         76.7143         76.7143 
       0.484765         109.413         74.6378         74.6378 
       0.490885         106.989         72.6477         72.6477 
       0.497035         105.838         70.7215         70.7215 
       0.503198          103.61         68.8512         68.8512 
       0.509342         100.822         67.0415         67.0415 
       0.515458          99.205         65.2957         65.2957 
       0.521598         96.6735         63.5996         63.5996 
       0.527764         95.6424         61.9548         61.9548 
       0.533884         94.7239         60.3817         60.3817 
           0.54         92.0253         58.8708         58.8708 
       0.546137         89.7565         57.4149         57.4149 
       0.552299          88.257         56.0086         56.0086 
       0.558452         86.5924         54.6538         54.6538 
       0.564573         86.0457         53.3487         53.3487 
       0.570708         83.5353         52.0797         52.0797 
       0.576825         82.5797         50.8528         50.8528 
       0.582926          81.561         49.6673         49.6673 
       0.589034         79.9724          48.518          48.518 
       0.595184         78.8572         47.3984         47.3984 
       0.601379         77.0308         46.3075         46.3075 
       0.607522         75.5083         45.2605         45.2605 
       0.613639          74.815         44.2511         44.2511 
       0.619772         73.3843         43.2709         43.2709 
       0.625918          72.638         42.3192         42.3192 
       0.632068         71.2165         41.3959         41.3959 
       0.638161         70.0166         40.5087         40.5087 
         0.6443          69.524         39.6409         39.6409 
       0.650464         67.8655         38.7952         38.7952 
       0.656582         67.5626         37.9798         37.9798 
       0.662703         66.5045         37.1874         37.1874 
       0.668861         65.0079         36.4131         36.4131 
       0.675024         64.7814         35.6603         35.6603 
       0.681124         63.7394         34.9366         34.9366 
       0.687237         62.5223         34.2318         34.2318 
       0.693381         61.8972         33.5436         33.5436 
       0.699536         61.1316         32.8733         32.8733 
       0.705665         60.2027         32.2245         32.2245 
       0.711789         59.2461         31.5938         31.5938 
       0.717957         58.4095         30.9759         30.9759 
        0.72409         57.7981         30.3779         30.3779 
       0.730186         57.4147         29.7993         29.7993 
       0.736317         56.3863         29.2326         29.2326 
       0.742472          55.547         28.6786         28.6786 
       0.748622         54.6738         28.1395         28.1395 
        0.75476         54.2002         27.6154         27.6154 
       0.760888          53.922         27.1055         27.1055 
       0.767043         52.7476         26.6065         26.6065 
       0.773185         52.0173         26.1211         26.1211 
       0.779291          51.424         25.6506         25.6506 
       0.785407         50.7733         25.1911         25.1911 
       0.791564         50.6396           24.74           24.74 
       0.797719         49.6988         24.3002         24.3002 
       0.803834         49.3425         23.8739         23.8739 
       0.809972          48.791         23.4563         23.4563 
       0.816124          48.161         23.0479         23.0479 
       0.822261         47.4494         22.6503         22.6503 
       0.828378         47.2945         22.2634         22.2634 
       0.834502         46.6133         21.8851         21.8851 
       0.840667         46.2051         21.5133         21.5133 
       0.846816         45.6276         21.1511         21.1511 
       0.852925         45.1069         20.7997         20.7997 
       0.859047         44.9218         20.4554         20.4554 
       0.865192         44.1468         20.1179         20.1179 
       0.871341         43.6594         19.7878         19.7878 
       0.877463         43.2441         19.4666         19.4666 
       0.883569           43.09         19.1534         19.1534 
       0.889708         42.5672         18.8455         18.8455 
       0.895864         42.1672         18.5436         18.5436 
       0.902008         41.6838         18.2489         18.2489 
       0.908149         41.1892         17.9609         17.9609 
       0.914301         40.8583         17.6786         17.6786 
       0.920448         40.6822         17.4027         17.4027 
       0.926574         39.9011         17.1336         17.1336 
       0.932687         39.6109         16.8708         16.8708 
       0.938823         39.1801         16.6126         16.6126 
       0.944975         38.7267         16.3592         16.3592 
       0.951105         38.4531          16.112          16.112 
       0.957225         38.1874         15.8703         15.8703 
       0.963368         37.7906         15.6328         15.6328 
       0.969511          37.445         15.4002         15.4002 
       0.975621         37.1301         15.1735         15.1735 
       0.981748         36.7356         14.9508         14.9508 
       0.987916         36.4119         14.7312         14.7312 
        0.99406         36.1265         14.5168         14.5168 
        1.00019         35.7561         14.3072         14.3072 
        1.00632         35.4727         14.1018         14.1018 
        1.01246         35.1638         13.9002         13.9002 
        1.01859         34.9047         13.7029         13.7029 
        1.02471         34.5137         13.5096         13.5096 
        1.03085         34.2793         13.3194         13.3194 
        1.03698         34.0603         13.1333         13.1333 
        1.04314         33.7448           12.95           12.95 
        1.04929          33.312         12.7705         12.7705 
        1.05541          33.239         12.5952         12.5952 
        1.06154          32.945         12.4228         12.4228 
        1.06769         32.4866         12.2533         12.2533 
        1.07382         32.3046         12.0876         12.0876 
        1.07993         32.0939         11.9252         11.9252 
        1.08607         31.8001         11.7653         11.7653 
        1.09222         31.6079          11.608          11.608 
        1.09836         31.3123         11.4539         11.4539 
        1.10449         31.1485         11.3027         11.3027 
        1.11063         30.8095         11.1541         11.1541 
        1.11677         30.7316         11.0082         11.0082 
         1.1229         30.3904         10.8652         10.8652 
        1.12903         30.1706         10.7246         10.7246 
        1.13518         30.0809         10.5864         10.5864 
        1.14131         29.7526         10.4507         10.4507 
        1.14745         29.4718         10.3174         10.3174 
        1.15359         29.1483         10.1865         10.1865 
        1.15973         29.0884         10.0577         10.0577 
        1.16584         28.8465         9.93179         9.93179 
        1.17197         28.5046         9.80784         9.80784 
        1.17811         28.3711         9.68562         9.68562 
        1.18424         27.9709         9.56584         9.56584 
        1.19038         27.8863         9.44774         9.44774 
        1.19652         27.7052         9.33168         9.33168 
        1.20267         27.5393         9.21757         9.21757 
        1.20881         27.3162          9.1054          9.1054 
        1.21495         27.2226         8.99526         8.99526 
        1.22108         27.0939         8.88697         8.88697 
         1.2272         26.7956         8.78071         8.78071 
        1.23334         26.6461         8.67594         8.67594 
        1.23949         26.4479         8.57263         8.57263 
        1.24562         26.2265         8.47129         8.47129 
        1.25174         26.0559         8.37174         8.37174 
        1.25789         25.9443         8.27348         8.27348 
        1.26402          25.761         8.17697         8.17697 
        1.27014         25.6196         8.08223         8.08223 
        1.27628          25.342          7.9887          7.9887 
        1.28244         25.3417         7.89648         7.89648 
        1.28858         25.0562         7.80583         7.80583 
        1.29471         24.8484         7.71681         7.71681 
        1.30084         24.6791         7.62925         7.62925 
        1.30697         24.6057         7.54293         7.54293 
        1.31312          24.381         7.45781         7.45781 
        1.31925         24.1934         7.37427         7.37427 
        1.32537         24.0327          7.2921          7.2921 
        1.33151         23.8496         7.21088         7.21088 
        1.33765          23.814         7.13095         7.13095 
        1.34378         23.6855         7.05238         7.05238 
        1.34992         23.4459         6.97495         6.97495 
        1.35606         23.2765         6.89851         6.89851 
         1.3622         23.1742         6.82335         6.82335 
        1.36833         23.0875         6.74949         6.74949 
        1.37445         22.8663         6.67676         6.67676 
        1.38059         22.7363         6.60487         6.60487 
        1.38675         22.5884         6.53387         6.53387 
        1.39288         22.4538          6.4642          6.4642 
        1.39901         22.2934         6.39557         6.39557 
        1.40515         22.1904         6.32779         6.32779 
         1.4113         22.1239         6.26101         6.26101 
        1.41742         21.9712         6.19545         6.19545 
        1.42355          21.753          6.1307          6.1307 
         1.4297          21.674         6.06669         6.06669 
        1.43585         21.5284         6.00361         6.00361 
        1.44198         21.4221         5.94167         5.94167 
        1.44809          21.261         5.88072         5.88072 
        1.45423         21.1671          5.8204          5.8204 
        1.46036         21.0795         5.76103         5.76103 
        1.46649         20.9184         5.70247         5.70247 
        1.47263         20.7737         5.64468         5.64468 
        1.47877         20.6622         5.58771         5.58771 
        1.48491         20.5632         5.53143         5.53143 
        1.49104         20.4094         5.47605         5.47605 
        1.49718         20.3947         5.42138         5.42138 
        1.50333         20.2668         5.36737         5.36737 
        1.50947         20.0799          5.3142          5.3142 
         1.5156         20.0195         5.26183         5.26183 
        1.52172          19.877         5.21017         5.21017 
        1.52787         19.8165         5.15909         5.15909 
          1.534          19.656         5.10876         5.10876 
        1.54013         19.6396         5.05915         5.05915 
        1.54627         19.4451         5.01011         5.01011 
        1.55241         19.3423          4.9617          4.9617 
        1.55855         19.2611         4.91401         4.91401 
        1.56467         19.1491         4.86707         4.86707 
         1.5708         19.0517         4.82061         4.82061 
        1.57695         18.9842         4.77469         4.77469 
        1.58308         18.7941         4.72947         4.72947 
        1.58922         18.7152          4.6848          4.6848 
        1.59535         18.6264         4.64073         4.64073 
         1.6015         18.5646         4.59716         4.59716 
        1.60764         18.4328         4.55417         4.55417 
        1.61376         18.3374         4.51184         4.51184 
        1.61989         18.1845         4.47002         4.47002 
        1.62604         18.1145         4.42864         4.42864 
        1.63218         18.0329          4.3878          4.3878 
        1.63831         17.9418         4.34757         4.34757 
        1.64444         17.8516         4.30783         4.30783 
        1.65059         17.7551         4.26849         4.26849 
        1.65673         17.6739         4.22968         4.22968 
        1.66285          17.592         4.19146         4.19146 
        1.66898         17.4814          4.1537          4.1537 
        1.67512         17.4535         4.11633         4.11633 
        1.68127         17.3305         4.07939         4.07939 
         1.6874         17.2433         4.04298         4.04298 
        1.69353         17.1445         4.00703         4.00703 
        1.69967         17.0497         3.97144         3.97144 
        1.70581         16.9712         3.93629         3.93629 
        1.71193         16.8764          3.9017          3.9017 
        1.71806          16.816         3.86745         3.86745 
        1.72421         16.7335         3.83355         3.83355 
        1.73035         16.6329         3.80009         3.80009 
        1.73649         16.5344         3.76703         3.76703 
        1.74262         16.4555         3.73439         3.73439 
        1.74876         16.4013         3.70212         3.70212 
        1.75489         16.2964         3.67029         3.67029 
        1.76101         16.2182         3.63885         3.63885 
        1.76715         16.1557         3.60773         3.60773 
        1.77329          16.042         3.57694         3.57694 
        1.77943         15.9989         3.54649         3.54649 
        1.78557          15.943         3.51644         3.51644 
        1.79171          15.842         3.48673         3.48673 
        1.79785         15.7532         3.45736         3.45736 
        1.80399          15.655         3.42833         3.42833 
        1.81012         15.6316         3.39967         3.39967 
        1.81625         15.5166         3.37136         3.37136 
        1.82239         15.4454         3.34332         3.34332 
        1.82853         15.3792         3.31561         3.31561 
        1.83466         15.2971         3.28824         3.28824 
        1.84078         15.2261         3.26121         3.26121 
        1.84692          15.185         3.23444         3.23444 
        1.85306         15.0939         3.20793         3.20793 
         1.8592         15.0605         3.18177         3.18177 
        1.86533         14.9514          3.1559          3.1559 
        1.87147          14.859          3.1303          3.1303 
