# k  (h/Mpc)    P(k)  (Mpc/h)^3    P_linear(k)  (Mpc/h)^3     P_NL(k)  ShotnoiseSubtracted = false
     0.00783031         17036.7         17125.8         17125.8 
       0.013688           19389         19913.7         19913.7 
       0.019231         18908.7         19197.6         19197.6 
      0.0249154         17026.1         16944.8         16944.8 
      0.0312784         13936.1         14035.5         14035.5 
      0.0375637         11433.6         11593.5         11593.5 
      0.0433917         9940.64         9957.12         9957.12 
      0.0492413         8788.26         8860.19         8860.19 
      0.0555754          8066.1         8074.08         8074.08 
      0.0619321         7227.42         7454.16         7454.16 
       0.067871         6753.22         6859.08         6859.08 
      0.0738098         6163.84         6185.37         6185.37 
      0.0800417         5449.06         5425.04         5425.04 
      0.0862327         4728.56         4701.48         4701.48 
      0.0921407         4195.57         4116.86         4116.86 
      0.0982031         3804.38          3663.3          3663.3 
       0.104506         3419.23         3343.14         3343.14 
       0.110769         3221.99         3136.22         3136.22 
       0.116806          3106.1         2987.55         2987.55 
       0.122832         2924.21         2840.49         2840.49 
       0.129052         2734.91         2659.42         2659.42 
       0.135211         2599.29         2446.61         2446.61 
       0.141259         2354.13         2222.66         2222.66 
       0.147318         2143.15         2009.22         2009.22 
       0.153489         1989.35         1825.03         1825.03 
       0.159709         1900.15         1683.61         1683.61 
       0.165845         1748.56         1584.66         1584.66 
       0.171974         1713.43         1513.88         1513.88 
       0.178125         1658.94         1455.02         1455.02 
       0.184229          1534.4         1394.69         1394.69 
        0.19034         1499.74         1324.46         1324.46 
       0.196428         1441.99         1244.29         1244.29 
       0.202534         1335.87         1159.17         1159.17 
       0.208729         1301.12         1076.12         1076.12 
       0.214876         1231.75         1003.89         1003.89 
       0.220989         1163.13         945.451         945.451 
       0.227147         1131.44         899.562         899.562 
        0.23329         1087.77         863.267         863.267 
       0.239377         1079.31         831.887         831.887 
       0.245482         1025.11         800.705         800.705 
       0.251667         985.825         766.772         766.772 
       0.257832         966.754         730.129         730.129 
       0.263955         916.526          692.42          692.42 
       0.270079         884.806         655.708         655.708 
        0.27624          846.48         621.926         621.926 
       0.282372         831.685          592.72          592.72 
        0.28843         818.131         568.204         568.204 
       0.294538         777.789         547.013         547.013 
       0.300721         760.277         527.731         527.731 
        0.30691         742.351          509.21          509.21 
       0.313033          710.02         490.684         490.684 
       0.319153         700.197         471.688         471.688 
       0.325316         689.199         452.342         452.342 
        0.33145         671.559         433.515         433.515 
       0.337538         646.991         415.873         415.873 
       0.343633          630.13         399.735         399.735 
       0.349808         615.867         385.007         385.007 
       0.355968         603.636         371.787         371.787 
       0.362074         581.373         359.708         359.708 
       0.368217         578.721         348.159         348.159 
       0.374374         569.388         336.861         336.861 
       0.380519         546.669         325.659         325.659 
       0.386598         541.528         314.707         314.707 
       0.392688         527.368         303.984         303.984 
        0.39888         514.714         293.518         293.518 
       0.405048         503.008         283.709         283.709 
       0.411186          502.29         274.599         274.599 
       0.417313         495.788         266.122         266.122 
       0.423458         482.126         258.155         258.155 
       0.429607         467.534         250.567         250.567 
       0.435692         461.321         243.312         243.312 
       0.441815         452.911          236.21          236.21 
       0.447964         443.948         229.248         229.248 
       0.454126         438.911          222.45          222.45 
       0.460267         431.594          215.91          215.91 
       0.466387         422.559         209.676         209.676 
        0.47254         417.221         203.706         203.706 
       0.478662         408.818         198.055         198.055 
       0.484765         402.948         192.694         192.694 
       0.490885          399.46         187.556         187.556 
       0.497035         390.032         182.583         182.583 
       0.503198         389.334         177.755         177.755 
       0.509342         381.087         173.083         173.083 
       0.515458         373.524         168.575         168.575 
       0.521598         369.607         164.197         164.197 
       0.527764         362.854          159.95          159.95 
       0.533884          359.38         155.889         155.889 
           0.54         355.239         151.988         151.988 
       0.546137         348.018         148.229         148.229 
       0.552299         346.503         144.599         144.599 
       0.558452         340.611         141.101         141.101 
       0.564573          338.32         137.732         137.732 
       0.570708           332.9         134.455         134.455 
       0.576825         326.713         131.288         131.288 
       0.582926         325.458         128.227         128.227 
       0.589034         319.255          125.26          125.26 
       0.595184         317.022         122.369         122.369 
       0.601379         311.778         119.553         119.553 
       0.607522         305.414          116.85          116.85 
       0.613639         304.459         114.244         114.244 
       0.619772         303.167         111.713         111.713 
       0.625918         296.754         109.256         109.256 
       0.632068         294.968         106.873         106.873 
       0.638161         292.193         104.582         104.582 
         0.6443         287.797         102.342         102.342 
       0.650464         284.706         100.158         100.158 
       0.656582         281.638         98.0532         98.0532 
       0.662703         280.105         96.0075         96.0075 
       0.668861         274.626         94.0084         94.0084 
       0.675024         273.639         92.0649         92.0649 
       0.681124         269.026         90.1965         90.1965 
       0.687237         267.921         88.3771         88.3771 
       0.693381          263.51         86.6002         86.6002 
       0.699536         262.904         84.8697         84.8697 
       0.705665         259.328         83.1945         83.1945 
       0.711789         256.731         81.5665         81.5665 
       0.717957          254.62          79.971          79.971 
        0.72409         251.058         78.4272         78.4272 
       0.730186          252.11         76.9334         76.9334 
       0.736317         247.673         75.4704         75.4704 
       0.742472         245.506         74.0401         74.0401 
       0.748622         243.214         72.6483         72.6483 
        0.75476         242.021         71.2952         71.2952 
       0.760888         239.209         69.9788         69.9788 
       0.767043         236.183         68.6904         68.6904 
       0.773185          234.25         67.4373         67.4373 
       0.779291         232.041         66.2227         66.2227 
       0.785407         230.407         65.0363         65.0363 
       0.791564         228.825         63.8717         63.8717 
       0.797719         225.035         62.7362         62.7362 
       0.803834         225.803         61.6357         61.6357 
       0.809972         222.349         60.5577         60.5577 
       0.816124         219.543         59.5033         59.5033 
       0.822261         218.031         58.4769         58.4769 
       0.828378         217.124         57.4778         57.4778 
       0.834502         214.177         56.5013         56.5013 
       0.840667          214.23         55.5413         55.5413 
       0.846816         210.158         54.6063         54.6063 
       0.852925         210.266         53.6989         53.6989 
       0.859047         207.998         52.8102         52.8102 
       0.865192         207.153         51.9388         51.9388 
       0.871341         204.672         51.0866         51.0866 
       0.877463         203.197         50.2574         50.2574 
       0.883569         202.323         49.4487         49.4487 
       0.889708         200.484         48.6538         48.6538 
       0.895864         197.872         47.8743         47.8743 
       0.902008         196.585         47.1136         47.1136 
       0.908149         194.851           46.37           46.37 
       0.914301         193.596         45.6412         45.6412 
       0.920448         192.691         44.9288         44.9288 
       0.926574         190.674         44.2342         44.2342 
       0.932687         190.401         43.5557         43.5557 
       0.938823         188.277          42.889          42.889 
       0.944975         187.833         42.2349         42.2349 
       0.951105         185.526         41.5967         41.5967 
       0.957225          184.01         40.9728         40.9728 
       0.963368         183.909         40.3596         40.3596 
       0.969511         180.955         39.7589         39.7589 
       0.975621         179.073         39.1737         39.1737 
       0.981748         178.957         38.5988         38.5988 
       0.987916         177.938         38.0318         38.0318 
        0.99406          176.19         37.4784         37.4784 
        1.00019         175.227         36.9371         36.9371 
        1.00632         174.201          36.407          36.407 
        1.01246         172.822         35.8865         35.8865 
        1.01859          171.01          35.377          35.377 
        1.02471         169.773         34.8781         34.8781 
        1.03085         168.693         34.3871         34.3871 
        1.03698         168.156         33.9065         33.9065 
        1.04314         167.325         33.4332         33.4332 
        1.04929          166.07         32.9699         32.9699 
        1.05541         165.329         32.5173         32.5173 
        1.06154          163.57         32.0721         32.0721 
        1.06769         162.649         31.6346         31.6346 
        1.07382         161.299         31.2067         31.2067 
        1.07993         160.163         30.7876         30.7876 
        1.08607         159.744         30.3746         30.3746 
        1.09222         158.029         29.9687         29.9687 
        1.09836         157.357         29.5707         29.5707 
        1.10449          156.41         29.1804         29.1804 
        1.11063         154.988         28.7967         28.7967 
        1.11677         154.064         28.4201         28.4201 
         1.1229         153.524         28.0509         28.0509 
        1.12903         151.822         27.6879         27.6879 
        1.13518         151.017         27.3311         27.3311 
        1.14131         150.448         26.9807         26.9807 
        1.14745         148.808         26.6367         26.6367 
        1.15359         148.019         26.2986         26.2986 
        1.15973         147.454         25.9662         25.9662 
        1.16584         146.427         25.6411         25.6411 
        1.17197         145.779         25.3211         25.3211 
        1.17811         144.377         25.0055         25.0055 
        1.18424         143.544         24.6963         24.6963 
        1.19038         142.937         24.3914         24.3914 
        1.19652         141.355         24.0918         24.0918 
        1.20267         140.712         23.7972         23.7972 
        1.20881         139.706         23.5076         23.5076 
        1.21495         139.531         23.2232         23.2232 
        1.22108         138.268         22.9436         22.9436 
         1.2272         137.546         22.6693         22.6693 
        1.23334         136.514         22.3988         22.3988 
        1.23949         135.871         22.1321         22.1321 
        1.24562         134.809         21.8705         21.8705 
        1.25174          134.49         21.6135         21.6135 
        1.25789         133.242         21.3598         21.3598 
        1.26402         132.667         21.1106         21.1106 
        1.27014          131.91          20.866          20.866 
        1.27628         131.289         20.6246         20.6246 
        1.28244         130.119         20.3865         20.3865 
        1.28858         129.439         20.1525         20.1525 
        1.29471         128.429         19.9226         19.9226 
        1.30084         127.809         19.6966         19.6966 
        1.30697         126.903         19.4737         19.4737 
        1.31312         126.352          19.254          19.254 
        1.31925         125.226         19.0383         19.0383 
        1.32537         124.852         18.8261         18.8261 
        1.33151         123.942         18.6165         18.6165 
        1.33765         123.295         18.4101         18.4101 
        1.34378           122.9         18.2073         18.2073 
        1.34992         121.842         18.0074         18.0074 
        1.35606         121.338           17.81           17.81 
         1.3622         120.501          17.616          17.616 
        1.36833         119.693         17.4253         17.4253 
        1.37445         119.296         17.2375         17.2375 
        1.38059         118.305         17.0519         17.0519 
        1.38675         117.681         16.8686         16.8686 
        1.39288         116.906         16.6887         16.6887 
        1.39901         116.063         16.5116         16.5116 
        1.40515         115.646         16.3366         16.3366 
         1.4113         114.909         16.1642         16.1642 
        1.41742         114.395         15.9949         15.9949 
        1.42355          113.75         15.8277         15.8277 
         1.4297         112.978         15.6625         15.6625 
        1.43585         112.462         15.4996         15.4996 
        1.44198         111.496         15.3397         15.3397 
        1.44809         111.087         15.1824         15.1824 
        1.45423         110.629         15.0266         15.0266 
        1.46036         109.721         14.8734         14.8734 
        1.46649         109.041         14.7222         14.7222 
        1.47263         108.477          14.573          14.573 
        1.47877          107.86         14.4259         14.4259 
        1.48491         107.208         14.2806         14.2806 
        1.49104         106.359         14.1376         14.1376 
        1.49718         105.932         13.9965         13.9965 
        1.50333         105.185          13.857          13.857 
        1.50947         104.934         13.7198         13.7198 
         1.5156         104.073         13.5846         13.5846 
        1.52172         103.421         13.4512         13.4512 
        1.52787         103.149         13.3193         13.3193 
          1.534         102.511         13.1894         13.1894 
        1.54013         101.691         13.0613         13.0613 
        1.54627         101.218         12.9347         12.9347 
        1.55241         100.837         12.8097         12.8097 
        1.55855           100.1         12.6866         12.6866 
        1.56467          99.597         12.5654         12.5654 
         1.5708         98.6825         12.4455         12.4455 
        1.57695         98.5326         12.3269         12.3269 
        1.58308         97.7723         12.2102         12.2102 
        1.58922         97.3328         12.0948         12.0948 
        1.59535          96.994          11.981          11.981 
         1.6015         96.1585         11.8686         11.8686 
        1.60764         95.6242         11.7576         11.7576 
        1.61376         95.2926         11.6483         11.6483 
        1.61989         94.7745         11.5403         11.5403 
        1.62604          94.098         11.4335         11.4335 
        1.63218          93.615         11.3281         11.3281 
        1.63831         93.0005         11.2242         11.2242 
        1.64444         92.3861         11.1216         11.1216 
        1.65059         92.0215           11.02           11.02 
        1.65673         91.7524         10.9198         10.9198 
        1.66285         91.3233         10.8212         10.8212 
        1.66898         90.5091         10.7237         10.7237 
        1.67512         89.7775         10.6272         10.6272 
        1.68127         89.6717         10.5318         10.5318 
         1.6874         89.0845         10.4378         10.4378 
        1.69353         88.5101          10.345          10.345 
        1.69967         87.9864         10.2531         10.2531 
        1.70581          87.628         10.1624         10.1624 
        1.71193         87.0862         10.0731         10.0731 
        1.71806          86.391         9.98467         9.98467 
        1.72421         85.9601         9.89714         9.89714 
        1.73035         85.5383         9.81075         9.81075 
        1.73649         85.1399         9.72541         9.72541 
        1.74262         84.6808         9.64115         9.64115 
        1.74876         84.0068         9.55783         9.55783 
        1.75489         83.9059         9.47566         9.47566 
        1.76101         83.4286         9.39448         9.39448 
        1.76715         82.7404         9.31414         9.31414 
        1.77329         82.2873         9.23464         9.23464 
        1.77943         81.8749         9.15603         9.15603 
        1.78557          81.561         9.07845         9.07845 
        1.79171          80.976         9.00176         9.00176 
        1.79785         80.4891         8.92593         8.92593 
        1.80399         80.1021         8.85098         8.85098 
        1.81012         79.5195           8.777           8.777 
        1.81625          79.155         8.70389         8.70389 
        1.82239         78.8005          8.6315          8.6315 
        1.82853          78.209         8.55996         8.55996 
        1.83466         77.6944         8.48931         8.48931 
        1.84078         77.5596         8.41952         8.41952 
        1.84692         77.2267          8.3504          8.3504 
        1.85306         76.7989         8.28197         8.28197 
         1.8592         76.4155         8.21442         8.21442 
        1.86533         75.8794         8.14765         8.14765 
        1.87147         75.4367         8.08155         8.08155 
        1.87761         74.8647         8.01615         8.01615 
