# k  (h/Mpc)    P(k)  (Mpc/h)^3    P_linear(k)  (Mpc/h)^3     P_NL(k)  ShotnoiseSubtracted = false
     0.00783031         7094.03          7139.2          7139.2 
       0.013688         8154.88         8308.78         8308.78 
       0.019231         7937.41         8012.16         8012.16 
      0.0249154         7102.68         7072.87         7072.87 
      0.0312784         5846.87         5858.98         5858.98 
      0.0375637         4807.59          4839.8          4839.8 
      0.0433917          4165.2         4156.81         4156.81 
      0.0492413         3687.72         3698.95         3698.95 
      0.0555754         3382.04         3370.82         3370.82 
      0.0619321         3057.13         3112.04         3112.04 
       0.067871          2847.2         2863.63         2863.63 
      0.0738098         2582.76         2582.37         2582.37 
      0.0800417         2279.23         2264.95         2264.95 
      0.0862327         1972.69         1962.87         1962.87 
      0.0921407         1735.85          1718.8          1718.8 
      0.0982031         1563.19         1529.44         1529.44 
       0.104506         1407.99         1395.78         1395.78 
       0.110769         1324.75         1309.39         1309.39 
       0.116806         1276.23         1247.32         1247.32 
       0.122832         1200.61         1185.93         1185.93 
       0.129052         1128.78         1110.33         1110.33 
       0.135211         1056.26         1021.48         1021.48 
       0.141259         955.947         927.981         927.981 
       0.147318         862.262         838.869         838.869 
       0.153489         793.627         761.967         761.967 
       0.159709         746.663         702.926         702.926 
       0.165845         688.442         661.613         661.613 
       0.171974          674.55          632.06          632.06 
       0.178125          648.34         607.487         607.487 
       0.184229         608.855           582.3           582.3 
        0.19034         588.417         552.977         552.977 
       0.196428         559.271         519.505         519.505 
       0.202534         513.702         483.967         483.967 
       0.208729         494.022         449.294         449.294 
       0.214876         467.612         419.138         419.138 
       0.220989         434.499         394.737         394.737 
       0.227147         423.314         375.578         375.578 
        0.23329         407.394         360.425         360.425 
       0.239377          398.48         347.323         347.323 
       0.245482          378.79         334.304         334.304 
       0.251667         361.982         320.137         320.137 
       0.257832         354.827         304.838         304.838 
       0.263955         332.706         289.094         289.094 
       0.270079         317.571         273.767         273.767 
        0.27624         302.525         259.662         259.662 
       0.282372         292.939         247.468         247.468 
        0.28843         289.461         237.233         237.233 
       0.294538         275.131         228.385         228.385 
       0.300721         264.925         220.334         220.334 
        0.30691         260.168         212.602         212.602 
       0.313033         248.109         204.867         204.867 
       0.319153         243.086         196.936         196.936 
       0.325316         235.239         188.859         188.859 
        0.33145         227.677         180.998         180.998 
       0.337538         219.061         173.632         173.632 
       0.343633         211.674         166.895         166.895 
       0.349808           205.2         160.746         160.746 
       0.355968         200.187         155.226         155.226 
       0.362074         194.717         150.183         150.183 
       0.368217         191.104         145.361         145.361 
       0.374374         186.095         140.644         140.644 
       0.380519         178.201         135.967         135.967 
       0.386598         174.569         131.395         131.395 
       0.392688         169.163         126.917         126.917 
        0.39888         165.567         122.548         122.548 
       0.405048         161.461         118.452         118.452 
       0.411186         158.996         114.649         114.649 
       0.417313         155.046          111.11          111.11 
       0.423458         150.982         107.783         107.783 
       0.429607         147.175         104.615         104.615 
       0.435692         144.584         101.586         101.586 
       0.441815         140.782         98.6209         98.6209 
       0.447964         136.214         95.7142         95.7142 
       0.454126         133.744          92.876          92.876 
       0.460267         132.269         90.1455         90.1455 
       0.466387         128.912         87.5428         87.5428 
        0.47254         127.242         85.0502         85.0502 
       0.478662         122.853         82.6905         82.6905 
       0.484765          120.97         80.4526         80.4526 
       0.490885         118.448         78.3072         78.3072 
       0.497035         117.126         76.2311         76.2311 
       0.503198          114.82         74.2151         74.2151 
       0.509342         111.736         72.2643         72.2643 
       0.515458         109.956         70.3825         70.3825 
       0.521598         107.159         68.5543         68.5543 
       0.527764         106.072         66.7813         66.7813 
       0.533884         105.128         65.0858         65.0858 
           0.54         102.167          63.457          63.457 
       0.546137         99.7034         61.8878         61.8878 
       0.552299         98.1129         60.3719         60.3719 
       0.558452         96.3005         58.9116         58.9116 
       0.564573         95.7038         57.5049         57.5049 
       0.570708         92.9638         56.1369         56.1369 
       0.576825          91.866         54.8145         54.8145 
       0.582926         90.7735         53.5366         53.5366 
       0.589034         89.0542         52.2978         52.2978 
       0.595184         87.8628          51.091          51.091 
       0.601379         85.8931         49.9151         49.9151 
       0.607522         84.1662         48.7865         48.7865 
       0.613639         83.4202         47.6985         47.6985 
       0.619772         81.9089         46.6419         46.6419 
       0.625918         81.1433          45.616          45.616 
       0.632068         79.4295         44.6209         44.6209 
       0.638161         78.2074         43.6645         43.6645 
         0.6443         77.6929         42.7292         42.7292 
       0.650464         75.8689         41.8175         41.8175 
       0.656582         75.5348         40.9386         40.9386 
       0.662703         74.3868         40.0845         40.0845 
       0.668861           72.74         39.2498         39.2498 
       0.675024         72.5561         38.4384         38.4384 
       0.681124         71.3355         37.6583         37.6583 
       0.687237         70.0422         36.8987         36.8987 
       0.693381         69.3593         36.1568         36.1568 
       0.699536         68.4929         35.4343         35.4343 
       0.705665         67.4955         34.7349         34.7349 
       0.711789          66.443         34.0551         34.0551 
       0.717957         65.5453          33.389          33.389 
        0.72409         64.8712         32.7444         32.7444 
       0.730186         64.4764         32.1208         32.1208 
       0.736317         63.3562           31.51           31.51 
       0.742472         62.3636         30.9128         30.9128 
       0.748622         61.3961         30.3317         30.3317 
        0.75476         61.0395         29.7668         29.7668 
       0.760888         60.6434         29.2171         29.2171 
       0.767043         59.3392         28.6792         28.6792 
       0.773185          58.514          28.156          28.156 
       0.779291         57.8705         27.6489         27.6489 
       0.785407          57.175         27.1536         27.1536 
       0.791564         56.9808         26.6673         26.6673 
       0.797719         55.9795         26.1933         26.1933 
       0.803834         55.5996         25.7338         25.7338 
       0.809972         55.0304         25.2837         25.2837 
       0.816124         54.2794         24.8435         24.8435 
       0.822261         53.5047         24.4149         24.4149 
       0.828378         53.3564         23.9978         23.9978 
       0.834502         52.5894         23.5901         23.5901 
       0.840667         52.1415         23.1893         23.1893 
       0.846816         51.5423         22.7989         22.7989 
       0.852925         50.9188           22.42           22.42 
       0.859047         50.7105          22.049          22.049 
       0.865192         49.8811         21.6852         21.6852 
       0.871341         49.3404         21.3294         21.3294 
       0.877463         48.8846         20.9832         20.9832 
       0.883569         48.7354         20.6455         20.6455 
       0.889708         48.1623         20.3136         20.3136 
       0.895864         47.7413         19.9882         19.9882 
       0.902008          47.177         19.6706         19.6706 
       0.908149         46.6019         19.3601         19.3601 
       0.914301         46.2795         19.0558         19.0558 
       0.920448         46.1293         18.7584         18.7584 
       0.926574         45.1845         18.4684         18.4684 
       0.932687         44.9064         18.1851         18.1851 
       0.938823         44.4617         17.9068         17.9068 
       0.944975         43.9165         17.6337         17.6337 
       0.951105          43.598         17.3672         17.3672 
       0.957225         43.3407         17.1067         17.1067 
       0.963368         42.8969         16.8507         16.8507 
       0.969511         42.5178         16.5999         16.5999 
       0.975621         42.1372         16.3556         16.3556 
       0.981748         41.7186         16.1156         16.1156 
       0.987916         41.3496         15.8788         15.8788 
        0.99406         41.0871         15.6478         15.6478 
        1.00019         40.6118         15.4218         15.4218 
        1.00632         40.2965         15.2004         15.2004 
        1.01246         39.9777         14.9831         14.9831 
        1.01859         39.7177         14.7704         14.7704 
        1.02471         39.2715         14.5621         14.5621 
        1.03085         38.9795         14.3571         14.3571 
        1.03698         38.7375         14.1565         14.1565 
        1.04314         38.3909         13.9588         13.9588 
        1.04929         37.9387         13.7654         13.7654 
        1.05541         37.8273         13.5765         13.5765 
        1.06154         37.4994         13.3906         13.3906 
        1.06769          37.028         13.2079         13.2079 
        1.07382         36.7703         13.0292         13.0292 
        1.07993         36.5761         12.8543         12.8543 
        1.08607         36.2469         12.6818         12.6818 
        1.09222         36.0439         12.5124         12.5124 
        1.09836          35.726         12.3462         12.3462 
        1.10449         35.5198         12.1832         12.1832 
        1.11063         35.1468         12.0231         12.0231 
        1.11677         35.0495         11.8658         11.8658 
         1.1229         34.6617         11.7117         11.7117 
        1.12903         34.4508         11.5601         11.5601 
        1.13518         34.3308         11.4111         11.4111 
        1.14131         33.9631         11.2648         11.2648 
        1.14745         33.6706         11.1212         11.1212 
        1.15359          33.288           10.98           10.98 
        1.15973         33.2544         10.8413         10.8413 
        1.16584         32.9705         10.7055         10.7055 
        1.17197          32.596         10.5719         10.5719 
        1.17811         32.4419         10.4402         10.4402 
        1.18424         31.9744         10.3111         10.3111 
        1.19038          31.881         10.1838         10.1838 
        1.19652         31.7128         10.0587         10.0587 
        1.20267         31.4871         9.93567         9.93567 
        1.20881         31.2524         9.81475         9.81475 
        1.21495         31.1466         9.69604         9.69604 
        1.22108         31.0169          9.5793          9.5793 
         1.2272         30.6549         9.46477         9.46477 
        1.23334         30.4943         9.35184         9.35184 
        1.23949         30.2855         9.24048         9.24048 
        1.24562         30.0484         9.13125         9.13125 
        1.25174         29.8416         9.02394         9.02394 
        1.25789          29.724         8.91802         8.91802 
        1.26402         29.5114         8.81399         8.81399 
        1.27014         29.3774         8.71187         8.71187 
        1.27628         29.0471         8.61106         8.61106 
        1.28244         29.0488         8.51165         8.51165 
        1.28858         28.7284         8.41394         8.41394 
        1.29471         28.4901         8.31798         8.31798 
        1.30084         28.2841         8.22361         8.22361 
        1.30697         28.2493         8.13056         8.13056 
        1.31312         27.9835         8.03881         8.03881 
        1.31925         27.7571         7.94876         7.94876 
        1.32537         27.5858         7.86019         7.86019 
        1.33151          27.381         7.77264         7.77264 
        1.33765         27.3263         7.68648         7.68648 
        1.34378         27.1914          7.6018          7.6018 
        1.34992          26.921         7.51833         7.51833 
        1.35606         26.7186         7.43593         7.43593 
         1.3622         26.6173         7.35492         7.35492 
        1.36833         26.5266          7.2753          7.2753 
        1.37445         26.2538         7.19691         7.19691 
        1.38059         26.1265         7.11942         7.11942 
        1.38675         25.9401         7.04289         7.04289 
        1.39288         25.8223         6.96779         6.96779 
        1.39901         25.6236         6.89382         6.89382 
        1.40515         25.5104         6.82075         6.82075 
         1.4113          25.449         6.74877         6.74877 
        1.41742         25.2587          6.6781          6.6781 
        1.42355         25.0136         6.60831         6.60831 
         1.4297         24.9487         6.53931         6.53931 
        1.43585          24.776         6.47132         6.47132 
        1.44198         24.6243         6.40455         6.40455 
        1.44809         24.4399         6.33885         6.33885 
        1.45423          24.354         6.27383         6.27383 
        1.46036         24.2623         6.20984         6.20984 
        1.46649         24.0705         6.14672         6.14672 
        1.47263         23.9157         6.08442         6.08442 
        1.47877         23.7878         6.02301         6.02301 
        1.48491          23.671         5.96236         5.96236 
        1.49104         23.4891         5.90266         5.90266 
        1.49718         23.4705         5.84373         5.84373 
        1.50333         23.3342         5.78552         5.78552 
        1.50947          23.115         5.72821         5.72821 
         1.5156         23.0555         5.67176         5.67176 
        1.52172         22.8829         5.61607         5.61607 
        1.52787         22.8273         5.56101         5.56101 
          1.534         22.6208         5.50676         5.50676 
        1.54013         22.6317         5.45328         5.45328 
        1.54627         22.4056         5.40042         5.40042 
        1.55241         22.2881         5.34824         5.34824 
        1.55855         22.1952         5.29683         5.29683 
        1.56467         22.0531         5.24624         5.24624 
         1.5708         21.9615         5.19616         5.19616 
        1.57695         21.8787         5.14666         5.14666 
        1.58308         21.6627         5.09792         5.09792 
        1.58922          21.569         5.04977         5.04977 
        1.59535         21.4776         5.00226         5.00226 
         1.6015         21.4261          4.9553          4.9553 
        1.60764         21.2414         4.90896         4.90896 
        1.61376          21.131         4.86334         4.86334 
        1.61989         20.9769         4.81826         4.81826 
        1.62604         20.8847         4.77365         4.77365 
        1.63218         20.7786         4.72963         4.72963 
        1.63831          20.699         4.68627         4.68627 
        1.64444         20.5916         4.64343         4.64343 
        1.65059         20.4731         4.60103         4.60103 
        1.65673         20.3921         4.55919         4.55919 
        1.66285         20.3066           4.518           4.518 
        1.66898         20.1655          4.4773          4.4773 
        1.67512         20.1264         4.43702         4.43702 
        1.68127         19.9845         4.39719         4.39719 
         1.6874         19.8881         4.35795         4.35795 
        1.69353         19.7952          4.3192          4.3192 
        1.69967         19.6901         4.28083         4.28083 
        1.70581          19.583         4.24295         4.24295 
        1.71193         19.4798         4.20566         4.20566 
        1.71806         19.4195         4.16875         4.16875 
        1.72421         19.3152          4.1322          4.1322 
        1.73035         19.1996         4.09613         4.09613 
        1.73649         19.0798          4.0605          4.0605 
        1.74262         18.9801         4.02532         4.02532 
        1.74876         18.9529         3.99053         3.99053 
        1.75489         18.8113         3.95623         3.95623 
        1.76101         18.7413         3.92233         3.92233 
        1.76715         18.6469         3.88879         3.88879 
        1.77329         18.5107          3.8556          3.8556 
        1.77943         18.4755         3.82278         3.82278 
        1.78557          18.413         3.79039         3.79039 
        1.79171         18.3065         3.75836         3.75836 
        1.79785         18.2034          3.7267          3.7267 
        1.80399         18.0878         3.69542         3.69542 
        1.81012         18.0633         3.66453         3.66453 
        1.81625         17.9072           3.634           3.634 
        1.82239         17.8403         3.60378         3.60378 
        1.82853         17.7622         3.57391         3.57391 
        1.83466         17.6748         3.54441         3.54441 
        1.84078         17.5834         3.51527         3.51527 
        1.84692         17.5258         3.48642         3.48642 
        1.85306         17.4222         3.45785         3.45785 
         1.8592         17.3957         3.42964         3.42964 
        1.86533         17.2757         3.40176         3.40176 
        1.87147         17.1666         3.37416         3.37416 
        1.87761         17.0888         3.34686         3.34686 
