# k  (h/Mpc)    P(k)  (Mpc/h)^3    P_linear(k)  (Mpc/h)^3     P_NL(k)  ShotnoiseSubtracted = false
     0.00783031         571.809         576.516         576.516 
       0.013688         665.477          671.66          671.66 
       0.019231         645.653         647.902         647.902 
      0.0249154         572.579         572.044         572.044 
      0.0312784         474.396         473.915         473.915 
      0.0375637         391.489           391.5           391.5 
      0.0433917         337.201         336.264         336.264 
      0.0492413         299.409         299.233         299.233 
      0.0555754         273.388         272.694         272.694 
      0.0619321         250.581         251.763         251.763 
       0.067871          231.46         231.669         231.669 
      0.0738098         208.933         208.917         208.917 
      0.0800417         183.659         183.238         183.238 
      0.0862327         159.038         158.801         158.801 
      0.0921407         139.227         139.055         139.055 
      0.0982031         124.304         123.736         123.736 
       0.104506         112.845         112.923         112.923 
       0.110769         105.894         105.934         105.934 
       0.116806         101.198         100.913         100.913 
       0.122832          95.829         95.9456         95.9456 
       0.129052         89.9459         89.8297         89.8297 
       0.135211          82.962         82.6417         82.6417 
       0.141259          75.218         75.0774         75.0774 
       0.147318         67.8484          67.868          67.868 
       0.153489         61.8185         61.6463         61.6463 
       0.159709         57.1632         56.8697         56.8697 
       0.165845         53.4463         53.5274         53.5274 
       0.171974         51.4573         51.1364         51.1364 
       0.178125         49.3668         49.1483         49.1483 
       0.184229         47.1451         47.1106         47.1106 
        0.19034          45.004         44.7383         44.7383 
       0.196428         42.2525         42.0303         42.0303 
       0.202534         39.1195         39.1552         39.1552 
       0.208729         36.5869           36.35           36.35 
       0.214876         34.2993         33.9102         33.9102 
       0.220989         32.0529         31.9361         31.9361 
       0.227147         30.7473         30.3861         30.3861 
        0.23329         29.5152         29.1601         29.1601 
       0.239377         28.4716         28.1001         28.1001 
       0.245482         27.3597         27.0468         27.0468 
       0.251667         26.0977         25.9006         25.9006 
       0.257832         25.0276         24.6629         24.6629 
       0.263955         23.6394         23.3891         23.3891 
       0.270079         22.3957          22.149          22.149 
        0.27624         21.1919         21.0079         21.0079 
       0.282372         20.2287         20.0214         20.0214 
        0.28843         19.5395         19.1933         19.1933 
       0.294538         18.7826         18.4775         18.4775 
       0.300721         18.0289         17.8261         17.8261 
        0.30691         17.5024         17.2005         17.2005 
       0.313033         16.8378         16.5747         16.5747 
       0.319153         16.3244         15.9331         15.9331 
       0.325316         15.4995         15.2796         15.2796 
        0.33145         14.8623         14.6437         14.6437 
       0.337538         14.2975         14.0477         14.0477 
       0.343633         13.7955         13.5026         13.5026 
       0.349808         13.2624         13.0051         13.0051 
       0.355968         12.7902         12.5586         12.5586 
       0.362074         12.4448         12.1506         12.1506 
       0.368217         12.0339         11.7604         11.7604 
       0.374374         11.7107         11.3788         11.3788 
       0.380519         11.2538         11.0004         11.0004 
       0.386598         10.8565         10.6305         10.6305 
       0.392688         10.4712         10.2683         10.2683 
        0.39888         10.1657         9.91472         9.91472 
       0.405048         9.84716          9.5834          9.5834 
       0.411186          9.5211         9.27568         9.27568 
       0.417313         9.23276         8.98933         8.98933 
       0.423458          8.9234         8.72021         8.72021 
       0.429607         8.72111         8.46388         8.46388 
       0.435692         8.49224         8.21882         8.21882 
       0.441815         8.20917         7.97893         7.97893 
       0.447964         7.92843         7.74377         7.74377 
       0.454126          7.7475         7.51414         7.51414 
       0.460267         7.56385         7.29323         7.29323 
       0.466387         7.33092         7.08266         7.08266 
        0.47254         7.14993           6.881           6.881 
       0.478662         6.93574         6.69009         6.69009 
       0.484765         6.75606         6.50902         6.50902 
       0.490885         6.55511         6.33545         6.33545 
       0.497035         6.36948         6.16749         6.16749 
       0.503198          6.2355         6.00438         6.00438 
       0.509342          6.0417         5.84656         5.84656 
       0.515458         5.91622         5.69431         5.69431 
       0.521598         5.77066          5.5464          5.5464 
       0.527764         5.65068         5.40295         5.40295 
       0.533884         5.46522         5.26578         5.26578 
           0.54         5.34883           5.134           5.134 
       0.546137         5.19496         5.00704         5.00704 
       0.552299         5.08455          4.8844          4.8844 
       0.558452         4.96065         4.76625         4.76625 
       0.564573          4.8538         4.65244         4.65244 
       0.570708         4.74175         4.54177         4.54177 
       0.576825         4.63628         4.43478         4.43478 
       0.582926         4.51938         4.33139         4.33139 
       0.589034         4.43219         4.23116         4.23116 
       0.595184         4.34801         4.13352         4.13352 
       0.601379         4.22911         4.03839         4.03839 
       0.607522         4.13406         3.94708         3.94708 
       0.613639         4.03331         3.85906         3.85906 
       0.619772         3.96214         3.77357         3.77357 
       0.625918         3.87425         3.69057         3.69057 
       0.632068         3.80039         3.61006         3.61006 
       0.638161         3.71399         3.53268         3.53268 
         0.6443         3.63397         3.45701         3.45701 
       0.650464         3.55658         3.38325         3.38325 
       0.656582         3.50049         3.31214         3.31214 
       0.662703         3.42819         3.24304         3.24304 
       0.668861         3.33754         3.17551         3.17551 
       0.675024         3.27587         3.10986         3.10986 
       0.681124           3.247         3.04675         3.04675 
       0.687237         3.16493         2.98529         2.98529 
       0.693381         3.08358         2.92527         2.92527 
       0.699536         3.04453         2.86682         2.86682 
       0.705665         2.98442         2.81023         2.81023 
       0.711789         2.91272         2.75524         2.75524 
       0.717957         2.85737         2.70135         2.70135 
        0.72409         2.81017          2.6492          2.6492 
       0.730186         2.77483         2.59874         2.59874 
       0.736317         2.70648         2.54932         2.54932 
       0.742472         2.66828         2.50101         2.50101 
       0.748622         2.62101         2.45399         2.45399 
        0.75476         2.55768         2.40829         2.40829 
       0.760888         2.52481         2.36382         2.36382 
       0.767043         2.45608          2.3203          2.3203 
       0.773185         2.42296         2.27797         2.27797 
       0.779291         2.39998         2.23694         2.23694 
       0.785407         2.34792         2.19687         2.19687 
       0.791564         2.30539         2.15753         2.15753 
       0.797719         2.26479         2.11917         2.11917 
       0.803834         2.22829           2.082           2.082 
       0.809972         2.18821         2.04558         2.04558 
       0.816124         2.15164         2.00997         2.00997 
       0.822261         2.11915         1.97529         1.97529 
       0.828378         2.08146         1.94155         1.94155 
       0.834502         2.04658         1.90856         1.90856 
       0.840667         2.01962         1.87613         1.87613 
       0.846816           1.981         1.84455         1.84455 
       0.852925         1.94726          1.8139          1.8139 
       0.859047         1.91639         1.78388         1.78388 
       0.865192         1.88587         1.75445         1.75445 
       0.871341         1.85914         1.72566         1.72566 
       0.877463         1.82402         1.69765         1.69765 
       0.883569         1.79818         1.67033         1.67033 
       0.889708         1.77366         1.64348         1.64348 
       0.895864         1.74607         1.61715         1.61715 
       0.902008         1.71266         1.59146         1.59146 
       0.908149         1.69074         1.56634         1.56634 
       0.914301         1.66796         1.54172         1.54172 
       0.920448         1.64506         1.51765         1.51765 
       0.926574         1.62519         1.49419         1.49419 
       0.932687          1.5977         1.47127         1.47127 
       0.938823         1.56594         1.44875         1.44875 
       0.944975         1.55046         1.42665         1.42665 
       0.951105         1.51779          1.4051          1.4051 
       0.957225         1.50174         1.38402         1.38402 
       0.963368         1.48306         1.36331         1.36331 
       0.969511         1.46332         1.34302         1.34302 
       0.975621         1.43665         1.32325         1.32325 
       0.981748         1.41008         1.30383         1.30383 
       0.987916         1.39425         1.28468         1.28468 
        0.99406         1.37949         1.26599         1.26599 
        1.00019         1.35947          1.2477          1.2477 
        1.00632         1.34491         1.22979         1.22979 
        1.01246         1.32383         1.21221         1.21221 
        1.01859         1.30597           1.195           1.195 
        1.02471         1.28285         1.17815         1.17815 
        1.03085         1.26632         1.16156         1.16156 
        1.03698         1.25198         1.14533         1.14533 
        1.04314         1.23458         1.12934         1.12934 
        1.04929         1.22119         1.11369         1.11369 
        1.05541         1.19926         1.09841         1.09841 
        1.06154         1.18775         1.08337         1.08337 
        1.06769         1.17431         1.06859         1.06859 
        1.07382         1.15573         1.05413         1.05413 
        1.07993          1.1402         1.03998         1.03998 
        1.08607         1.12839         1.02603         1.02603 
        1.09222         1.11052         1.01232         1.01232 
        1.09836         1.10159        0.998872        0.998872 
        1.10449         1.08082        0.985688        0.985688 
        1.11063         1.06804        0.972728        0.972728 
        1.11677         1.05701        0.960006        0.960006 
         1.1229         1.04009        0.947534        0.947534 
        1.12903         1.03134        0.935273        0.935273 
        1.13518         1.01578        0.923219        0.923219 
        1.14131         1.00436        0.911384        0.911384 
        1.14745        0.993807        0.899763        0.899763 
        1.15359        0.979924        0.888343        0.888343 
        1.15973        0.968594        0.877116        0.877116 
        1.16584        0.956424        0.866134        0.866134 
        1.17197        0.943084        0.855324        0.855324 
        1.17811        0.931668        0.844665        0.844665 
        1.18424        0.920942         0.83422         0.83422 
        1.19038        0.909159         0.82392         0.82392 
        1.19652        0.901107        0.813799        0.813799 
        1.20267        0.892361        0.803848        0.803848 
        1.20881        0.877525        0.794065        0.794065 
        1.21495        0.869137        0.784461        0.784461 
        1.22108        0.859671        0.775016        0.775016 
         1.2272        0.846536         0.76575         0.76575 
        1.23334        0.838983        0.756613        0.756613 
        1.23949         0.82992        0.747604        0.747604 
        1.24562        0.820266        0.738766        0.738766 
        1.25174        0.812273        0.730084        0.730084 
        1.25789        0.799768        0.721515        0.721515 
        1.26402        0.791812        0.713099        0.713099 
        1.27014        0.780617        0.704837        0.704837 
        1.27628        0.774713         0.69668         0.69668 
        1.28244        0.765608        0.688638        0.688638 
        1.28858        0.756014        0.680733        0.680733 
        1.29471        0.747228        0.672969        0.672969 
        1.30084        0.740183        0.665334        0.665334 
        1.30697        0.734315        0.657805        0.657805 
        1.31312        0.724999        0.650382        0.650382 
        1.31925        0.717219        0.643097        0.643097 
        1.32537        0.709739        0.635931        0.635931 
        1.33151        0.701239        0.628848        0.628848 
        1.33765        0.693993        0.621877        0.621877 
        1.34378        0.686078        0.615026        0.615026 
        1.34992        0.680791        0.608273        0.608273 
        1.35606        0.672056        0.601607        0.601607 
         1.3622         0.66581        0.595052        0.595052 
        1.36833        0.658787        0.588611        0.588611 
        1.37445        0.651562        0.582268        0.582268 
        1.38059        0.645105        0.575999        0.575999 
        1.38675        0.638147        0.569807        0.569807 
        1.39288         0.63176        0.563731        0.563731 
        1.39901        0.625082        0.557746        0.557746 
        1.40515        0.618266        0.551835        0.551835 
         1.4113        0.614566        0.546011        0.546011 
        1.41742        0.606435        0.540294        0.540294 
        1.42355        0.598696        0.534648        0.534648 
         1.4297        0.594772        0.529065        0.529065 
        1.43585        0.587743        0.523564        0.523564 
        1.44198        0.582694        0.518162        0.518162 
        1.44809        0.576383        0.512847        0.512847 
        1.45423        0.570791        0.507587        0.507587 
        1.46036        0.565438        0.502409        0.502409 
        1.46649        0.559164        0.497302        0.497302 
        1.47263        0.553568        0.492262        0.492262 
        1.47877        0.551272        0.487294        0.487294 
        1.48491        0.541844        0.482386        0.482386 
        1.49104        0.539562        0.477557        0.477557 
        1.49718        0.532133        0.472789        0.472789 
        1.50333        0.528231        0.468079        0.468079 
        1.50947        0.523508        0.463442        0.463442 
         1.5156        0.518218        0.458875        0.458875 
        1.52172        0.513745         0.45437         0.45437 
        1.52787        0.507834        0.449915        0.449915 
          1.534        0.504504        0.445526        0.445526 
        1.54013        0.499155        0.441199        0.441199 
        1.54627        0.494422        0.436923        0.436923 
        1.55241        0.489572        0.432702        0.432702 
        1.55855        0.485101        0.428542        0.428542 
        1.56467        0.480797        0.424449        0.424449 
         1.5708        0.476194        0.420397        0.420397 
        1.57695        0.471224        0.416392        0.416392 
        1.58308        0.466372        0.412449        0.412449 
        1.58922        0.463478        0.408553        0.408553 
        1.59535        0.458217         0.40471         0.40471 
         1.6015        0.454182         0.40091         0.40091 
        1.60764        0.450205        0.397161        0.397161 
        1.61376        0.445975         0.39347         0.39347 
        1.61989        0.442213        0.389823        0.389823 
        1.62604        0.437373        0.386214        0.386214 
        1.63218        0.434743        0.382653        0.382653 
        1.63831        0.430185        0.379144        0.379144 
        1.64444         0.42694        0.375678        0.375678 
        1.65059         0.42282        0.372248        0.372248 
        1.65673        0.418644        0.368863        0.368863 
        1.66285        0.415415         0.36553         0.36553 
        1.66898        0.412191        0.362237        0.362237 
        1.67512        0.407159        0.358978        0.358978 
        1.68127         0.40368        0.355757        0.355757 
         1.6874        0.401509        0.352581        0.352581 
        1.69353        0.397077        0.349447        0.349447 
        1.69967        0.394279        0.346342        0.346342 
        1.70581        0.391327        0.343277        0.343277 
        1.71193         0.38777        0.340261        0.340261 
        1.71806        0.384519        0.337274        0.337274 
        1.72421        0.380838        0.334317        0.334317 
        1.73035        0.376627        0.331399        0.331399 
        1.73649        0.375312        0.328516        0.328516 
        1.74262        0.370766         0.32567         0.32567 
        1.74876         0.36845        0.322856        0.322856 
        1.75489        0.365548         0.32008         0.32008 
        1.76101        0.361739        0.317338        0.317338 
        1.76715        0.359044        0.314624        0.314624 
        1.77329        0.356146        0.311939        0.311939 
        1.77943        0.353132        0.309283        0.309283 
        1.78557        0.351214        0.306663        0.306663 
        1.79171        0.348047        0.304072        0.304072 
        1.79785        0.344831         0.30151         0.30151 
        1.80399        0.341043        0.298979        0.298979 
        1.81012        0.339099         0.29648         0.29648 
        1.81625        0.336795         0.29401         0.29401 
        1.82239         0.33419        0.291565        0.291565 
        1.82853         0.33091        0.289149        0.289149 
        1.83466        0.328225        0.286762        0.286762 
        1.84078         0.32529        0.284405        0.284405 
        1.84692        0.323144         0.28207         0.28207 
        1.85306        0.320901        0.279758        0.279758 
         1.8592        0.317966        0.277476        0.277476 
        1.86533        0.315925        0.275221        0.275221 
        1.87147        0.312284        0.272988        0.272988 
        1.87761        0.310197        0.270779        0.270779 
