# k  (h/Mpc)    P(k)  (Mpc/h)^3    P_linear(k)  (Mpc/h)^3     P_NL(k)  ShotnoiseSubtracted = false
     0.00783031         939.603         947.122         947.122 
       0.013688         1092.02         1103.27         1103.27 
       0.019231          1059.9          1064.2          1064.2 
      0.0249154         940.924         939.577         939.577 
      0.0312784         779.054          778.39          778.39 
      0.0375637         642.611         643.022         643.022 
      0.0433917         553.894         552.297         552.297 
      0.0492413         491.626         491.474         491.474 
      0.0555754         449.195         447.883         447.883 
      0.0619321         411.034         413.505         413.505 
       0.067871         380.087         380.501         380.501 
      0.0738098         343.222         343.132         343.132 
      0.0800417         301.845         300.957         300.957 
      0.0862327         261.302         260.819         260.819 
      0.0921407         228.786         228.388         228.388 
      0.0982031         204.444         203.228         203.228 
       0.104506         185.377         185.467         185.467 
       0.110769         174.011         173.989         173.989 
       0.116806         166.479         165.742         165.742 
       0.122832         157.492         157.584         157.584 
       0.129052          147.91         147.539         147.539 
       0.135211         136.568         135.733         135.733 
       0.141259         123.763         123.309         123.309 
       0.147318         111.576         111.468         111.468 
       0.153489         101.755         101.249         101.249 
       0.159709         94.2113         93.4041         93.4041 
       0.165845          87.923         87.9147         87.9147 
       0.171974         84.8583         83.9876         83.9876 
       0.178125         81.3905         80.7224         80.7224 
       0.184229         77.6263         77.3756         77.3756 
        0.19034         74.2014         73.4793         73.4793 
       0.196428         69.7016         69.0316         69.0316 
       0.202534         64.4296         64.3094         64.3094 
       0.208729         60.4197         59.7021         59.7021 
       0.214876         56.7258         55.6949         55.6949 
       0.220989          52.908         52.4526         52.4526 
       0.227147         50.8759         49.9068         49.9068 
        0.23329         48.8523         47.8932         47.8932 
       0.239377         47.1645         46.1523         46.1523 
       0.245482         45.2744         44.4223         44.4223 
       0.251667         43.1593         42.5398         42.5398 
       0.257832          41.505         40.5068         40.5068 
       0.263955         39.1433         38.4148         38.4148 
       0.270079         37.1019         36.3781         36.3781 
        0.27624         35.1079         34.5039         34.5039 
       0.282372         33.5444         32.8836         32.8836 
        0.28843         32.4931         31.5235         31.5235 
       0.294538         31.2097         30.3478         30.3478 
       0.300721         29.9234         29.2781         29.2781 
        0.30691         29.1041         28.2506         28.2506 
       0.313033         27.9767         27.2227         27.2227 
       0.319153         27.1813         26.1689         26.1689 
       0.325316          25.782         25.0956         25.0956 
        0.33145         24.7258         24.0511         24.0511 
       0.337538         23.8046         23.0723         23.0723 
       0.343633         22.9887          22.177          22.177 
       0.349808         22.1035         21.3599         21.3599 
       0.355968           21.32         20.6265         20.6265 
       0.362074          20.784         19.9563         19.9563 
       0.368217         20.0984         19.3156         19.3156 
       0.374374         19.5787         18.6888         18.6888 
       0.380519         18.7877         18.0673         18.0673 
       0.386598         18.1281         17.4597         17.4597 
       0.392688         17.4871         16.8648         16.8648 
        0.39888         17.0105         16.2842         16.2842 
       0.405048         16.4943           15.74           15.74 
       0.411186         15.9496         15.2346         15.2346 
       0.417313          15.464         14.7643         14.7643 
       0.423458         14.9481         14.3223         14.3223 
       0.429607         14.6322         13.9013         13.9013 
       0.435692         14.2729         13.4988         13.4988 
       0.441815         13.7677         13.1048         13.1048 
       0.447964         13.2886         12.7185         12.7185 
       0.454126         13.0091         12.3414         12.3414 
       0.460267         12.7324         11.9786         11.9786 
       0.466387         12.3341         11.6327         11.6327 
        0.47254         12.0514         11.3015         11.3015 
       0.478662         11.6784         10.9879         10.9879 
       0.484765         11.3795         10.6906         10.6906 
       0.490885         11.0349         10.4055         10.4055 
       0.497035         10.7394         10.1296         10.1296 
       0.503198         10.5191         9.86173         9.86173 
       0.509342         10.1868         9.60251         9.60251 
       0.515458         9.99063         9.35246         9.35246 
       0.521598         9.74729         9.10953         9.10953 
       0.527764         9.55658         8.87393         8.87393 
       0.533884         9.24357         8.64863         8.64863 
           0.54         9.05345          8.4322          8.4322 
       0.546137         8.78023         8.22367         8.22367 
       0.552299         8.60201         8.02225         8.02225 
       0.558452         8.39111          7.8282          7.8282 
       0.564573          8.2258         7.64127         7.64127 
       0.570708         8.03365          7.4595          7.4595 
       0.576825         7.86438         7.28377         7.28377 
       0.582926         7.67166         7.11397         7.11397 
       0.589034         7.51861         6.94935         6.94935 
       0.595184         7.38974         6.78899         6.78899 
       0.601379         7.18052         6.63274         6.63274 
       0.607522         7.02677         6.48278         6.48278 
       0.613639         6.86017          6.3382          6.3382 
       0.619772         6.73878          6.1978          6.1978 
       0.625918         6.58811         6.06148         6.06148 
       0.632068         6.47757         5.92924         5.92924 
       0.638161         6.32858         5.80216         5.80216 
         0.6443         6.19583         5.67787         5.67787 
       0.650464         6.05377         5.55673         5.55673 
       0.656582         5.97285         5.43994         5.43994 
       0.662703         5.85834         5.32644         5.32644 
       0.668861         5.69772         5.21553         5.21553 
       0.675024         5.59283         5.10771         5.10771 
       0.681124         5.55738         5.00405         5.00405 
       0.687237         5.41688         4.90311         4.90311 
       0.693381         5.27351         4.80453         4.80453 
       0.699536         5.21577         4.70853         4.70853 
       0.705665         5.11009         4.61559         4.61559 
       0.711789         4.99073         4.52526         4.52526 
       0.717957         4.88856         4.43675         4.43675 
        0.72409         4.82087          4.3511          4.3511 
       0.730186         4.76721         4.26822         4.26822 
       0.736317         4.64722         4.18706         4.18706 
       0.742472         4.58451         4.10771         4.10771 
       0.748622         4.50295         4.03049         4.03049 
        0.75476         4.38644         3.95542         3.95542 
       0.760888         4.33841         3.88239         3.88239 
       0.767043         4.22627         3.81091         3.81091 
       0.773185         4.16766         3.74139         3.74139 
       0.779291         4.13566           3.674           3.674 
       0.785407         4.04391         3.60818         3.60818 
       0.791564         3.97457         3.54357         3.54357 
       0.797719          3.9011         3.48057         3.48057 
       0.803834         3.84789         3.41952         3.41952 
       0.809972          3.7739         3.35971         3.35971 
       0.816124         3.71494         3.30121         3.30121 
       0.822261         3.65994         3.24427         3.24427 
       0.828378         3.59797         3.18884         3.18884 
       0.834502         3.54039         3.13466         3.13466 
       0.840667         3.49653          3.0814          3.0814 
       0.846816         3.42434         3.02953         3.02953 
       0.852925          3.3742         2.97919         2.97919 
       0.859047         3.32065         2.92988         2.92988 
       0.865192         3.26768         2.88154         2.88154 
       0.871341         3.21976         2.83426         2.83426 
       0.877463         3.16406         2.78825         2.78825 
       0.883569         3.12285         2.74339         2.74339 
       0.889708         3.07684         2.69929         2.69929 
       0.895864         3.03071         2.65604         2.65604 
       0.902008         2.97501         2.61384         2.61384 
       0.908149         2.93561         2.57258         2.57258 
       0.914301         2.89755         2.53215         2.53215 
       0.920448         2.85974         2.49263         2.49263 
       0.926574         2.82862         2.45409         2.45409 
       0.932687         2.77769         2.41645         2.41645 
       0.938823         2.72419         2.37946         2.37946 
       0.944975         2.70188         2.34317         2.34317 
       0.951105         2.64401         2.30776         2.30776 
       0.957225         2.62198         2.27315         2.27315 
       0.963368         2.58689         2.23913         2.23913 
       0.969511         2.55198         2.20581         2.20581 
       0.975621         2.50839         2.17334         2.17334 
       0.981748         2.46207         2.14144         2.14144 
       0.987916         2.43607         2.10999         2.10999 
        0.99406         2.41203         2.07928         2.07928 
        1.00019         2.37947         2.04925         2.04925 
        1.00632         2.35326         2.01984         2.01984 
        1.01246         2.31599         1.99096         1.99096 
        1.01859         2.28492          1.9627          1.9627 
        1.02471         2.24531         1.93502         1.93502 
        1.03085         2.22242         1.90778         1.90778 
        1.03698         2.19495         1.88112         1.88112 
        1.04314         2.16615         1.85486         1.85486 
        1.04929         2.13843         1.82916         1.82916 
        1.05541          2.1047         1.80405         1.80405 
        1.06154         2.08555         1.77935         1.77935 
        1.06769         2.06568         1.75507         1.75507 
        1.07382         2.02943         1.73133         1.73133 
        1.07993          2.0016         1.70808         1.70808 
        1.08607         1.98487         1.68517         1.68517 
        1.09222         1.95287         1.66265         1.66265 
        1.09836         1.94273         1.64057         1.64057 
        1.10449         1.90028         1.61892         1.61892 
        1.11063         1.88243         1.59763         1.59763 
        1.11677         1.86251         1.57674         1.57674 
         1.1229         1.83581         1.55625         1.55625 
        1.12903         1.82061         1.53611         1.53611 
        1.13518         1.79176         1.51631         1.51631 
        1.14131         1.77092         1.49688         1.49688 
        1.14745         1.75002         1.47779         1.47779 
        1.15359         1.72887         1.45903         1.45903 
        1.15973         1.70769         1.44059         1.44059 
        1.16584         1.69037         1.42256         1.42256 
        1.17197         1.66617          1.4048          1.4048 
        1.17811         1.64656          1.3873          1.3873 
        1.18424          1.6276         1.37014         1.37014 
        1.19038         1.60993         1.35322         1.35322 
        1.19652         1.59419          1.3366          1.3366 
        1.20267         1.57948         1.32026         1.32026 
        1.20881         1.55627         1.30419         1.30419 
        1.21495         1.54035         1.28842         1.28842 
        1.22108         1.52387          1.2729          1.2729 
         1.2272         1.50054         1.25768         1.25768 
        1.23334         1.49063         1.24268         1.24268 
        1.23949         1.47138         1.22788         1.22788 
        1.24562         1.45642         1.21337         1.21337 
        1.25174         1.44427         1.19911         1.19911 
        1.25789         1.42124         1.18503         1.18503 
        1.26402         1.40682         1.17121         1.17121 
        1.27014         1.38948         1.15764         1.15764 
        1.27628         1.37694         1.14424         1.14424 
        1.28244         1.36209         1.13103         1.13103 
        1.28858         1.34776         1.11805         1.11805 
        1.29471         1.32982          1.1053          1.1053 
        1.30084         1.31774         1.09276         1.09276 
        1.30697         1.30747         1.08039         1.08039 
        1.31312         1.29193          1.0682          1.0682 
        1.31925         1.27867         1.05624         1.05624 
        1.32537         1.26614         1.04447         1.04447 
        1.33151         1.25062         1.03283         1.03283 
        1.33765         1.23882         1.02138         1.02138 
        1.34378          1.2271         1.01013         1.01013 
        1.34992         1.21575         0.99904         0.99904 
        1.35606           1.202        0.988092        0.988092 
         1.3622         1.19111        0.977326        0.977326 
        1.36833         1.17628        0.966747        0.966747 
        1.37445          1.1636         0.95633         0.95633 
        1.38059         1.15285        0.946033        0.946033 
        1.38675         1.14165        0.935864        0.935864 
        1.39288         1.13328        0.925884        0.925884 
        1.39901         1.11844        0.916055        0.916055 
        1.40515         1.10738        0.906346        0.906346 
         1.4113         1.10062        0.896781        0.896781 
        1.41742         1.08556         0.88739         0.88739 
        1.42355         1.07441        0.878117        0.878117 
         1.4297         1.06651        0.868948        0.868948 
        1.43585         1.05535        0.859913        0.859913 
        1.44198         1.04542        0.851041        0.851041 
        1.44809          1.0361        0.842311        0.842311 
        1.45423         1.02545        0.833671        0.833671 
        1.46036         1.01689        0.825168        0.825168 
        1.46649         1.00362         0.81678         0.81678 
        1.47263        0.997513        0.808502        0.808502 
        1.47877        0.991533        0.800342        0.800342 
        1.48491        0.975213        0.792282        0.792282 
        1.49104        0.969812        0.784349        0.784349 
        1.49718         0.95886        0.776519        0.776519 
        1.50333        0.950735        0.768783        0.768783 
        1.50947        0.942427        0.761168        0.761168 
         1.5156        0.933543        0.753667        0.753667 
        1.52172        0.925709        0.746267        0.746267 
        1.52787        0.916935        0.738951        0.738951 
          1.534        0.909959        0.731741        0.731741 
        1.54013        0.900392        0.724636        0.724636 
        1.54627        0.892128        0.717611        0.717611 
        1.55241        0.883088        0.710678        0.710678 
        1.55855        0.876025        0.703847        0.703847 
        1.56467        0.868739        0.697124        0.697124 
         1.5708        0.860723        0.690469        0.690469 
        1.57695        0.851579        0.683892        0.683892 
        1.58308        0.843241        0.677415        0.677415 
        1.58922         0.83867        0.671017        0.671017 
        1.59535        0.828521        0.664704        0.664704 
         1.6015        0.821661        0.658464        0.658464 
        1.60764        0.815728        0.652306        0.652306 
        1.61376        0.806884        0.646244        0.646244 
        1.61989        0.800808        0.640254        0.640254 
        1.62604        0.792091        0.634326        0.634326 
        1.63218        0.788093        0.628477        0.628477 
        1.63831          0.7807        0.622715        0.622715 
        1.64444        0.773599        0.617022        0.617022 
        1.65059        0.768274        0.611388        0.611388 
        1.65673        0.759301        0.605829        0.605829 
        1.66285        0.753461        0.600355        0.600355 
        1.66898        0.748317        0.594946        0.594946 
        1.67512        0.739288        0.589594        0.589594 
        1.68127        0.733662        0.584302        0.584302 
         1.6874         0.73019        0.579087        0.579087 
        1.69353        0.721989        0.573939        0.573939 
        1.69967        0.716746         0.56884         0.56884 
        1.70581        0.712516        0.563806        0.563806 
        1.71193        0.703363        0.558852        0.558852 
        1.71806        0.699393        0.553946        0.553946 
        1.72421        0.694049         0.54909         0.54909 
        1.73035        0.685466        0.544297        0.544297 
        1.73649        0.683397        0.539562        0.539562 
        1.74262         0.67584        0.534887        0.534887 
        1.74876        0.670986        0.530265        0.530265 
        1.75489        0.665854        0.525706        0.525706 
        1.76101        0.658659        0.521203        0.521203 
        1.76715        0.654819        0.516746        0.516746 
        1.77329        0.649625        0.512335        0.512335 
        1.77943        0.644667        0.507974        0.507974 
        1.78557        0.640693         0.50367         0.50367 
        1.79171        0.635463        0.499414        0.499414 
        1.79785        0.630138        0.495207        0.495207 
        1.80399        0.623865         0.49105         0.49105 
        1.81012         0.61935        0.486945        0.486945 
        1.81625        0.614064        0.482889        0.482889 
        1.82239         0.60991        0.478873        0.478873 
        1.82853        0.605103        0.474904        0.474904 
        1.83466        0.599921        0.470984        0.470984 
        1.84078        0.595328        0.467112        0.467112 
        1.84692        0.590959        0.463278        0.463278 
        1.85306        0.587676        0.459481        0.459481 
         1.8592        0.581427        0.455733        0.455733 
        1.86533        0.578017        0.452029        0.452029 
        1.87147        0.572056        0.448362        0.448362 
        1.87761        0.568448        0.444733        0.444733 
