# k  (h/Mpc)    Pcb(k)  (Mpc/h)^3    Pcb_linear(k) (Mpc/h)^3    Pcb_NL(k) (Mpc/h)^3   ShotnoiseSubtracted = false
     0.00783031         2565.54         2584.41         2584.41 
       0.013688         2969.79         3009.45         3009.45 
       0.019231         2885.62         2902.53         2902.53 
      0.0249154         2569.46         2562.49         2562.49 
      0.0312784          2123.1         2122.81         2122.81 
      0.0375637         1749.07          1753.6          1753.6 
      0.0433917         1510.64         1506.17         1506.17 
      0.0492413         1339.44         1340.29         1340.29 
      0.0555754         1225.93          1221.4          1221.4 
      0.0619321         1116.49         1127.64         1127.64 
       0.067871         1035.53         1037.64         1037.64 
      0.0738098         936.362          935.73          935.73 
      0.0800417         824.612         820.714         820.714 
      0.0862327          713.49         711.257         711.257 
      0.0921407         625.395         622.818         622.818 
      0.0982031         560.399         554.203         554.203 
       0.104506         506.607          505.77          505.77 
       0.110769         475.976         474.467         474.467 
       0.116806         456.786         451.978         451.978 
       0.122832         430.995          429.73          429.73 
       0.129052         405.268         402.337         402.337 
       0.135211         375.688         370.143         370.143 
       0.141259         340.166         336.263         336.263 
       0.147318          306.39         303.973         303.973 
       0.153489          280.29         276.106         276.106 
       0.159709         260.804         254.712         254.712 
       0.165845          242.13         239.742         239.742 
       0.171974         235.305         229.033         229.033 
       0.178125         225.662         220.129         220.129 
       0.184229         214.215         211.003         211.003 
        0.19034         205.562         200.377         200.377 
       0.196428          193.71         188.248         188.248 
       0.202534         178.366         175.371         175.371 
       0.208729         168.782         162.807         162.807 
       0.214876         159.111         151.879         151.879 
       0.220989         147.787         143.038         143.038 
       0.227147         143.037         136.096         136.096 
        0.23329           137.5         130.604         130.604 
       0.239377         133.233         125.857         125.857 
       0.245482         127.408         121.139         121.139 
       0.251667         121.392         116.005         116.005 
       0.257832         117.758         110.461         110.461 
       0.263955         110.596         104.757         104.757 
       0.270079         105.046         99.2025         99.2025 
        0.27624         99.5642         94.0919         94.0919 
       0.282372         95.5047          89.673          89.673 
        0.28843         93.3413         85.9641         85.9641 
       0.294538         89.3579         82.7581         82.7581 
       0.300721         85.5469         79.8408         79.8408 
        0.30691         83.6309         77.0388         77.0388 
       0.313033          80.158         74.2361         74.2361 
       0.319153         78.2527         71.3621         71.3621 
       0.325316         74.4274         68.4351         68.4351 
        0.33145         71.4967         65.5869         65.5869 
       0.337538         68.9044         62.9179         62.9179 
       0.343633         66.6201         60.4762         60.4762 
       0.349808          64.184         58.2484         58.2484 
       0.355968         62.0796         56.2481         56.2481 
       0.362074         60.7428         54.4206         54.4206 
       0.368217         58.8751         52.6734         52.6734 
       0.374374         57.3868         50.9636         50.9636 
       0.380519          54.922         49.2693         49.2693 
       0.386598         53.1814         47.6124         47.6124 
       0.392688         51.3559           45.99           45.99 
        0.39888         50.2254         44.4067         44.4067 
       0.405048         48.8276         42.9226         42.9226 
       0.411186         47.3656         41.5444         41.5444 
       0.417313         45.9326         40.2619         40.2619 
       0.423458         44.5511         39.0566         39.0566 
       0.429607         43.6769         37.9084         37.9084 
       0.435692         42.8245         36.8109         36.8109 
       0.441815         41.1625         35.7365         35.7365 
       0.447964         39.7349         34.6831         34.6831 
       0.454126          39.003         33.6548         33.6548 
       0.460267         38.4391         32.6653         32.6653 
       0.466387         37.2718         31.7222         31.7222 
        0.47254         36.6111          30.819          30.819 
       0.478662         35.3461          29.964          29.964 
       0.484765         34.5426         29.1529         29.1529 
       0.490885         33.5041         28.3756         28.3756 
       0.497035         32.8927         27.6232         27.6232 
       0.503198         32.1532         26.8927         26.8927 
       0.509342         31.1835         26.1859         26.1859 
       0.515458         30.6755          25.504          25.504 
       0.521598         29.9156         24.8415         24.8415 
       0.527764          29.428          24.199          24.199 
       0.533884         28.6998         23.5846         23.5846 
           0.54         28.0641         22.9944         22.9944 
       0.546137         27.1743         22.4258         22.4258 
       0.552299         26.6678         21.8765         21.8765 
       0.558452         26.0397         21.3474         21.3474 
       0.564573         25.7116         20.8376         20.8376 
       0.570708         25.0184         20.3419         20.3419 
       0.576825         24.6406         19.8627         19.8627 
       0.582926          24.149         19.3996         19.3996 
       0.589034         23.6177         18.9508         18.9508 
       0.595184         23.2694         18.5134         18.5134 
       0.601379         22.6123         18.0873         18.0873 
       0.607522         22.1879         17.6784         17.6784 
       0.613639         21.7985         17.2841         17.2841 
       0.619772         21.3678         16.9013         16.9013 
       0.625918         20.9193         16.5295         16.5295 
       0.632068         20.6925         16.1689         16.1689 
       0.638161          20.216         15.8224         15.8224 
         0.6443         19.8718         15.4834         15.4834 
       0.650464         19.3499         15.1531         15.1531 
       0.656582          19.183         14.8346         14.8346 
       0.662703         18.8918         14.5251         14.5251 
       0.668861         18.3766         14.2227         14.2227 
       0.675024          18.092         13.9286         13.9286 
       0.681124         17.9797         13.6459         13.6459 
       0.687237         17.5747         13.3707         13.3707 
       0.693381         17.1739         13.1019         13.1019 
       0.699536          17.043         12.8401         12.8401 
       0.705665         16.6797         12.5866         12.5866 
       0.711789         16.3664         12.3403         12.3403 
       0.717957         15.9986         12.0989         12.0989 
        0.72409           15.84         11.8654         11.8654 
       0.730186         15.7257         11.6394         11.6394 
       0.736317         15.3598          11.418          11.418 
       0.742472         15.1608         11.2016         11.2016 
       0.748622         14.8801         10.9911         10.9911 
        0.75476          14.486         10.7864         10.7864 
       0.760888         14.4155         10.5872         10.5872 
       0.767043         14.1295         10.3923         10.3923 
       0.773185         13.9389         10.2027         10.2027 
       0.779291         13.7882         10.0189         10.0189 
       0.785407         13.5436         9.83944         9.83944 
       0.791564         13.4017         9.66324         9.66324 
       0.797719         13.0798         9.49145         9.49145 
       0.803834         13.0137         9.32495         9.32495 
       0.809972         12.7392         9.16187         9.16187 
       0.816124         12.5776         9.00234         9.00234 
       0.822261         12.4156         8.84705         8.84705 
       0.828378         12.2572          8.6959          8.6959 
       0.834502          12.099         8.54817         8.54817 
       0.840667         11.9564         8.40292         8.40292 
       0.846816         11.6784         8.26147         8.26147 
       0.852925         11.6123         8.12418         8.12418 
       0.859047         11.4407         7.98974         7.98974 
       0.865192         11.2639          7.8579          7.8579 
       0.871341         11.1079         7.72896         7.72896 
       0.877463         10.9532         7.60351         7.60351 
       0.883569         10.8633         7.48117         7.48117 
       0.889708         10.6675          7.3609          7.3609 
       0.895864         10.5214         7.24298         7.24298 
       0.902008         10.3865         7.12789         7.12789 
       0.908149         10.2244         7.01538         7.01538 
       0.914301         10.1481         6.90513         6.90513 
       0.920448          9.9927         6.79735         6.79735 
       0.926574         9.90626         6.69225         6.69225 
       0.932687         9.74042          6.5896          6.5896 
       0.938823         9.59724         6.48875         6.48875 
       0.944975         9.52762         6.38977         6.38977 
       0.951105         9.38831         6.29322         6.29322 
       0.957225          9.3166         6.19883         6.19883 
       0.963368          9.1534         6.10606         6.10606 
       0.969511         9.04896         6.01519         6.01519 
       0.975621         8.94915         5.92665         5.92665 
       0.981748         8.81707         5.83967         5.83967 
       0.987916         8.74459         5.75389         5.75389 
        0.99406         8.63165         5.67016         5.67016 
        1.00019         8.55287         5.58827         5.58827 
        1.00632         8.46958         5.50806         5.50806 
        1.01246         8.35533         5.42932         5.42932 
        1.01859          8.2488         5.35224         5.35224 
        1.02471         8.13665         5.27676         5.27676 
        1.03085         8.09251         5.20247         5.20247 
        1.03698         8.00087         5.12977         5.12977 
        1.04314         7.88738         5.05816         5.05816 
        1.04929         7.77277         4.98807         4.98807 
        1.05541         7.71603          4.9196          4.9196 
        1.06154          7.6363         4.85224         4.85224 
        1.06769         7.57028         4.78605         4.78605 
        1.07382         7.44049         4.72131         4.72131 
        1.07993         7.37358         4.65791         4.65791 
        1.08607         7.32113         4.59542         4.59542 
        1.09222         7.21555         4.53401         4.53401 
        1.09836         7.17702          4.4738          4.4738 
        1.10449         7.05882         4.41475         4.41475 
        1.11063         7.02631          4.3567          4.3567 
        1.11677         6.95459         4.29973         4.29973 
         1.1229         6.88273         4.24386         4.24386 
        1.12903         6.81074         4.18895         4.18895 
        1.13518         6.71786         4.13496         4.13496 
        1.14131         6.65848         4.08195         4.08195 
        1.14745         6.55745          4.0299          4.0299 
        1.15359         6.49359         3.97875         3.97875 
        1.15973         6.43677         3.92847         3.92847 
        1.16584         6.37901         3.87928         3.87928 
        1.17197         6.30511         3.83087         3.83087 
        1.17811         6.24569         3.78313         3.78313 
        1.18424         6.19484         3.73634         3.73634 
        1.19038         6.14851         3.69022         3.69022 
        1.19652         6.08399         3.64488         3.64488 
        1.20267         6.03272         3.60031         3.60031 
        1.20881         5.94583          3.5565          3.5565 
        1.21495         5.90456         3.51348         3.51348 
        1.22108         5.84845         3.47118         3.47118 
         1.2272         5.78905         3.42968         3.42968 
        1.23334         5.76228         3.38876         3.38876 
        1.23949         5.68881         3.34841         3.34841 
        1.24562         5.63608         3.30882         3.30882 
        1.25174          5.6012         3.26994         3.26994 
        1.25789         5.51304         3.23156         3.23156 
        1.26402         5.48518         3.19386         3.19386 
        1.27014         5.45029         3.15686         3.15686 
        1.27628         5.37435         3.12033         3.12033 
        1.28244         5.35043          3.0843          3.0843 
        1.28858         5.30031          3.0489          3.0489 
        1.29471         5.22779         3.01413         3.01413 
        1.30084         5.18174         2.97993         2.97993 
        1.30697         5.16391         2.94621         2.94621 
        1.31312          5.1037         2.91296         2.91296 
        1.31925         5.06077         2.88033         2.88033 
        1.32537         5.01803         2.84824         2.84824 
        1.33151         4.97244         2.81652         2.81652 
        1.33765         4.92559         2.78529         2.78529 
        1.34378         4.91267         2.75461         2.75461 
        1.34992         4.85239         2.72436         2.72436 
        1.35606         4.81152         2.69451         2.69451 
         1.3622         4.76474         2.66515         2.66515 
        1.36833         4.73281          2.6363          2.6363 
        1.37445         4.68907         2.60789         2.60789 
        1.38059         4.64259         2.57981         2.57981 
        1.38675         4.61059         2.55208         2.55208 
        1.39288         4.57152         2.52487         2.52487 
        1.39901         4.52487         2.49806         2.49806 
        1.40515         4.49291         2.47159         2.47159 
         1.4113         4.45492          2.4455          2.4455 
        1.41742         4.42952          2.4199          2.4199 
        1.42355         4.38147         2.39461         2.39461 
         1.4297         4.35033          2.3696          2.3696 
        1.43585          4.3246         2.34496         2.34496 
        1.44198         4.28269         2.32077         2.32077 
        1.44809         4.25122         2.29696         2.29696 
        1.45423         4.21231          2.2734          2.2734 
        1.46036         4.18772         2.25022         2.25022 
        1.46649         4.15342         2.22734         2.22734 
        1.47263         4.12498         2.20477         2.20477 
        1.47877         4.08997         2.18252         2.18252 
        1.48491         4.06553         2.16054         2.16054 
        1.49104         4.02628          2.1389          2.1389 
        1.49718         4.00561         2.11755         2.11755 
        1.50333         3.96844         2.09646         2.09646 
        1.50947         3.93168         2.07569         2.07569 
         1.5156         3.91397         2.05523         2.05523 
        1.52172         3.87912         2.03505         2.03505 
        1.52787         3.85651          2.0151          2.0151 
          1.534         3.82175         1.99544         1.99544 
        1.54013         3.80445         1.97607         1.97607 
        1.54627         3.76833         1.95691         1.95691 
        1.55241          3.7332           1.938           1.938 
        1.55855         3.71938         1.91938         1.91938 
        1.56467         3.69584         1.90104         1.90104 
         1.5708         3.65837          1.8829          1.8829 
        1.57695         3.62729         1.86496         1.86496 
        1.58308         3.59642          1.8473          1.8473 
        1.58922         3.58686         1.82985         1.82985 
        1.59535         3.55976         1.81263         1.81263 
         1.6015         3.51987         1.79562         1.79562 
        1.60764          3.5042         1.77882         1.77882 
        1.61376         3.48214         1.76229         1.76229 
        1.61989         3.44598         1.74596         1.74596 
        1.62604         3.43152         1.72979         1.72979 
        1.63218         3.40986         1.71384         1.71384 
        1.63831         3.38646         1.69813         1.69813 
        1.64444         3.35706         1.68261         1.68261 
        1.65059         3.33712         1.66724         1.66724 
        1.65673         3.31896         1.65208         1.65208 
        1.66285         3.29391         1.63715         1.63715 
        1.66898         3.27113         1.62241         1.62241 
        1.67512         3.24862         1.60781         1.60781 
        1.68127         3.22071         1.59338         1.59338 
         1.6874         3.20339         1.57916         1.57916 
        1.69353         3.17583         1.56512         1.56512 
        1.69967         3.16109         1.55122         1.55122 
        1.70581         3.13507         1.53749         1.53749 
        1.71193         3.11914         1.52398         1.52398 
        1.71806         3.09635          1.5106          1.5106 
        1.72421         3.07627         1.49736         1.49736 
        1.73035          3.0564         1.48429         1.48429 
        1.73649         3.03651         1.47137         1.47137 
        1.74262          3.0135         1.45863         1.45863 
        1.74876         3.00299         1.44602         1.44602 
        1.75489         2.97843         1.43359         1.43359 
        1.76101         2.95369         1.42131         1.42131 
        1.76715          2.9485         1.40915         1.40915 
        1.77329         2.92468         1.39713         1.39713 
        1.77943         2.89591         1.38523         1.38523 
        1.78557         2.89148          1.3735          1.3735 
        1.79171         2.86874         1.36189         1.36189 
        1.79785         2.85634         1.35042         1.35042 
        1.80399         2.82676         1.33908         1.33908 
        1.81012           2.817         1.32789         1.32789 
        1.81625         2.79461         1.31683         1.31683 
        1.82239         2.78183         1.30588         1.30588 
        1.82853         2.76067         1.29505         1.29505 
        1.83466         2.73541         1.28436         1.28436 
        1.84078         2.72209          1.2738          1.2738 
        1.84692         2.70591         1.26335         1.26335 
        1.85306           2.688           1.253           1.253 
         1.8592         2.67858         1.24277         1.24277 
        1.86533         2.66169         1.23267         1.23267 
        1.87147         2.64862         1.22267         1.22267 
