# k  (h/Mpc)    P(k)  (Mpc/h)^3    P_linear(k)  (Mpc/h)^3     P_NL(k)  ShotnoiseSubtracted = false
     0.00783031         14869.6         14950.3         14950.3 
       0.013688         16955.2         17387.4         17387.4 
       0.019231         16529.8         16763.1         16763.1 
      0.0249154         14867.5         14796.3         14796.3 
      0.0312784         12182.7         12256.1         12256.1 
      0.0375637         9998.72         10123.8         10123.8 
      0.0433917         8688.06         8694.91         8694.91 
      0.0492413         7682.53         7737.07         7737.07 
      0.0555754         7051.44         7050.63         7050.63 
      0.0619321          6327.6          6509.3          6509.3 
       0.067871         5910.08         5989.66         5989.66 
      0.0738098         5387.24         5401.35         5401.35 
      0.0800417         4761.44          4737.4          4737.4 
      0.0862327          4129.1         4105.56         4105.56 
      0.0921407         3657.31         3595.04         3595.04 
      0.0982031         3312.05         3198.97         3198.97 
       0.104506         2977.28          2919.4          2919.4 
       0.110769         2804.81          2738.7          2738.7 
       0.116806         2704.72         2608.88         2608.88 
       0.122832         2544.81         2480.46         2480.46 
       0.129052         2383.25         2322.34         2322.34 
       0.135211         2258.47          2136.5          2136.5 
       0.141259         2044.92         1940.94         1940.94 
       0.147318         1857.25         1754.56         1754.56 
       0.153489         1721.38         1593.71         1593.71 
       0.159709          1639.9         1470.22         1470.22 
       0.165845         1508.54         1383.81         1383.81 
       0.171974         1479.61            1322            1322 
       0.178125          1430.3          1270.6          1270.6 
       0.184229         1326.15         1217.92         1217.92 
        0.19034         1293.33         1156.59         1156.59 
       0.196428         1241.27         1086.58         1086.58 
       0.202534          1146.8         1012.25         1012.25 
       0.208729         1115.74         939.728         939.728 
       0.214876         1056.33         876.653         876.653 
       0.220989         993.549         825.618         825.618 
       0.227147         967.347         785.546         785.546 
        0.23329         930.266         753.851         753.851 
       0.239377         920.973         726.448         726.448 
       0.245482         874.064         699.218         699.218 
       0.251667         839.756         669.586         669.586 
       0.257832         824.118         637.587         637.587 
       0.263955         779.222         604.658         604.658 
       0.270079         750.388         572.599         572.599 
        0.27624         717.394         543.099         543.099 
       0.282372         703.038         517.595         517.595 
        0.28843         693.255         496.186         496.186 
       0.294538         658.006         477.681         477.681 
       0.300721           641.6         460.843         460.843 
        0.30691         627.693          444.67          444.67 
       0.313033         599.254         428.491         428.491 
       0.319153         590.016         411.903         411.903 
       0.325316         579.864         395.009         395.009 
        0.33145         564.818         378.568         378.568 
       0.337538         543.561         363.162         363.162 
       0.343633         528.387          349.07          349.07 
       0.349808         515.634         336.209         336.209 
       0.355968         505.405         324.665         324.665 
       0.362074         486.628         314.116         314.116 
       0.368217         483.902         304.031         304.031 
       0.374374         475.299         294.165         294.165 
       0.380519         455.824         284.383         284.383 
       0.386598         450.852         274.819         274.819 
       0.392688          439.02         265.455         265.455 
        0.39888         427.891         256.315         256.315 
       0.405048         418.272          247.75          247.75 
       0.411186         417.272         239.795         239.795 
       0.417313         411.157         232.392         232.392 
       0.423458         399.834         225.435         225.435 
       0.429607         387.633         218.808         218.808 
       0.435692          381.92         212.473         212.473 
       0.441815         375.101         206.271         206.271 
       0.447964         366.571         200.192         200.192 
       0.454126         362.375         194.255         194.255 
       0.460267         356.144         188.544         188.544 
       0.466387         348.599         183.101         183.101 
        0.47254         343.991         177.887         177.887 
       0.478662         336.419         172.952         172.952 
       0.484765         331.543         168.271         168.271 
       0.490885         328.223         163.784         163.784 
       0.497035         320.876         159.442         159.442 
       0.503198         319.938         155.225         155.225 
       0.509342         312.629         151.145         151.145 
       0.515458         306.745         147.209         147.209 
       0.521598         302.123         143.385         143.385 
       0.527764           297.6         139.677         139.677 
       0.533884         295.073         136.131         136.131 
           0.54         290.836         132.724         132.724 
       0.546137         284.391         129.442         129.442 
       0.552299         283.023         126.271         126.271 
       0.558452         278.077         123.217         123.217 
       0.564573         276.118         120.275         120.275 
       0.570708          271.08         117.413         117.413 
       0.576825         266.244         114.648         114.648 
       0.582926         264.691         111.975         111.975 
       0.589034         259.803         109.384         109.384 
       0.595184         257.953          106.86          106.86 
       0.601379         253.782           104.4           104.4 
       0.607522         248.106          102.04          102.04 
       0.613639         247.171         99.7641         99.7641 
       0.619772          246.01         97.5542         97.5542 
       0.625918         241.224         95.4084         95.4084 
       0.632068         238.658         93.3271         93.3271 
       0.638161         236.858         91.3267         91.3267 
         0.6443         233.437         89.3704         89.3704 
       0.650464         230.229         87.4636         87.4636 
       0.656582         227.849         85.6253         85.6253 
       0.662703         226.541         83.8389         83.8389 
       0.668861         221.853         82.0932         82.0932 
       0.675024         221.099          80.396          80.396 
       0.681124         217.918         78.7644         78.7644 
       0.687237         216.456         77.1756         77.1756 
       0.693381         212.758         75.6239         75.6239 
       0.699536         211.939         74.1128         74.1128 
       0.705665         209.319         72.6499         72.6499 
       0.711789         206.674         71.2282         71.2282 
       0.717957         205.076          69.835          69.835 
        0.72409          202.11         68.4868         68.4868 
       0.730186         203.166         67.1824         67.1824 
       0.736317         199.705         65.9048         65.9048 
       0.742472          197.43         64.6558         64.6558 
       0.748622         195.026         63.4404         63.4404 
        0.75476         194.912         62.2588         62.2588 
       0.760888          192.25         61.1092         61.1092 
       0.767043         189.414         59.9842         59.9842 
       0.773185         187.831         58.8899         58.8899 
       0.779291         185.989         57.8292         57.8292 
       0.785407         184.725         56.7932         56.7932 
       0.791564         183.231         55.7762         55.7762 
       0.797719         180.112         54.7846         54.7846 
       0.803834          180.87         53.8236         53.8236 
       0.809972         178.364         52.8823         52.8823 
       0.816124         175.494         51.9615         51.9615 
       0.822261         174.474         51.0651         51.0651 
       0.828378         173.811         50.1927         50.1927 
       0.834502         171.684           49.34           49.34 
       0.840667         171.547         48.5016         48.5016 
       0.846816         168.177         47.6852         47.6852 
       0.852925         167.912         46.8928         46.8928 
       0.859047         166.175         46.1167         46.1167 
       0.865192         165.533         45.3558         45.3558 
       0.871341         163.608         44.6115         44.6115 
       0.877463         162.151         43.8874         43.8874 
       0.883569         161.797         43.1813         43.1813 
       0.889708         160.216         42.4871         42.4871 
       0.895864         158.327         41.8064         41.8064 
       0.902008         156.908         41.1422         41.1422 
       0.908149         155.526         40.4928         40.4928 
       0.914301         154.394         39.8564         39.8564 
       0.920448         154.193         39.2343         39.2343 
       0.926574          152.07         38.6276         38.6276 
       0.932687         151.786         38.0352         38.0352 
       0.938823         150.345          37.453          37.453 
       0.944975         149.685         36.8817         36.8817 
       0.951105         147.926         36.3245         36.3245 
       0.957225          146.92         35.7796         35.7796 
       0.963368         146.325         35.2442         35.2442 
       0.969511         144.363         34.7196         34.7196 
       0.975621         142.725         34.2086         34.2086 
       0.981748         142.449         33.7066         33.7066 
       0.987916         141.677         33.2114         33.2114 
        0.99406          140.47         32.7282         32.7282 
        1.00019         139.712         32.2554         32.2554 
        1.00632         138.607         31.7925         31.7925 
        1.01246         137.553          31.338          31.338 
        1.01859         136.368         30.8931         30.8931 
        1.02471          135.37         30.4574         30.4574 
        1.03085         134.427         30.0286         30.0286 
        1.03698         133.628          29.609          29.609 
        1.04314         133.181         29.1956         29.1956 
        1.04929         132.232         28.7911         28.7911 
        1.05541         131.511         28.3959         28.3959 
        1.06154         130.013         28.0071         28.0071 
        1.06769         129.426          27.625          27.625 
        1.07382         128.589         27.2514         27.2514 
        1.07993         127.473         26.8854         26.8854 
        1.08607         127.212         26.5247         26.5247 
        1.09222         125.808         26.1703         26.1703 
        1.09836          125.19         25.8227         25.8227 
        1.10449         124.414         25.4819         25.4819 
        1.11063         123.228         25.1469         25.1469 
        1.11677         122.752          24.818          24.818 
         1.1229         121.804         24.4956         24.4956 
        1.12903         120.792         24.1786         24.1786 
        1.13518          119.97          23.867          23.867 
        1.14131         119.612          23.561          23.561 
        1.14745          118.47         23.2606         23.2606 
        1.15359         117.689         22.9653         22.9653 
        1.15973         117.239         22.6751         22.6751 
        1.16584         116.358         22.3912         22.3912 
        1.17197         115.863         22.1117         22.1117 
        1.17811         114.824         21.8362         21.8362 
        1.18424         114.106         21.5661         21.5661 
        1.19038         113.515         21.2999         21.2999 
        1.19652         112.658         21.0382         21.0382 
        1.20267         111.893          20.781          20.781 
        1.20881         111.057         20.5281         20.5281 
        1.21495         110.849         20.2798         20.2798 
        1.22108         109.898         20.0356         20.0356 
         1.2272         109.378         19.7961         19.7961 
        1.23334         108.695         19.5599         19.5599 
        1.23949         108.103          19.327          19.327 
        1.24562         107.183         19.0985         19.0985 
        1.25174         107.048         18.8741         18.8741 
        1.25789         105.971         18.6525         18.6525 
        1.26402         105.582         18.4349         18.4349 
        1.27014         104.727         18.2214         18.2214 
        1.27628         104.291         18.0105         18.0105 
        1.28244         103.681         17.8026         17.8026 
        1.28858         102.996         17.5982         17.5982 
        1.29471         102.293         17.3975         17.3975 
        1.30084          101.54         17.2001         17.2001 
        1.30697         100.949         17.0055         17.0055 
        1.31312         100.418         16.8136         16.8136 
        1.31925         99.5607         16.6253         16.6253 
        1.32537         99.1338           16.44           16.44 
        1.33151         98.8609         16.2569         16.2569 
        1.33765          98.017         16.0767         16.0767 
        1.34378         97.7588         15.8996         15.8996 
        1.34992         97.0533          15.725          15.725 
        1.35606         96.5784         15.5527         15.5527 
         1.3622         96.1539         15.3832         15.3832 
        1.36833         95.2602         15.2167         15.2167 
        1.37445          95.012         15.0527         15.0527 
        1.38059         94.3304         14.8907         14.8907 
        1.38675         93.7433         14.7306         14.7306 
        1.39288         93.1231         14.5735         14.5735 
        1.39901         92.6562         14.4188         14.4188 
        1.40515         92.1642          14.266          14.266 
         1.4113         91.5722         14.1154         14.1154 
        1.41742         91.2765         13.9676         13.9676 
        1.42355         90.7985         13.8216         13.8216 
         1.4297         90.1348         13.6773         13.6773 
        1.43585         89.6872         13.5351         13.5351 
        1.44198         88.9162         13.3955         13.3955 
        1.44809         88.5012         13.2581         13.2581 
        1.45423         88.3555         13.1221         13.1221 
        1.46036         87.4882         12.9882         12.9882 
        1.46649         87.0744         12.8562         12.8562 
        1.47263         86.4168         12.7259         12.7259 
        1.47877         86.1149         12.5975         12.5975 
        1.48491         85.6449         12.4706         12.4706 
        1.49104         84.9188         12.3457         12.3457 
        1.49718         84.5536         12.2225         12.2225 
        1.50333         84.1346         12.1007         12.1007 
        1.50947         83.8502         11.9808         11.9808 
         1.5156           83.31         11.8628         11.8628 
        1.52172         82.5899         11.7463         11.7463 
        1.52787         82.4137         11.6311         11.6311 
          1.534         81.9011         11.5177         11.5177 
        1.54013         81.4172         11.4058         11.4058 
        1.54627         80.8777         11.2953         11.2953 
        1.55241         80.7422         11.1861         11.1861 
        1.55855         79.9373         11.0786         11.0786 
        1.56467         79.5495         10.9728         10.9728 
         1.5708         78.8329          10.868          10.868 
        1.57695         78.7449         10.7645         10.7645 
        1.58308         78.2737         10.6626         10.6626 
        1.58922         78.0267         10.5619         10.5619 
        1.59535         77.7587         10.4625         10.4625 
         1.6015         76.9726         10.3643         10.3643 
        1.60764         76.5949         10.2673         10.2673 
        1.61376         76.3939         10.1719         10.1719 
        1.61989         75.8723         10.0776         10.0776 
        1.62604         75.4722         9.98434         9.98434 
        1.63218          74.991         9.89228         9.89228 
        1.63831         74.5974         9.80158         9.80158 
        1.64444         74.1377         9.71198         9.71198 
        1.65059         73.7656         9.62329         9.62329 
        1.65673         73.6164          9.5358          9.5358 
        1.66285         73.1355         9.44963         9.44963 
        1.66898         72.5288          9.3645          9.3645 
        1.67512         72.0803         9.28025         9.28025 
        1.68127         71.8732         9.19696         9.19696 
         1.6874         71.3975         9.11488         9.11488 
        1.69353         71.0335         9.03384         9.03384 
        1.69967         70.5902         8.95359         8.95359 
        1.70581         70.3282         8.87435         8.87435 
        1.71193         69.8537         8.79637         8.79637 
        1.71806         69.5627         8.71915         8.71915 
        1.72421         69.1101         8.64271         8.64271 
        1.73035         68.7097         8.56727         8.56727 
        1.73649         68.3583         8.49275         8.49275 
        1.74262         68.0788         8.41917         8.41917 
        1.74876         67.5735         8.34641         8.34641 
        1.75489         67.3448         8.27466         8.27466 
        1.76101         67.1011         8.20377         8.20377 
        1.76715         66.5989         8.13361         8.13361 
        1.77329         66.1968         8.06419         8.06419 
        1.77943         65.9963         7.99554         7.99554 
        1.78557         65.6734          7.9278          7.9278 
        1.79171         65.1376         7.86082         7.86082 
        1.79785         64.8301          7.7946          7.7946 
        1.80399         64.6744         7.72916         7.72916 
        1.81012         64.0939         7.66455         7.66455 
        1.81625         63.8317          7.6007          7.6007 
        1.82239         63.3757         7.53749         7.53749 
        1.82853         63.2068         7.47502         7.47502 
        1.83466         62.7347         7.41332         7.41332 
        1.84078         62.4844         7.35238         7.35238 
        1.84692         62.2961         7.29202         7.29202 
        1.85306         62.0449         7.23227         7.23227 
         1.8592         61.6314         7.17327         7.17327 
        1.86533         61.2297         7.11497         7.11497 
        1.87147         60.9164         7.05724         7.05724 
        1.87761         60.3663         7.00013         7.00013 
