# k  (h/Mpc)    Pcb(k)  (Mpc/h)^3    Pcb_linear(k) (Mpc/h)^3    Pcb_NL(k) (Mpc/h)^3   ShotnoiseSubtracted = false
     0.00783031         18243.6         18337.4         18337.4 
       0.013688         20744.1         21320.5         21320.5 
       0.019231         20233.1         20553.3         20553.3 
      0.0249154         18227.8         18141.1         18141.1 
      0.0312784         14912.1         15026.3         15026.3 
      0.0375637         12232.3         12411.8         12411.8 
      0.0433917         10637.8           10660           10660 
      0.0492413         9403.81         9485.59         9485.59 
      0.0555754         8630.75         8643.98         8643.98 
      0.0619321         7728.33         7980.29         7980.29 
       0.067871         7222.37          7343.2          7343.2 
      0.0738098         6596.14         6621.94         6621.94 
      0.0800417         5831.74         5807.94         5807.94 
      0.0862327         5062.33         5033.31         5033.31 
      0.0921407         4495.41         4407.43         4407.43 
      0.0982031         4078.66         3921.85         3921.85 
       0.104506         3665.54         3579.09         3579.09 
       0.110769         3454.52         3357.57         3357.57 
       0.116806         3329.61         3198.41         3198.41 
       0.122832         3135.72         3040.97         3040.97 
       0.129052         2930.79         2847.11         2847.11 
       0.135211         2789.13         2619.28         2619.28 
       0.141259         2526.44         2379.53         2379.53 
       0.147318          2302.7         2151.03         2151.03 
       0.153489          2138.9         1953.83         1953.83 
       0.159709         2045.37         1802.44         1802.44 
       0.165845         1882.68          1696.5          1696.5 
       0.171974         1843.86         1620.72         1620.72 
       0.178125         1786.51         1557.71         1557.71 
       0.184229         1650.73         1493.13         1493.13 
        0.19034         1615.08         1417.94         1417.94 
       0.196428         1554.07         1332.11         1332.11 
       0.202534         1441.72         1240.98         1240.98 
       0.208729         1404.65         1152.07         1152.07 
       0.214876         1329.79         1074.74         1074.74 
       0.220989         1258.07         1012.18         1012.18 
       0.227147         1223.24         963.055         963.055 
        0.23329         1175.92         924.195         924.195 
       0.239377          1167.8           890.6           890.6 
       0.245482         1109.68         857.217         857.217 
       0.251667         1067.57         820.888         820.888 
       0.257832         1046.55         781.659         781.659 
       0.263955         993.388         741.289         741.289 
       0.270079         960.138         701.986         701.986 
        0.27624         918.837         665.822         665.822 
       0.282372         903.811         634.552         634.552 
        0.28843         887.953         608.307         608.307 
       0.294538         845.007          585.62          585.62 
       0.300721          826.83         564.976         564.976 
        0.30691         806.548         545.149         545.149 
       0.313033         772.248         525.316         525.316 
       0.319153         762.125         504.979         504.979 
       0.325316         750.495         484.266         484.266 
        0.33145         731.344         464.111         464.111 
       0.337538          705.04         445.225         445.225 
       0.343633         687.218         427.946         427.946 
       0.349808         672.176         412.182         412.182 
       0.355968          658.73         398.027         398.027 
       0.362074         634.812         385.095         385.095 
       0.368217          632.02         372.731         372.731 
       0.374374         622.151         360.633         360.633 
       0.380519         597.757         348.643         348.643 
       0.386598         592.507         336.918         336.918 
       0.392688         576.988         325.438         325.438 
        0.39888         563.679         314.234         314.234 
       0.405048          550.76         303.732         303.732 
       0.411186         550.123          293.98          293.98 
       0.417313         543.287         284.904         284.904 
       0.423458         528.365         276.375         276.375 
       0.429607         512.574          268.25          268.25 
       0.435692         506.073         260.484         260.484 
       0.441815         496.742         252.881         252.881 
       0.447964         487.585         245.427         245.427 
       0.454126         481.957          238.15          238.15 
       0.460267         474.234         231.149         231.149 
       0.466387         464.245         224.475         224.475 
        0.47254          458.58         218.083         218.083 
       0.478662         449.625         212.033         212.033 
       0.484765         443.229         206.294         206.294 
       0.490885         439.618         200.793         200.793 
       0.497035         429.146         195.469         195.469 
       0.503198         428.448           190.3           190.3 
       0.509342         419.667         185.298         185.298 
       0.515458         411.257         180.473         180.473 
       0.521598         407.785         175.785         175.785 
       0.527764         399.743         171.239         171.239 
       0.533884         395.665         166.891         166.891 
           0.54         391.578         162.715         162.715 
       0.546137         384.012         158.691         158.691 
       0.552299         382.231         154.804         154.804 
       0.558452         375.904         151.059         151.059 
       0.564573         373.526         147.452         147.452 
       0.570708         367.767         143.945         143.945 
       0.576825         360.916         140.554         140.554 
       0.582926         359.742         137.277         137.277 
       0.589034         352.913         134.101         134.101 
       0.595184         350.362         131.006         131.006 
       0.601379         344.527         127.991         127.991 
       0.607522         337.858         125.097         125.097 
       0.613639         336.876         122.307         122.307 
       0.619772         335.338         119.598         119.598 
       0.625918         328.261         116.967         116.967 
       0.632068          326.75         114.416         114.416 
       0.638161         323.345         111.963         111.963 
         0.6443         318.545         109.565         109.565 
       0.650464         315.459         107.227         107.227 
       0.656582         312.087         104.974         104.974 
       0.662703         310.303         102.783         102.783 
       0.668861         304.506         100.643         100.643 
       0.675024         303.432         98.5625         98.5625 
       0.681124         297.852         96.5622         96.5622 
       0.687237         296.997         94.6144         94.6144 
       0.693381          292.22         92.7121         92.7121 
       0.699536         291.752         90.8596         90.8596 
       0.705665         287.572         89.0661         89.0661 
       0.711789         285.114         87.3231         87.3231 
       0.717957         282.622         85.6151         85.6151 
        0.72409         278.815         83.9623         83.9623 
       0.730186         279.717         82.3631         82.3631 
       0.736317         274.792         80.7969         80.7969 
       0.742472         272.601         79.2656         79.2656 
       0.748622         270.466         77.7755         77.7755 
        0.75476         268.542          76.327          76.327 
       0.760888         265.815         74.9177         74.9177 
       0.767043         262.676         73.5384         73.5384 
       0.773185         260.487         72.1968         72.1968 
       0.779291         258.103         70.8965         70.8965 
       0.785407          256.23         69.6264         69.6264 
       0.791564         254.639         68.3795         68.3795 
       0.797719         250.492         67.1639         67.1639 
       0.803834         251.147         65.9857         65.9857 
       0.809972         247.204         64.8317         64.8317 
       0.816124         244.574         63.7028         63.7028 
       0.822261         242.784          62.604          62.604 
       0.828378         241.683         61.5344         61.5344 
       0.834502         238.254          60.489          60.489 
       0.840667         238.294         59.4612         59.4612 
       0.846816         234.099         58.4603         58.4603 
       0.852925         234.296         57.4888         57.4888 
       0.859047         231.653         56.5374         56.5374 
       0.865192         230.652         55.6045         55.6045 
       0.871341         227.908         54.6921         54.6921 
       0.877463         226.494         53.8044         53.8044 
       0.883569         225.275         52.9387         52.9387 
       0.889708         223.265         52.0876         52.0876 
       0.895864         220.259         51.2532         51.2532 
       0.902008          219.09         50.4388         50.4388 
       0.908149         217.054         49.6426         49.6426 
       0.914301         215.871         48.8624         48.8624 
       0.920448         214.441         48.0997         48.0997 
       0.926574         212.448         47.3561         47.3561 
       0.932687         212.225         46.6297         46.6297 
       0.938823         209.738          45.916          45.916 
       0.944975         209.373         45.2157         45.2157 
       0.951105         206.873         44.5324         44.5324 
       0.957225         205.025         43.8645         43.8645 
       0.963368         205.085          43.208          43.208 
       0.969511         201.714          42.565          42.565 
       0.975621         199.678         41.9385         41.9385 
       0.981748         199.604          41.323          41.323 
       0.987916         198.417          40.716          40.716 
        0.99406         196.397         40.1235         40.1235 
        1.00019         195.239          39.544          39.544 
        1.00632         194.286         38.9764         38.9764 
        1.01246         192.775         38.4192         38.4192 
        1.01859         190.663         37.8738         37.8738 
        1.02471         189.294         37.3397         37.3397 
        1.03085          188.16          36.814          36.814 
        1.03698         187.649         36.2996         36.2996 
        1.04314          186.62         35.7928         35.7928 
        1.04929         185.188         35.2969         35.2969 
        1.05541         184.405         34.8123         34.8123 
        1.06154         182.512         34.3357         34.3357 
        1.06769         181.353         33.8673         33.8673 
        1.07382         179.741         33.4091         33.4091 
        1.07993         178.742         32.9605         32.9605 
        1.08607          178.08         32.5183         32.5183 
        1.09222         176.247         32.0838         32.0838 
        1.09836         175.484         31.6577         31.6577 
        1.10449         174.476         31.2399         31.2399 
        1.11063         172.977         30.8291         30.8291 
        1.11677         171.704         30.4259         30.4259 
         1.1229         171.431         30.0306         30.0306 
        1.12903         169.327          29.642          29.642 
        1.13518         168.517           29.26           29.26 
        1.14131         167.795         28.8849         28.8849 
        1.14745         166.013         28.5166         28.5166 
        1.15359         165.156         28.1547         28.1547 
        1.15973         164.514         27.7988         27.7988 
        1.16584          163.36         27.4508         27.4508 
        1.17197         162.652         27.1082         27.1082 
        1.17811         161.022         26.7704         26.7704 
        1.18424         160.137         26.4393         26.4393 
        1.19038         159.519         26.1129         26.1129 
        1.19652         157.594         25.7921         25.7921 
        1.20267          157.01         25.4767         25.4767 
        1.20881         155.895         25.1667         25.1667 
        1.21495         155.609         24.8623         24.8623 
        1.22108         154.277         24.5629         24.5629 
         1.2272         153.402         24.2692         24.2692 
        1.23334         152.243         23.9797         23.9797 
        1.23949         151.519         23.6941         23.6941 
        1.24562         150.418          23.414          23.414 
        1.25174         149.959         23.1389         23.1389 
        1.25789         148.569         22.8673         22.8673 
        1.26402         147.962         22.6006         22.6006 
        1.27014         147.174         22.3387         22.3387 
        1.27628         146.483         22.0802         22.0802 
        1.28244         145.057         21.8253         21.8253 
        1.28858         144.314         21.5748         21.5748 
        1.29471          143.17         21.3287         21.3287 
        1.30084         142.645         21.0867         21.0867 
        1.30697         141.607         20.8481         20.8481 
        1.31312         140.962         20.6128         20.6128 
        1.31925         139.781          20.382          20.382 
        1.32537         139.405         20.1548         20.1548 
        1.33151         138.164         19.9304         19.9304 
        1.33765         137.601         19.7094         19.7094 
        1.34378         137.084         19.4923         19.4923 
        1.34992         135.849         19.2783         19.2783 
        1.35606         135.306          19.067          19.067 
         1.3622         134.278         18.8592         18.8592 
        1.36833         133.571         18.6551         18.6551 
        1.37445         133.062         18.4541         18.4541 
        1.38059          131.86         18.2554         18.2554 
        1.38675         131.179         18.0592         18.0592 
        1.39288         130.356         17.8666         17.8666 
        1.39901         129.368         17.6769         17.6769 
        1.40515         128.867         17.4895         17.4895 
         1.4113         128.175          17.305          17.305 
        1.41742         127.458         17.1238         17.1238 
        1.42355         126.658         16.9448         16.9448 
         1.4297         125.883         16.7679         16.7679 
        1.43585         125.414         16.5935         16.5935 
        1.44198          124.25         16.4223         16.4223 
        1.44809         123.827         16.2539         16.2539 
        1.45423         123.218         16.0872         16.0872 
        1.46036         122.375         15.9231         15.9231 
        1.46649         121.442         15.7612         15.7612 
        1.47263         120.997         15.6015         15.6015 
        1.47877         120.227          15.444          15.444 
        1.48491         119.368         15.2885         15.2885 
        1.49104         118.486         15.1354         15.1354 
        1.49718         118.057         14.9843         14.9843 
        1.50333         117.065          14.835          14.835 
        1.50947         116.815         14.6881         14.6881 
         1.5156         115.872         14.5433         14.5433 
        1.52172         115.214         14.4005         14.4005 
        1.52787         114.861         14.2594         14.2594 
          1.534         114.164         14.1202         14.1202 
        1.54013         113.252         13.9831         13.9831 
        1.54627         112.738         13.8476         13.8476 
        1.55241         112.207         13.7138         13.7138 
        1.55855         111.454          13.582          13.582 
        1.56467         110.903         13.4522         13.4522 
         1.5708         110.013         13.3238         13.3238 
        1.57695         109.725         13.1969         13.1969 
        1.58308         108.801         13.0719         13.0719 
        1.58922         108.293         12.9484         12.9484 
        1.59535         107.832         12.8266         12.8266 
         1.6015         106.984         12.7062         12.7062 
        1.60764         106.375         12.5874         12.5874 
        1.61376         105.957         12.4704         12.4704 
        1.61989         105.408         12.3548         12.3548 
        1.62604          104.65         12.2404         12.2404 
        1.63218         104.149         12.1276         12.1276 
        1.63831         103.468         12.0164         12.0164 
        1.64444         102.687         11.9065         11.9065 
        1.65059         102.355         11.7978         11.7978 
        1.65673         101.913         11.6905         11.6905 
        1.66285         101.526         11.5849         11.5849 
        1.66898         100.671         11.4805         11.4805 
        1.67512         99.7615         11.3772         11.3772 
        1.68127         99.6926         11.2751         11.2751 
         1.6874         99.0723         11.1745         11.1745 
        1.69353         98.4211         11.0751         11.0751 
        1.69967         97.8592         10.9768         10.9768 
        1.70581         97.3678         10.8796         10.8796 
        1.71193         96.8432          10.784          10.784 
        1.71806         95.9329         10.6894         10.6894 
        1.72421         95.5287         10.5956         10.5956 
        1.73035         95.1027         10.5032         10.5032 
        1.73649         94.6479         10.4118         10.4118 
        1.74262         94.0218         10.3216         10.3216 
        1.74876         93.3479         10.2324         10.2324 
        1.75489         93.3015         10.1444         10.1444 
        1.76101         92.5922         10.0575         10.0575 
        1.76715         91.8815         9.97151         9.97151 
        1.77329         91.4051         9.88639         9.88639 
        1.77943         90.8929         9.80224         9.80224 
        1.78557         90.5137         9.71918         9.71918 
        1.79171         89.8794         9.63707         9.63707 
        1.79785         89.3392         9.55589         9.55589 
        1.80399         88.8365         9.47566         9.47566 
        1.81012         88.3183         9.39645         9.39645 
        1.81625         87.8157         9.31818         9.31818 
        1.82239         87.5092         9.24068         9.24068 
        1.82853         86.7445          9.1641          9.1641 
        1.83466         86.1423         9.08845         9.08845 
        1.84078         86.0482         9.01374         9.01374 
        1.84692         85.6497         8.93975         8.93975 
        1.85306         85.0963         8.86649         8.86649 
         1.8592         84.7001         8.79416         8.79416 
        1.86533         84.1442         8.72269         8.72269 
        1.87147         83.6281         8.65192         8.65192 
