# k  (h/Mpc)    P(k)  (Mpc/h)^3    P_linear(k)  (Mpc/h)^3     P_NL(k)  ShotnoiseSubtracted = false
     0.00783031           20053         20153.1         20153.1 
       0.013688         22764.2         23427.2         23427.2 
       0.019231           22209         22582.9         22582.9 
      0.0249154           20026         19932.1         19932.1 
      0.0312784         16367.8         16509.5         16509.5 
      0.0375637         13422.7         13636.9         13636.9 
      0.0433917         11678.3           11712           11712 
      0.0492413         10322.1         10421.7         10421.7 
      0.0555754         9472.54         9497.02         9497.02 
      0.0619321          8472.4         8767.81         8767.81 
       0.067871         7919.56         8067.85         8067.85 
      0.0738098         7241.41          7275.4          7275.4 
      0.0800417         6403.03         6381.07         6381.07 
      0.0862327         5561.95         5529.99         5529.99 
      0.0921407         4946.65         4842.34         4842.34 
      0.0982031         4492.92         4308.85         4308.85 
       0.104506         4037.58         3932.27         3932.27 
       0.110769         3806.04         3688.88         3688.88 
       0.116806         3666.77         3514.02         3514.02 
       0.122832         3455.82         3341.04         3341.04 
       0.129052         3225.87         3128.05         3128.05 
       0.135211         3077.24         2877.74         2877.74 
       0.141259         2788.37         2614.33         2614.33 
       0.147318         2547.16         2363.28         2363.28 
       0.153489         2368.87         2146.63         2146.63 
       0.159709         2269.89         1980.29         1980.29 
       0.165845         2090.68         1863.91         1863.91 
       0.171974         2045.17         1780.65         1780.65 
       0.178125         1984.21         1711.42         1711.42 
       0.184229         1830.36         1640.46         1640.46 
        0.19034         1794.17         1557.85         1557.85 
       0.196428         1728.59         1463.55         1463.55 
       0.202534         1608.13         1363.43         1363.43 
       0.208729          1567.2         1265.75         1265.75 
       0.214876         1483.86          1180.8          1180.8 
       0.220989         1408.82         1112.05         1112.05 
       0.227147         1368.63         1058.08         1058.08 
        0.23329         1315.53         1015.39         1015.39 
       0.239377         1308.22         978.478         978.478 
       0.245482         1244.42         941.801         941.801 
       0.251667         1197.92         901.889         901.889 
       0.257832         1173.66         858.788         858.788 
       0.263955         1116.46         814.435         814.435 
       0.270079         1081.47         771.254         771.254 
        0.27624         1035.57         731.519         731.519 
       0.282372         1020.68         697.166         697.166 
        0.28843         1000.27          668.33          668.33 
       0.294538         953.945         643.405         643.405 
       0.300721         935.017         620.725         620.725 
        0.30691         910.373         598.941         598.941 
       0.313033         873.705          577.15          577.15 
       0.319153          863.39         554.806         554.806 
       0.325316         850.585         532.051         532.051 
        0.33145          828.95         509.907         509.907 
       0.337538         800.241         489.156         489.156 
       0.343633         781.039         470.174         470.174 
       0.349808         765.058         452.851         452.851 
       0.355968         749.419         437.302         437.302 
       0.362074         723.522         423.094         423.094 
       0.368217         720.248         409.509         409.509 
       0.374374         709.336          396.22          396.22 
       0.380519         682.633         383.044         383.044 
       0.386598         677.356         370.163         370.163 
       0.392688          659.48          357.55          357.55 
        0.39888         645.679          345.24          345.24 
       0.405048         630.633         333.703         333.703 
       0.411186         630.109         322.988         322.988 
       0.417313         622.521         313.017         313.017 
       0.423458         605.716         303.645         303.645 
       0.429607         588.277          294.72          294.72 
       0.435692         581.333         286.187         286.187 
       0.441815         570.432         277.833         277.833 
       0.447964         561.336         269.645         269.645 
       0.454126         554.494         261.649         261.649 
       0.460267          546.53         253.957         253.957 
       0.466387         534.743         246.624         246.624 
        0.47254         528.745         239.602         239.602 
       0.478662         518.792         232.955         232.955 
       0.484765         511.594          226.65          226.65 
       0.490885         507.831         220.606         220.606 
       0.497035         495.767         214.757         214.757 
       0.503198         494.922         209.078         209.078 
       0.509342         485.273         203.582         203.582 
       0.515458         475.622         198.281         198.281 
       0.521598         473.212          193.13          193.13 
       0.527764         462.828         188.135         188.135 
       0.533884         457.506         183.359         183.359 
           0.54         453.777          178.77          178.77 
       0.546137         445.827         174.349         174.349 
       0.552299         443.248         170.079         170.079 
       0.558452         436.429         165.965         165.965 
       0.564573         434.215         162.002         162.002 
       0.570708         427.711         158.148         158.148 
       0.576825         419.808         154.423         154.423 
       0.582926         418.636         150.823         150.823 
       0.589034         411.031         147.333         147.333 
       0.595184         407.731         143.933         143.933 
       0.601379         401.006          140.62          140.62 
       0.607522         393.982         137.441         137.441 
       0.613639         393.003         134.375         134.375 
       0.619772         390.688         131.399         131.399 
       0.625918         382.985         128.509         128.509 
       0.632068         381.786         125.705         125.705 
       0.638161         377.089         123.011         123.011 
         0.6443         371.863         120.376         120.376 
       0.650464          368.73         117.808         117.808 
       0.656582          364.95         115.332         115.332 
       0.662703         362.521         112.925         112.925 
       0.668861         356.488         110.574         110.574 
       0.675024         355.286         108.288         108.288 
       0.681124         347.832          106.09          106.09 
       0.687237          347.52          103.95          103.95 
       0.693381         342.141          101.86          101.86 
       0.699536         342.018          99.825          99.825 
       0.705665         336.667         97.8546         97.8546 
       0.711789         334.697         95.9396         95.9396 
       0.717957         331.384          94.063          94.063 
        0.72409         327.384         92.2471         92.2471 
       0.730186          327.77         90.4901         90.4901 
       0.736317         322.206         88.7693         88.7693 
       0.742472         319.707          87.087          87.087 
       0.748622         318.137         85.4499         85.4499 
        0.75476         314.517         83.8584         83.8584 
       0.760888         312.398           82.31           82.31 
       0.767043         309.093         80.7946         80.7946 
       0.773185         306.399         79.3207         79.3207 
       0.779291         303.765          77.892          77.892 
       0.785407         301.441         76.4966         76.4966 
       0.791564         299.893         75.1267         75.1267 
       0.797719          295.14         73.7912         73.7912 
       0.803834         295.442         72.4968         72.4968 
       0.809972         290.742         71.2288         71.2288 
       0.816124         288.555         69.9886         69.9886 
       0.822261          286.39         68.7813         68.7813 
       0.828378         284.903         67.6062         67.6062 
       0.834502         280.666         66.4576         66.4576 
       0.840667         280.373         65.3284         65.3284 
       0.846816         276.461         64.2287         64.2287 
       0.852925         276.723         63.1614         63.1614 
       0.859047         273.215         62.1161         62.1161 
       0.865192         271.923         61.0912         61.0912 
       0.871341         268.846         60.0887         60.0887 
       0.877463         267.608         59.1134         59.1134 
       0.883569         265.822         58.1623         58.1623 
       0.889708         263.304         57.2273         57.2273 
       0.895864         259.812         56.3105         56.3105 
       0.902008         258.869         55.4157         55.4157 
       0.908149         256.176          54.541          54.541 
       0.914301         255.303         53.6838         53.6838 
       0.920448         252.665         52.8459         52.8459 
       0.926574         250.811         52.0288         52.0288 
       0.932687         250.517         51.2308         51.2308 
       0.938823         247.628         50.4467         50.4467 
       0.944975         247.321         49.6772         49.6772 
       0.951105          244.68         48.9266         48.9266 
       0.957225         242.139         48.1928         48.1928 
       0.963368         242.299         47.4715         47.4715 
       0.969511          238.53          46.765          46.765 
       0.975621         236.193         46.0767         46.0767 
       0.981748         236.038         45.4005         45.4005 
       0.987916         234.552         44.7336         44.7336 
        0.99406         232.039         44.0826         44.0826 
        1.00019          230.37         43.4459         43.4459 
        1.00632         229.584         42.8224         42.8224 
        1.01246         227.908         42.2102         42.2102 
        1.01859         225.527         41.6109         41.6109 
        1.02471         223.944         41.0241         41.0241 
        1.03085          222.81         40.4465         40.4465 
        1.03698         221.869         39.8813         39.8813 
        1.04314         220.641         39.3246         39.3246 
        1.04929         218.973         38.7797         38.7797 
        1.05541         218.047         38.2474         38.2474 
        1.06154         215.788         37.7237         37.7237 
        1.06769         214.318         37.2091         37.2091 
        1.07382         212.315         36.7057         36.7057 
        1.07993         211.703         36.2128         36.2128 
        1.08607         210.492          35.727          35.727 
        1.09222         208.494         35.2496         35.2496 
        1.09836          207.41         34.7815         34.7815 
        1.10449         206.359         34.3224         34.3224 
        1.11063         204.876         33.8711         33.8711 
        1.11677         202.866         33.4281         33.4281 
         1.1229         202.884         32.9939         32.9939 
        1.12903         200.332         32.5669         32.5669 
        1.13518         199.282         32.1472         32.1472 
        1.14131         198.289         31.7351         31.7351 
        1.14745         196.496         31.3304         31.3304 
        1.15359         195.374         30.9328         30.9328 
        1.15973          194.54         30.5418         30.5418 
        1.16584         193.204         30.1594         30.1594 
        1.17197         192.334          29.783          29.783 
        1.17811         190.215         29.4119         29.4119 
        1.18424         189.277         29.0481         29.0481 
        1.19038         188.577         28.6895         28.6895 
        1.19652         186.352         28.3371         28.3371 
        1.20267         185.729         27.9906         27.9906 
        1.20881         184.468         27.6499         27.6499 
        1.21495         183.679         27.3155         27.3155 
        1.22108          182.39         26.9866         26.9866 
         1.2272         181.168          26.664          26.664 
        1.23334         179.781         26.3458         26.3458 
        1.23949         179.022         26.0321         26.0321 
        1.24562         177.727         25.7244         25.7244 
        1.25174         177.201         25.4221         25.4221 
        1.25789         175.459         25.1237         25.1237 
        1.26402         174.822         24.8306         24.8306 
        1.27014         173.785         24.5429         24.5429 
        1.27628          172.96         24.2589         24.2589 
        1.28244         171.224         23.9789         23.9789 
        1.28858          170.48         23.7036         23.7036 
        1.29471         169.118         23.4333         23.4333 
        1.30084         168.774         23.1674         23.1674 
        1.30697         167.409         22.9052         22.9052 
        1.31312         166.588         22.6468         22.6468 
        1.31925         165.416         22.3931         22.3931 
        1.32537          164.87         22.1436         22.1436 
        1.33151         163.181         21.8969         21.8969 
        1.33765           162.6         21.6542         21.6542 
        1.34378         161.891         21.4156         21.4156 
        1.34992         160.364         21.1805         21.1805 
        1.35606         159.791         20.9484         20.9484 
         1.3622         158.377         20.7201         20.7201 
        1.36833         158.002         20.4958         20.4958 
        1.37445         157.226          20.275          20.275 
        1.38059         155.586         20.0567         20.0567 
        1.38675         154.607         19.8411         19.8411 
        1.39288         153.951         19.6295         19.6295 
        1.39901         152.762         19.4211         19.4211 
        1.40515         151.986         19.2153         19.2153 
         1.4113         151.431         19.0125         19.0125 
        1.41742         150.334         18.8134         18.8134 
        1.42355         149.178         18.6168         18.6168 
         1.4297         148.469         18.4224         18.4224 
        1.43585         148.014         18.2309         18.2309 
        1.44198         146.643         18.0428         18.0428 
        1.44809         146.166         17.8577         17.8577 
        1.45423         145.302         17.6745         17.6745 
        1.46036         144.531         17.4942         17.4942 
        1.46649         143.229         17.3164         17.3164 
        1.47263          142.83         17.1409         17.1409 
        1.47877         141.906         16.9679         16.9679 
        1.48491          140.78          16.797          16.797 
        1.49104         139.767         16.6289         16.6289 
        1.49718          139.23         16.4628         16.4628 
        1.50333         138.015         16.2988         16.2988 
        1.50947         137.573         16.1374         16.1374 
         1.5156         136.609         15.9784         15.9784 
        1.52172          135.84         15.8215         15.8215 
        1.52787         135.282         15.6664         15.6664 
          1.534         134.621         15.5135         15.5135 
        1.54013         133.669         15.3629         15.3629 
        1.54627         132.956         15.2139         15.2139 
        1.55241         132.211          15.067          15.067 
        1.55855         131.345         14.9221         14.9221 
        1.56467         130.628         14.7796         14.7796 
         1.5708         129.873         14.6385         14.6385 
        1.57695         129.261         14.4991         14.4991 
        1.58308         128.195         14.3617         14.3617 
        1.58922         127.531         14.2261         14.2261 
        1.59535         126.833         14.0923         14.0923 
         1.6015         125.996           13.96           13.96 
        1.60764         125.218         13.8294         13.8294 
        1.61376         124.683         13.7009         13.7009 
        1.61989         123.944         13.5739         13.5739 
        1.62604         123.331         13.4482         13.4482 
        1.63218         122.494         13.3242         13.3242 
        1.63831         121.837         13.2021         13.2021 
        1.64444          120.88         13.0814         13.0814 
        1.65059         120.349         12.9619         12.9619 
        1.65673         119.669         12.8441         12.8441 
        1.66285         119.182          12.728          12.728 
        1.66898         118.421         12.6133         12.6133 
        1.67512         117.302         12.4999         12.4999 
        1.68127         117.111         12.3877         12.3877 
         1.6874         116.348         12.2771         12.2771 
        1.69353         115.702          12.168          12.168 
        1.69967         115.056         12.0599         12.0599 
        1.70581          114.36         11.9531         11.9531 
        1.71193         113.877         11.8481         11.8481 
        1.71806         112.817         11.7441         11.7441 
        1.72421         112.196         11.6411         11.6411 
        1.73035         111.863         11.5395         11.5395 
        1.73649         111.223         11.4392         11.4392 
        1.74262         110.322           11.34           11.34 
        1.74876         109.671          11.242          11.242 
        1.75489         109.603         11.1454         11.1454 
        1.76101          108.61         11.0499         11.0499 
        1.76715         107.976         10.9554         10.9554 
        1.77329         107.369         10.8619         10.8619 
        1.77943         106.625         10.7695         10.7695 
        1.78557         106.001         10.6782         10.6782 
        1.79171         105.375          10.588          10.588 
        1.79785         104.766         10.4988         10.4988 
        1.80399         104.154         10.4106         10.4106 
        1.81012         103.811         10.3236         10.3236 
        1.81625         102.946         10.2376         10.2376 
        1.82239         102.651         10.1525         10.1525 
        1.82853         101.827         10.0683         10.0683 
        1.83466         101.071         9.98524         9.98524 
        1.84078         100.824         9.90315         9.90315 
        1.84692         100.211         9.82186         9.82186 
        1.85306         99.5571         9.74137         9.74137 
         1.8592         99.0772         9.66191         9.66191 
        1.86533         98.4696         9.58338         9.58338 
        1.87147         97.8153         9.50563         9.50563 
        1.87761         97.3957          9.4287          9.4287 
