# k  (h/Mpc)    P(k)  (Mpc/h)^3    P_linear(k)  (Mpc/h)^3     P_NL(k)  ShotnoiseSubtracted = false
     0.00783031         1651.49         1664.16         1664.16 
       0.013688         1915.51         1938.17         1938.17 
       0.019231         1860.21         1869.41         1869.41 
      0.0249154         1653.94         1650.45         1650.45 
      0.0312784         1368.02         1367.28         1367.28 
      0.0375637          1127.7         1129.49         1129.49 
      0.0433917         973.014         970.121         970.121 
      0.0492413         863.164         863.281         863.281 
      0.0555754         789.383          786.71          786.71 
      0.0619321         720.574         726.323         726.323 
       0.067871         667.364          668.35          668.35 
      0.0738098         603.018         602.711         602.711 
      0.0800417         530.692         528.629         528.629 
      0.0862327         459.263         458.127         458.127 
      0.0921407         402.288         401.163         401.163 
      0.0982031         359.979         356.968         356.968 
       0.104506         325.882         325.772         325.772 
       0.110769         306.041         305.609         305.609 
       0.116806         293.266         291.124         291.124 
       0.122832         277.051         276.794         276.794 
       0.129052         260.383          259.15          259.15 
       0.135211         240.861         238.413         238.413 
       0.141259         218.164         216.591         216.591 
       0.147318         196.564         195.792         195.792 
       0.153489         179.532         177.843         177.843 
       0.159709         166.605         164.063         164.063 
       0.165845         155.067         154.421         154.421 
       0.171974         150.198         147.523         147.523 
       0.178125         144.034         141.788         141.788 
       0.184229         137.069         135.909         135.909 
        0.19034          131.28         129.065         129.065 
       0.196428         123.483         121.253         121.253 
       0.202534           113.9         112.958         112.958 
       0.208729         107.281         104.866         104.866 
       0.214876         100.939         97.8272         97.8272 
       0.220989         93.9168         92.1321         92.1321 
       0.227147          90.621         87.6605         87.6605 
        0.23329         87.0639         84.1236         84.1236 
       0.239377          84.193         81.0657         81.0657 
       0.245482         80.6699         78.0271         78.0271 
       0.251667         76.8625         74.7205         74.7205 
       0.257832         74.2425         71.1496         71.1496 
       0.263955         69.8615         67.4751         67.4751 
       0.270079         66.2815         63.8976         63.8976 
        0.27624         62.7545         60.6056         60.6056 
       0.282372         60.0677         57.7595         57.7595 
        0.28843         58.4467         55.3705         55.3705 
       0.294538          56.054         53.3055         53.3055 
       0.300721         53.6814         51.4265         51.4265 
        0.30691         52.3532         49.6217         49.6217 
       0.313033         50.2558         47.8163         47.8163 
       0.319153         48.9597         45.9652         45.9652 
       0.325316         46.4557           44.08           44.08 
        0.33145         44.5778         42.2453         42.2453 
       0.337538         42.9507         40.5261         40.5261 
       0.343633         41.5144         38.9536         38.9536 
       0.349808          39.946         37.5183         37.5183 
       0.355968         38.5675         36.2301         36.2301 
       0.362074         37.6879          35.053          35.053 
       0.368217         36.4696         33.9275         33.9275 
       0.374374         35.5524         32.8265         32.8265 
       0.380519         34.0595         31.7349         31.7349 
       0.386598         32.9043         30.6678         30.6678 
       0.392688         31.7553         29.6228         29.6228 
        0.39888         30.9803         28.6029         28.6029 
       0.405048         30.0835          27.647          27.647 
       0.411186         29.1185         26.7593         26.7593 
       0.417313         28.2286         25.9332         25.9332 
       0.423458         27.3235         25.1568         25.1568 
       0.429607         26.7835         24.4173         24.4173 
       0.435692         26.1988         23.7104         23.7104 
       0.441815         25.2038         23.0183         23.0183 
       0.447964         24.3214         22.3399         22.3399 
       0.454126         23.8557         21.6774         21.6774 
       0.460267         23.4353         21.0401         21.0401 
       0.466387         22.7027         20.4327         20.4327 
        0.47254         22.2439         19.8509         19.8509 
       0.478662         21.5157         19.3001         19.3001 
       0.484765         20.9871         18.7778         18.7778 
       0.490885         20.3456         18.2771         18.2771 
       0.497035         19.8787         17.7925         17.7925 
       0.503198         19.4608          17.322          17.322 
       0.509342         18.8512         16.8667         16.8667 
       0.515458         18.5238         16.4274         16.4274 
       0.521598         18.0718         16.0007         16.0007 
       0.527764         17.7484         15.5869         15.5869 
       0.533884         17.2161         15.1912         15.1912 
           0.54         16.8621          14.811          14.811 
       0.546137         16.3282         14.4447         14.4447 
       0.552299         16.0145         14.0909         14.0909 
       0.558452         15.6248         13.7501         13.7501 
       0.564573         15.3705         13.4218         13.4218 
       0.570708         14.9905         13.1025         13.1025 
       0.576825         14.7153         12.7938         12.7938 
       0.582926         14.3832         12.4956         12.4956 
       0.589034         14.0778         12.2064         12.2064 
       0.595184         13.8631         11.9247         11.9247 
       0.601379          13.464         11.6503         11.6503 
       0.607522         13.1973         11.3869         11.3869 
       0.613639         12.9168         11.1329         11.1329 
       0.619772         12.6778         10.8863         10.8863 
       0.625918         12.3951         10.6469         10.6469 
       0.632068         12.2317         10.4146         10.4146 
       0.638161         11.9488         10.1914         10.1914 
         0.6443         11.7164         9.97308         9.97308 
       0.650464         11.4209          9.7603          9.7603 
       0.656582          11.301         9.55516         9.55516 
       0.662703         11.1133         9.35581         9.35581 
       0.668861         10.8023           9.161           9.161 
       0.675024         10.6113          8.9716          8.9716 
       0.681124         10.5587         8.78953         8.78953 
       0.687237         10.3046         8.61223         8.61223 
       0.693381         10.0394         8.43908         8.43908 
       0.699536          9.9522         8.27045         8.27045 
       0.705665         9.74085          8.1072          8.1072 
       0.711789         9.53531         7.94855         7.94855 
       0.717957         9.32183         7.79307         7.79307 
        0.72409         9.22207         7.64263         7.64263 
       0.730186          9.1391         7.49706         7.49706 
       0.736317         8.91204          7.3545          7.3545 
       0.742472         8.79436         7.21512         7.21512 
       0.748622         8.63379         7.07948         7.07948 
        0.75476         8.39949         6.94763         6.94763 
       0.760888         8.33411         6.81934         6.81934 
       0.767043         8.14832          6.6938          6.6938 
       0.773185          8.0322         6.57168         6.57168 
       0.779291         7.96815         6.45332         6.45332 
       0.785407         7.80222         6.33771         6.33771 
       0.791564         7.68965         6.22422         6.22422 
       0.797719         7.52557         6.11357         6.11357 
       0.803834         7.46008         6.00632         6.00632 
       0.809972         7.30519         5.90128         5.90128 
       0.816124         7.20241         5.79852         5.79852 
       0.822261         7.10189          5.6985          5.6985 
       0.828378         6.99503         5.60114         5.60114 
       0.834502         6.89444         5.50598         5.50598 
       0.840667         6.81231         5.41243         5.41243 
       0.846816         6.65798         5.32132         5.32132 
       0.852925         6.59325         5.23289         5.23289 
       0.859047         6.48884         5.14629         5.14629 
       0.865192         6.38675         5.06138         5.06138 
       0.871341         6.29187         4.97833         4.97833 
       0.877463         6.19676         4.89752         4.89752 
       0.883569         6.13261         4.81872         4.81872 
       0.889708         6.02568         4.74125         4.74125 
       0.895864          5.9411          4.6653          4.6653 
       0.902008         5.84937         4.59117         4.59117 
       0.908149         5.76118          4.5187          4.5187 
       0.914301          5.7013         4.44768         4.44768 
       0.920448         5.62259         4.37826         4.37826 
       0.926574         5.57105         4.31057         4.31057 
       0.932687         5.46775         4.24445         4.24445 
       0.938823         5.37592         4.17949         4.17949 
       0.944975          5.3377         4.11574         4.11574 
       0.951105         5.23655         4.05355         4.05355 
       0.957225         5.19937         3.99275         3.99275 
       0.963368         5.11757         3.93299         3.93299 
       0.969511         5.05089         3.87446         3.87446 
       0.975621         4.97996         3.81743         3.81743 
       0.981748         4.89705         3.76141         3.76141 
       0.987916         4.84875         3.70616         3.70616 
        0.99406         4.79842         3.65223         3.65223 
        1.00019         4.74337         3.59948         3.59948 
        1.00632         4.69193         3.54782         3.54782 
        1.01246         4.62114          3.4971          3.4971 
        1.01859         4.55963         3.44745         3.44745 
        1.02471         4.48702         3.39883         3.39883 
        1.03085         4.45759         3.35098         3.35098 
        1.03698          4.4007         3.30415         3.30415 
        1.04314         4.34303         3.25802         3.25802 
        1.04929         4.27644         3.21288         3.21288 
        1.05541         4.23045         3.16878         3.16878 
        1.06154         4.18768         3.12539         3.12539 
        1.06769         4.15667         3.08276         3.08276 
        1.07382         4.07834         3.04106         3.04106 
        1.07993         4.03076         3.00022         3.00022 
        1.08607         4.00131         2.95997         2.95997 
        1.09222          3.9394         2.92041         2.92041 
        1.09836         3.92459         2.88163         2.88163 
        1.10449         3.83767          2.8436          2.8436 
        1.11063         3.81704         2.80621         2.80621 
        1.11677         3.77472         2.76951         2.76951 
         1.1229         3.73238         2.73353         2.73353 
        1.12903         3.69578         2.69816         2.69816 
        1.13518         3.63805         2.66338         2.66338 
        1.14131         3.59678         2.62924         2.62924 
        1.14745         3.54947         2.59571         2.59571 
        1.15359         3.51164         2.56277         2.56277 
        1.15973          3.4725         2.53038         2.53038 
        1.16584         3.44411          2.4987          2.4987 
        1.17197         3.39828         2.46751         2.46751 
        1.17811          3.3601         2.43676         2.43676 
        1.18424         3.32557         2.40663         2.40663 
        1.19038         3.29674         2.37692         2.37692 
        1.19652         3.26503         2.34772         2.34772 
        1.20267         3.23221         2.31901         2.31901 
        1.20881         3.18928         2.29079         2.29079 
        1.21495         3.16024         2.26308         2.26308 
        1.22108         3.12506         2.23583         2.23583 
         1.2272         3.08501          2.2091          2.2091 
        1.23334         3.07308         2.18274         2.18274 
        1.23949         3.02723         2.15675         2.15675 
        1.24562         3.00159         2.13126         2.13126 
        1.25174         2.98074         2.10621         2.10621 
        1.25789         2.92811         2.08149         2.08149 
        1.26402         2.90822         2.05721         2.05721 
        1.27014         2.88175         2.03337         2.03337 
        1.27628         2.84641         2.00984         2.00984 
        1.28244         2.82464         1.98664         1.98664 
        1.28858         2.80202         1.96384         1.96384 
        1.29471         2.76066         1.94144         1.94144 
        1.30084         2.73281         1.91941         1.91941 
        1.30697         2.71712         1.89769         1.89769 
        1.31312         2.68651         1.87628         1.87628 
        1.31925         2.65855         1.85526         1.85526 
        1.32537         2.63696         1.83459         1.83459 
        1.33151         2.60733         1.81415         1.81415 
        1.33765         2.58301         1.79404         1.79404 
        1.34378         2.56943         1.77428         1.77428 
        1.34992         2.54022          1.7548          1.7548 
        1.35606         2.51819         1.73557         1.73557 
         1.3622         2.49318         1.71666         1.71666 
        1.36833         2.46469         1.69807         1.69807 
        1.37445         2.43834         1.67978         1.67978 
        1.38059         2.41553         1.66169         1.66169 
        1.38675         2.39498         1.64383         1.64383 
        1.39288         2.38156          1.6263          1.6263 
        1.39901         2.34861         1.60903         1.60903 
        1.40515         2.33182         1.59198         1.59198 
         1.4113         2.31254         1.57518         1.57518 
        1.41742         2.28913         1.55869         1.55869 
        1.42355         2.26737          1.5424          1.5424 
         1.4297         2.24982         1.52629         1.52629 
        1.43585         2.23252         1.51042         1.51042 
        1.44198         2.20741         1.49484         1.49484 
        1.44809         2.19341         1.47951         1.47951 
        1.45423         2.17101         1.46433         1.46433 
        1.46036         2.15558         1.44939         1.44939 
        1.46649         2.13096         1.43466         1.43466 
        1.47263          2.1204         1.42012         1.42012 
        1.47877         2.10222         1.40579         1.40579 
        1.48491         2.07896         1.39163         1.39163 
        1.49104         2.06273          1.3777          1.3777 
        1.49718         2.04772         1.36394         1.36394 
        1.50333         2.02672         1.35035         1.35035 
        1.50947         2.00708         1.33698         1.33698 
         1.5156         1.99409          1.3238          1.3238 
        1.52172         1.97688          1.3108          1.3108 
        1.52787         1.96202         1.29795         1.29795 
          1.534         1.94479         1.28529         1.28529 
        1.54013         1.92995         1.27281         1.27281 
        1.54627         1.91108         1.26047         1.26047 
        1.55241         1.89342         1.24829         1.24829 
        1.55855         1.88191         1.23629         1.23629 
        1.56467         1.86857         1.22449         1.22449 
         1.5708          1.8499          1.2128          1.2128 
        1.57695         1.83102         1.20124         1.20124 
        1.58308         1.81435         1.18987         1.18987 
        1.58922         1.80829         1.17863         1.17863 
        1.59535         1.78927         1.16754         1.16754 
         1.6015         1.77319         1.15658         1.15658 
        1.60764         1.76477         1.14576         1.14576 
        1.61376         1.74491         1.13512         1.13512 
        1.61989         1.72917         1.12459         1.12459 
        1.62604         1.71652         1.11418         1.11418 
        1.63218         1.70754         1.10391         1.10391 
        1.63831         1.69619         1.09379         1.09379 
        1.64444         1.67955         1.08379         1.08379 
        1.65059         1.67034         1.07389         1.07389 
        1.65673         1.65218         1.06413         1.06413 
        1.66285         1.63987         1.05451         1.05451 
        1.66898         1.62683         1.04501         1.04501 
        1.67512         1.61397         1.03561         1.03561 
        1.68127         1.60219         1.02632         1.02632 
         1.6874         1.59344         1.01716         1.01716 
        1.69353         1.57608         1.00811         1.00811 
        1.69967         1.56453        0.999158        0.999158 
        1.70581         1.55678        0.990316        0.990316 
        1.71193         1.53777        0.981613        0.981613 
        1.71806         1.53148        0.972997        0.972997 
        1.72421         1.52162        0.964467        0.964467 
        1.73035         1.50639        0.956048        0.956048 
        1.73649         1.49729        0.947732        0.947732 
        1.74262         1.48662        0.939521        0.939521 
        1.74876         1.47593        0.931401        0.931401 
        1.75489         1.46323        0.923394        0.923394 
        1.76101         1.45121        0.915484        0.915484 
        1.76715         1.44608        0.907655        0.907655 
        1.77329         1.43159        0.899907        0.899907 
        1.77943         1.42149        0.892247        0.892247 
        1.78557         1.41225        0.884687        0.884687 
        1.79171         1.40246        0.877213        0.877213 
        1.79785         1.39423        0.869823        0.869823 
        1.80399          1.3819         0.86252         0.86252 
        1.81012         1.37279         0.85531         0.85531 
        1.81625          1.3596        0.848186        0.848186 
        1.82239         1.35337        0.841132        0.841132 
        1.82853         1.34339        0.834161        0.834161 
        1.83466         1.33024        0.827275        0.827275 
        1.84078         1.32175        0.820475        0.820475 
        1.84692         1.31278        0.813739        0.813739 
        1.85306         1.30441        0.807071        0.807071 
         1.8592         1.29497        0.800488        0.800488 
        1.86533         1.28705        0.793981        0.793981 
        1.87147         1.27958        0.787539        0.787539 
        1.87761         1.27078        0.781166        0.781166 
