# k  (h/Mpc)    Pcb(k)  (Mpc/h)^3    Pcb_linear(k) (Mpc/h)^3    Pcb_NL(k) (Mpc/h)^3   ShotnoiseSubtracted = false
     0.00783031         4924.82         4958.17         4958.17 
       0.013688         5678.22         5771.79         5771.79 
       0.019231         5522.91         5566.15         5566.15 
      0.0249154         4931.95          4913.8          4913.8 
      0.0312784         4066.59         4070.56         4070.56 
      0.0375637         3346.39         3362.52         3362.52 
      0.0433917         2895.57         2888.03         2888.03 
      0.0492413         2565.14         2569.94         2569.94 
      0.0555754         2350.83         2341.97         2341.97 
      0.0619321         2131.57         2162.19         2162.19 
       0.067871         1982.04          1989.6          1989.6 
      0.0738098         1795.29         1794.19         1794.19 
      0.0800417         1583.02         1573.65         1573.65 
      0.0862327          1369.7         1363.78         1363.78 
      0.0921407         1202.94          1194.2          1194.2 
      0.0982031         1080.99         1062.64         1062.64 
       0.104506         974.958         969.768         969.768 
       0.110769         916.794         909.747         909.747 
       0.116806         882.037         866.626         866.626 
       0.122832         830.573         823.967         823.967 
       0.129052         781.227         771.443         771.443 
       0.135211         727.893         709.713         709.713 
       0.141259         658.818         644.751         644.751 
       0.147318         593.586         582.838         582.838 
       0.153489         544.887         529.406         529.406 
       0.159709         510.136         488.385         488.385 
       0.165845         471.526         459.682         459.682 
       0.171974         460.749         439.148         439.148 
       0.178125         442.259         422.075         422.075 
       0.184229         417.371         404.576         404.576 
        0.19034           402.1         384.203         384.203 
       0.196428           380.7         360.947         360.947 
       0.202534         349.778         336.256         336.256 
       0.208729         334.155         312.165         312.165 
       0.214876         315.927         291.212         291.212 
       0.220989         293.128          274.26          274.26 
       0.227147         285.026         260.949         260.949 
        0.23329         274.235          250.42          250.42 
       0.239377         267.067         241.317         241.317 
       0.245482          254.43         232.272         232.272 
       0.251667         242.715         222.428         222.428 
       0.257832         237.127         211.798         211.798 
       0.263955         222.239          200.86          200.86 
       0.270079         211.639          190.21          190.21 
        0.27624         201.186         180.411         180.411 
       0.282372         193.966         171.939         171.939 
        0.28843         191.013         164.827         164.827 
       0.294538         182.091          158.68          158.68 
       0.300721         174.693         153.086         153.086 
        0.30691         171.372         147.714         147.714 
       0.313033         163.738          142.34          142.34 
       0.319153         160.247         136.829         136.829 
       0.325316         153.804         131.217         131.217 
        0.33145         148.317         125.756         125.756 
       0.337538         142.835         120.639         120.639 
       0.343633         138.033         115.957         115.957 
       0.349808          133.44         111.685         111.685 
       0.355968         129.706          107.85          107.85 
       0.362074         126.708         104.346         104.346 
       0.368217         123.578         100.996         100.996 
       0.374374         120.308         97.7174         97.7174 
       0.380519         115.117         94.4686         94.4686 
       0.386598          112.21         91.2918         91.2918 
       0.392688         108.532          88.181          88.181 
        0.39888         106.366         85.1452         85.1452 
       0.405048         103.584         82.2995         82.2995 
       0.411186         101.271          79.657          79.657 
       0.417313          98.444          77.198          77.198 
       0.423458         95.8069         74.8868         74.8868 
       0.429607         93.6812         72.6853         72.6853 
       0.435692         92.0436         70.5811         70.5811 
       0.441815         88.9562          68.521          68.521 
       0.447964         85.9633         66.5013         66.5013 
       0.454126         84.3395         64.5294         64.5294 
       0.460267         83.4371         62.6323         62.6323 
       0.466387         81.1498         60.8239         60.8239 
        0.47254         80.0088         59.0921         59.0921 
       0.478662         77.0975         57.4528         57.4528 
       0.484765         75.7227         55.8976         55.8976 
       0.490885         73.7546         54.4072         54.4072 
       0.497035          72.926         52.9646         52.9646 
       0.503198         71.2021          51.564          51.564 
       0.509342         69.2435         50.2086         50.2086 
       0.515458         68.1284         48.9011         48.9011 
       0.521598         66.3933         47.6309         47.6309 
       0.527764         65.5499         46.3991         46.3991 
       0.533884         64.6772          45.221          45.221 
           0.54         62.8986         44.0894         44.0894 
       0.546137          61.176         42.9991         42.9991 
       0.552299         60.0709         41.9459         41.9459 
       0.558452         58.8402         40.9313         40.9313 
       0.564573         58.4088         39.9538         39.9538 
       0.570708         56.6582         39.0034         39.0034 
       0.576825         56.0305         38.0846         38.0846 
       0.582926         55.2211         37.1968         37.1968 
       0.589034         54.0615         36.3361         36.3361 
       0.595184         53.2507         35.4975         35.4975 
       0.601379         51.9003         34.6806         34.6806 
       0.607522         50.9206         33.8965         33.8965 
       0.613639         50.3691         33.1405         33.1405 
       0.619772         49.3139         32.4064         32.4064 
       0.625918         48.6194         31.6936         31.6936 
       0.632068         47.9267         31.0022         31.0022 
       0.638161         46.9424         30.3377         30.3377 
         0.6443         46.4708         29.6878         29.6878 
       0.650464         45.3067         29.0544         29.0544 
       0.656582         45.0536         28.4438         28.4438 
       0.662703         44.3342         27.8503         27.8503 
       0.668861         43.2709         27.2704         27.2704 
       0.675024          42.942         26.7066         26.7066 
       0.681124          42.401         26.1647         26.1647 
       0.687237         41.5148         25.6369         25.6369 
       0.693381         40.9587         25.1214         25.1214 
       0.699536         40.5268         24.6194         24.6194 
       0.705665         39.8134         24.1335         24.1335 
       0.711789         39.1511         23.6612         23.6612 
       0.717957          38.482         23.1984         23.1984 
        0.72409         38.0591         22.7506         22.7506 
       0.730186         37.7947         22.3172         22.3172 
       0.736317         37.0553         21.8928         21.8928 
       0.742472         36.5748         21.4779         21.4779 
       0.748622         35.9598         21.0742         21.0742 
        0.75476         35.3304         20.6817         20.6817 
       0.760888         35.2437         20.2998         20.2998 
       0.767043         34.4898         19.9261         19.9261 
       0.773185          34.046         19.5626         19.5626 
       0.779291         33.6015         19.2102         19.2102 
       0.785407         33.1363         18.8661         18.8661 
       0.791564         33.0446         18.5282         18.5282 
       0.797719         32.3129         18.1989         18.1989 
       0.803834          32.108         17.8796         17.8796 
       0.809972         31.6093         17.5669         17.5669 
       0.816124          31.247          17.261          17.261 
       0.822261         30.8049         16.9633         16.9633 
       0.828378         30.6079         16.6735         16.6735 
       0.834502         30.1956         16.3902         16.3902 
       0.840667         29.8939         16.1117         16.1117 
       0.846816         29.3754         15.8405         15.8405 
       0.852925         29.1514         15.5773         15.5773 
       0.859047         28.9455         15.3195         15.3195 
       0.865192         28.4439         15.0667         15.0667 
       0.871341         28.1107         14.8195         14.8195 
       0.877463         27.8008         14.5789         14.5789 
       0.883569         27.6456         14.3443         14.3443 
       0.889708         27.2646         14.1137         14.1137 
       0.895864          26.934         13.8876         13.8876 
       0.902008         26.6429          13.667          13.667 
       0.908149         26.3288         13.4512         13.4512 
       0.914301         26.0982         13.2398         13.2398 
       0.920448         25.8425         13.0332         13.0332 
       0.926574         25.4723         12.8317         12.8317 
       0.932687         25.2077         12.6349         12.6349 
       0.938823         24.8646         12.4415         12.4415 
       0.944975         24.6486         12.2517         12.2517 
       0.951105         24.4475         12.0666         12.0666 
       0.957225         24.2428         11.8856         11.8856 
       0.963368         23.9167         11.7077         11.7077 
       0.969511         23.7018         11.5335         11.5335 
       0.975621         23.5058         11.3637         11.3637 
       0.981748         23.2058         11.1969         11.1969 
       0.987916         23.0352         11.0325         11.0325 
        0.99406         22.7418         10.8719         10.8719 
        1.00019          22.585         10.7149         10.7149 
        1.00632         22.3838         10.5611         10.5611 
        1.01246         22.1475         10.4101         10.4101 
        1.01859         21.9203         10.2624         10.2624 
        1.02471         21.6985         10.1176         10.1176 
        1.03085         21.5721         9.97518         9.97518 
        1.03698         21.4022         9.83579         9.83579 
        1.04314         21.1578         9.69847         9.69847 
        1.04929         20.8706          9.5641          9.5641 
        1.05541         20.8039         9.43281         9.43281 
        1.06154         20.6327         9.30366         9.30366 
        1.06769         20.3109         9.17674         9.17674 
        1.07382         20.1914          9.0526          9.0526 
        1.07993         20.0142         8.93104         8.93104 
        1.08607         19.8409         8.81122         8.81122 
        1.09222         19.6724         8.69348         8.69348 
        1.09836         19.4601         8.57803         8.57803 
        1.10449         19.3751         8.46481         8.46481 
        1.11063         19.1788         8.35351         8.35351 
        1.11677         19.0999         8.24426         8.24426 
         1.1229         18.8823         8.13716         8.13716 
        1.12903         18.6904         8.03186         8.03186 
        1.13518         18.6198         7.92834         7.92834 
        1.14131         18.4399         7.82671         7.82671 
        1.14745         18.2155         7.72691         7.72691 
        1.15359         18.0207         7.62883         7.62883 
        1.15973         17.9338         7.53242         7.53242 
        1.16584         17.7785         7.43811         7.43811 
        1.17197           17.57         7.34528         7.34528 
        1.17811         17.4829         7.25374         7.25374 
        1.18424         17.2783         7.16404         7.16404 
        1.19038         17.2188         7.07559         7.07559 
        1.19652         17.0198         6.98867         6.98867 
        1.20267         16.9564         6.90322         6.90322 
        1.20881         16.7748          6.8192          6.8192 
        1.21495          16.691         6.73672         6.73672 
        1.22108         16.6013         6.65562         6.65562 
         1.2272         16.4439         6.57604         6.57604 
        1.23334         16.3423         6.49758         6.49758 
        1.23949         16.1879         6.42021         6.42021 
        1.24562         16.0105         6.34431         6.34431 
        1.25174         15.9539         6.26976         6.26976 
        1.25789         15.8557         6.19617         6.19617 
        1.26402         15.7295         6.12389         6.12389 
        1.27014         15.6246         6.05293         6.05293 
        1.27628         15.4618         5.98289         5.98289 
        1.28244         15.4455         5.91382         5.91382 
        1.28858         15.2623         5.84594         5.84594 
        1.29471         15.1162         5.77926         5.77926 
        1.30084         15.0097         5.71369         5.71369 
        1.30697         14.9343         5.64904         5.64904 
        1.31312         14.8124         5.58529         5.58529 
        1.31925         14.7179         5.52273         5.52273 
        1.32537         14.5868         5.46119         5.46119 
        1.33151         14.4789         5.40036         5.40036 
        1.33765         14.4436          5.3405          5.3405 
        1.34378         14.3393         5.28166         5.28166 
        1.34992          14.209         5.22367         5.22367 
        1.35606         14.0884         5.16642         5.16642 
         1.3622         14.0025         5.11014         5.11014 
        1.36833         13.9535         5.05482         5.05482 
        1.37445         13.8397         5.00035         5.00035 
        1.38059         13.7362         4.94651         4.94651 
        1.38675         13.6582         4.89334         4.89334 
        1.39288         13.5374         4.84116         4.84116 
        1.39901         13.4456         4.78977         4.78977 
        1.40515         13.3823           4.739           4.739 
         1.4113         13.2968         4.68899         4.68899 
        1.41742         13.2243         4.63989         4.63989 
        1.42355         13.1026          4.5914          4.5914 
         1.4297         13.0185         4.54346         4.54346 
        1.43585         12.9373         4.49622         4.49622 
        1.44198         12.8971         4.44983         4.44983 
        1.44809         12.7961         4.40418         4.40418 
        1.45423         12.7071         4.35901         4.35901 
        1.46036         12.6272         4.31455         4.31455 
        1.46649         12.5444         4.27069         4.27069 
        1.47263         12.4635          4.2274          4.2274 
        1.47877         12.3846         4.18474         4.18474 
        1.48491         12.3159         4.14259         4.14259 
        1.49104          12.235         4.10112         4.10112 
        1.49718         12.1906         4.06018         4.06018 
        1.50333         12.1239         4.01973         4.01973 
        1.50947         12.0279         3.97991         3.97991 
         1.5156         11.9699         3.94069         3.94069 
        1.52172         11.8754         3.90199         3.90199 
        1.52787         11.8467         3.86374         3.86374 
          1.534         11.7639         3.82605         3.82605 
        1.54013         11.7049         3.78889         3.78889 
        1.54627         11.5936         3.75216         3.75216 
        1.55241         11.5117         3.71591         3.71591 
        1.55855         11.4738         3.68019         3.68019 
        1.56467         11.4196         3.64504         3.64504 
         1.5708         11.3545         3.61025         3.61025 
        1.57695         11.2949         3.57586         3.57586 
        1.58308         11.2027         3.54199         3.54199 
        1.58922         11.1472         3.50854         3.50854 
        1.59535         11.0879         3.47553         3.47553 
         1.6015         10.9962          3.4429          3.4429 
        1.60764         10.9501          3.4107          3.4107 
        1.61376         10.9026         3.37901         3.37901 
        1.61989         10.8048         3.34769         3.34769 
        1.62604         10.7725         3.31669         3.31669 
        1.63218         10.7198         3.28611         3.28611 
        1.63831         10.6387         3.25598         3.25598 
        1.64444         10.5758         3.22622         3.22622 
        1.65059         10.5226         3.19675         3.19675 
        1.65673         10.4767         3.16769         3.16769 
        1.66285         10.3884         3.13907         3.13907 
        1.66898          10.364         3.11079         3.11079 
        1.67512         10.3369          3.0828          3.0828 
        1.68127         10.2528         3.05513         3.05513 
         1.6874         10.2198         3.02786         3.02786 
        1.69353         10.1047         3.00094         3.00094 
        1.69967         10.0718         2.97429         2.97429 
        1.70581          10.029         2.94796         2.94796 
        1.71193         9.96543         2.92206         2.92206 
        1.71806         9.91989         2.89641         2.89641 
        1.72421         9.86469         2.87102         2.87102 
        1.73035         9.81838         2.84596         2.84596 
        1.73649         9.77889          2.8212          2.8212 
        1.74262          9.7065         2.79676         2.79676 
        1.74876          9.6695         2.77259         2.77259 
        1.75489          9.6228         2.74875         2.74875 
        1.76101         9.54315         2.72521         2.72521 
        1.76715         9.53055          2.7019          2.7019 
        1.77329          9.4611         2.67884         2.67884 
        1.77943         9.40923         2.65603         2.65603 
        1.78557         9.39737         2.63353         2.63353 
        1.79171         9.31789         2.61128         2.61128 
        1.79785         9.26899         2.58928         2.58928 
        1.80399         9.22406         2.56754         2.56754 
        1.81012         9.18451         2.54608         2.54608 
        1.81625         9.13476         2.52487         2.52487 
        1.82239         9.08638         2.50387         2.50387 
        1.82853         9.03764         2.48312         2.48312 
        1.83466           8.978         2.46263         2.46263 
        1.84078         8.94206         2.44238         2.44238 
        1.84692         8.93348         2.42233         2.42233 
        1.85306         8.87418         2.40248         2.40248 
         1.8592         8.83911         2.38289         2.38289 
        1.86533         8.76463         2.36352         2.36352 
        1.87147         8.73178         2.34434         2.34434 
