# k  (h/Mpc)    Pcb(k)  (Mpc/h)^3    Pcb_linear(k) (Mpc/h)^3    Pcb_NL(k) (Mpc/h)^3   ShotnoiseSubtracted = false
     0.00783031         577.118         581.869         581.869 
       0.013688         671.656         677.896         677.896 
       0.019231         651.648         653.918         653.918 
      0.0249154         577.895         577.355         577.355 
      0.0312784         478.801         478.315         478.315 
      0.0375637         395.124         395.136         395.136 
      0.0433917         340.332         339.387         339.387 
      0.0492413         302.189         302.012         302.012 
      0.0555754         275.926         275.226         275.226 
      0.0619321         252.908         254.101         254.101 
       0.067871         233.609          233.82          233.82 
      0.0738098         210.873         210.857         210.857 
      0.0800417         185.365          184.94          184.94 
      0.0862327         160.515         160.275         160.275 
      0.0921407          140.52         140.347         140.347 
      0.0982031         125.458         124.885         124.885 
       0.104506         113.893         113.971         113.971 
       0.110769         106.877         106.918         106.918 
       0.116806         102.137          101.85          101.85 
       0.122832         96.7187         96.8365         96.8365 
       0.129052         90.7811         90.6638         90.6638 
       0.135211         83.7324          83.409          83.409 
       0.141259         75.9165         75.7745         75.7745 
       0.147318         68.4784         68.4982         68.4982 
       0.153489         62.3925         62.2187         62.2187 
       0.159709         57.6939         57.3977         57.3977 
       0.165845         53.9426         54.0244         54.0244 
       0.171974         51.9351         51.6112         51.6112 
       0.178125         49.8252         49.6047         49.6047 
       0.184229         47.5828         47.5481         47.5481 
        0.19034         45.4219         45.1538         45.1538 
       0.196428         42.6448         42.4206         42.4206 
       0.202534         39.4827         39.5187         39.5187 
       0.208729         36.9266         36.6875         36.6875 
       0.214876         34.6177          34.225          34.225 
       0.220989         32.3505         32.2327         32.2327 
       0.227147         31.0328         30.6683         30.6683 
        0.23329         29.7893         29.4308         29.4308 
       0.239377          28.736          28.361          28.361 
       0.245482         27.6137          27.298          27.298 
       0.251667           26.34         26.1411         26.1411 
       0.257832           25.26         24.8919         24.8919 
       0.263955         23.8589         23.6063         23.6063 
       0.270079         22.6036         22.3547         22.3547 
        0.27624         21.3887         21.2031         21.2031 
       0.282372         20.4165         20.2073         20.2073 
        0.28843         19.7209         19.3715         19.3715 
       0.294538          18.957         18.6491         18.6491 
       0.300721         18.1963         17.9917         17.9917 
        0.30691         17.6649         17.3602         17.3602 
       0.313033         16.9941         16.7287         16.7287 
       0.319153          16.476         16.0811         16.0811 
       0.325316         15.6434         15.4215         15.4215 
        0.33145         15.0003         14.7796         14.7796 
       0.337538         14.4302         14.1782         14.1782 
       0.343633         13.9236          13.628          13.628 
       0.349808         13.3856         13.1259         13.1259 
       0.355968          12.909         12.6752         12.6752 
       0.362074         12.5604         12.2634         12.2634 
       0.368217         12.1457         11.8697         11.8697 
       0.374374         11.8194         11.4844         11.4844 
       0.380519         11.3583         11.1026         11.1026 
       0.386598         10.9573         10.7292         10.7292 
       0.392688         10.5685         10.3636         10.3636 
        0.39888         10.2601         10.0068         10.0068 
       0.405048         9.93859         9.67236         9.67236 
       0.411186         9.60951         9.36181         9.36181 
       0.417313         9.31849          9.0728          9.0728 
       0.423458         9.00625         8.80118         8.80118 
       0.429607         8.80209         8.54244         8.54244 
       0.435692          8.5711         8.29514         8.29514 
       0.441815         8.28539         8.05302         8.05302 
       0.447964         8.00205         7.81565         7.81565 
       0.454126         7.81944         7.58391         7.58391 
       0.460267         7.63409         7.36095         7.36095 
       0.466387         7.39899         7.14842         7.14842 
        0.47254         7.21632         6.94488         6.94488 
       0.478662         7.00013         6.75222         6.75222 
       0.484765         6.81879         6.56945         6.56945 
       0.490885         6.61598         6.39429         6.39429 
       0.497035         6.42862         6.22475         6.22475 
       0.503198          6.2934         6.06013         6.06013 
       0.509342          6.0978         5.90084         5.90084 
       0.515458         5.97115         5.74718         5.74718 
       0.521598         5.82424          5.5979          5.5979 
       0.527764         5.70315         5.45312         5.45312 
       0.533884         5.51596         5.31467         5.31467 
           0.54         5.39849         5.18167         5.18167 
       0.546137          5.2432         5.05353         5.05353 
       0.552299         5.13176         4.92975         4.92975 
       0.558452         5.00671         4.81051         4.81051 
       0.564573         4.89887         4.69563         4.69563 
       0.570708         4.78578         4.58394         4.58394 
       0.576825         4.67932         4.47595         4.47595 
       0.582926         4.56134         4.37161         4.37161 
       0.589034         4.47335         4.27045         4.27045 
       0.595184         4.38838          4.1719          4.1719 
       0.601379         4.26838         4.07588         4.07588 
       0.607522         4.17245         3.98373         3.98373 
       0.613639         4.07076         3.89489         3.89489 
       0.619772         3.99893         3.80861         3.80861 
       0.625918         3.91022         3.72484         3.72484 
       0.632068         3.83568         3.64358         3.64358 
       0.638161         3.74847         3.56548         3.56548 
         0.6443         3.66772         3.48911         3.48911 
       0.650464          3.5896         3.41467         3.41467 
       0.656582         3.53299          3.3429          3.3429 
       0.662703         3.46002         3.27315         3.27315 
       0.668861         3.36853           3.205           3.205 
       0.675024         3.30629         3.13874         3.13874 
       0.681124         3.27714         3.07504         3.07504 
       0.687237         3.19432         3.01301         3.01301 
       0.693381         3.11221         2.95243         2.95243 
       0.699536          3.0728         2.89344         2.89344 
       0.705665         3.01213         2.83633         2.83633 
       0.711789         2.93976         2.78082         2.78082 
       0.717957          2.8839         2.72643         2.72643 
        0.72409         2.83626         2.67379         2.67379 
       0.730186          2.8006         2.62287         2.62287 
       0.736317         2.73161         2.57299         2.57299 
       0.742472         2.69306         2.52423         2.52423 
       0.748622         2.64535         2.47678         2.47678 
        0.75476         2.58143         2.43065         2.43065 
       0.760888         2.54825         2.38577         2.38577 
       0.767043         2.47889         2.34184         2.34184 
       0.773185         2.44546         2.29912         2.29912 
       0.779291         2.42226         2.25771         2.25771 
       0.785407         2.36972         2.21726         2.21726 
       0.791564          2.3268         2.17756         2.17756 
       0.797719         2.28582         2.13885         2.13885 
       0.803834         2.24898         2.10133         2.10133 
       0.809972         2.20853         2.06458         2.06458 
       0.816124         2.17162         2.02863         2.02863 
       0.822261         2.13883         1.99363         1.99363 
       0.828378         2.10079         1.95957         1.95957 
       0.834502         2.06558         1.92628         1.92628 
       0.840667         2.03838         1.89355         1.89355 
       0.846816         1.99939         1.86168         1.86168 
       0.852925         1.96534         1.83074         1.83074 
       0.859047         1.93419         1.80044         1.80044 
       0.865192         1.90338         1.77074         1.77074 
       0.871341          1.8764         1.74168         1.74168 
       0.877463         1.84096         1.71341         1.71341 
       0.883569         1.81488         1.68584         1.68584 
       0.889708         1.79013         1.65874         1.65874 
       0.895864         1.76228         1.63217         1.63217 
       0.902008         1.72857         1.60623         1.60623 
       0.908149         1.70644         1.58088         1.58088 
       0.914301         1.68345         1.55603         1.55603 
       0.920448         1.66034         1.53175         1.53175 
       0.926574         1.64028         1.50806         1.50806 
       0.932687         1.61254         1.48493         1.48493 
       0.938823         1.58048          1.4622          1.4622 
       0.944975         1.56485          1.4399          1.4399 
       0.951105         1.53188         1.41814         1.41814 
       0.957225         1.51569         1.39687         1.39687 
       0.963368         1.49683         1.37597         1.37597 
       0.969511         1.47691         1.35549         1.35549 
       0.975621         1.44999         1.33554         1.33554 
       0.981748         1.42317         1.31594         1.31594 
       0.987916         1.40719         1.29661         1.29661 
        0.99406          1.3923         1.27774         1.27774 
        1.00019          1.3721         1.25929         1.25929 
        1.00632          1.3574         1.24121         1.24121 
        1.01246         1.33613         1.22347         1.22347 
        1.01859          1.3181          1.2061          1.2061 
        1.02471         1.29476         1.18909         1.18909 
        1.03085         1.27808         1.17235         1.17235 
        1.03698          1.2636         1.15597         1.15597 
        1.04314         1.24604         1.13983         1.13983 
        1.04929         1.23253         1.12404         1.12404 
        1.05541          1.2104         1.10861         1.10861 
        1.06154         1.19878         1.09343         1.09343 
        1.06769         1.18521         1.07851         1.07851 
        1.07382         1.16647         1.06392         1.06392 
        1.07993         1.15078         1.04964         1.04964 
        1.08607         1.13886         1.03555         1.03555 
        1.09222         1.12083         1.02171         1.02171 
        1.09836         1.11181         1.00815         1.00815 
        1.10449         1.09085         0.99484         0.99484 
        1.11063         1.07796         0.98176         0.98176 
        1.11677         1.06682         0.96892         0.96892 
         1.1229         1.04974        0.956332        0.956332 
        1.12903         1.04092        0.943957        0.943957 
        1.13518         1.02521        0.931791        0.931791 
        1.14131         1.01368        0.919846        0.919846 
        1.14745         1.00303        0.908117        0.908117 
        1.15359        0.989023        0.896591        0.896591 
        1.15973        0.977588         0.88526         0.88526 
        1.16584        0.965304        0.874176        0.874176 
        1.17197         0.95184        0.863266        0.863266 
        1.17811        0.940318        0.852508        0.852508 
        1.18424        0.929493        0.841965        0.841965 
        1.19038        0.917601        0.831571        0.831571 
        1.19652        0.909474        0.821355        0.821355 
        1.20267        0.900647        0.811312        0.811312 
        1.20881        0.885673        0.801438        0.801438 
        1.21495        0.877207        0.791744        0.791744 
        1.22108        0.867653        0.782212        0.782212 
         1.2272        0.854396         0.77286         0.77286 
        1.23334        0.846773        0.763638        0.763638 
        1.23949        0.837626        0.754546        0.754546 
        1.24562        0.827882        0.745626        0.745626 
        1.25174        0.819815        0.736863        0.736863 
        1.25789        0.807194        0.728215        0.728215 
        1.26402        0.799164         0.71972         0.71972 
        1.27014        0.787865        0.711381        0.711381 
        1.27628        0.781907        0.703149        0.703149 
        1.28244        0.772717        0.695032        0.695032 
        1.28858        0.763034        0.687053        0.687053 
        1.29471        0.754166        0.679218        0.679218 
        1.30084        0.747056        0.671511        0.671511 
        1.30697        0.741134        0.663913        0.663913 
        1.31312        0.731731        0.656421        0.656421 
        1.31925        0.723878        0.649068        0.649068 
        1.32537        0.716329        0.641835        0.641835 
        1.33151         0.70775        0.634687        0.634687 
        1.33765        0.700437        0.627651        0.627651 
        1.34378        0.692449        0.620736        0.620736 
        1.34992        0.687112        0.613921        0.613921 
        1.35606        0.678296        0.607193        0.607193 
         1.3622        0.671992        0.600577        0.600577 
        1.36833        0.664904        0.594076        0.594076 
        1.37445        0.657612        0.587674        0.587674 
        1.38059        0.651095        0.581347        0.581347 
        1.38675        0.644073        0.575098        0.575098 
        1.39288        0.637626        0.568966        0.568966 
        1.39901        0.630886        0.562925        0.562925 
        1.40515        0.624007        0.556959        0.556959 
         1.4113        0.620272        0.551081        0.551081 
        1.41742        0.612066        0.545311        0.545311 
        1.42355        0.604255        0.539612        0.539612 
         1.4297        0.600295        0.533977        0.533977 
        1.43585        0.593201        0.528425        0.528425 
        1.44198        0.588104        0.522974        0.522974 
        1.44809        0.581735        0.517609        0.517609 
        1.45423        0.576091          0.5123          0.5123 
        1.46036        0.570688        0.507074        0.507074 
        1.46649        0.564355         0.50192         0.50192 
        1.47263        0.558708        0.496833        0.496833 
        1.47877         0.55639        0.491818        0.491818 
        1.48491        0.546875        0.486865        0.486865 
        1.49104        0.544572        0.481991        0.481991 
        1.49718        0.537074        0.477179        0.477179 
        1.50333        0.533136        0.472425        0.472425 
        1.50947        0.528369        0.467746        0.467746 
         1.5156         0.52303        0.463136        0.463136 
        1.52172        0.518515        0.458589        0.458589 
        1.52787        0.512549        0.454093        0.454093 
          1.534        0.509189        0.449663        0.449663 
        1.54013         0.50379        0.445296        0.445296 
        1.54627        0.499013        0.440979        0.440979 
        1.55241        0.494117        0.436719        0.436719 
        1.55855        0.489605        0.432521        0.432521 
        1.56467        0.485262         0.42839         0.42839 
         1.5708        0.480615        0.424301        0.424301 
        1.57695        0.475599        0.420258        0.420258 
        1.58308        0.470703        0.416278        0.416278 
        1.58922        0.467782        0.412347        0.412347 
        1.59535        0.462471        0.408468        0.408468 
         1.6015        0.458399        0.404633        0.404633 
        1.60764        0.454385        0.400849        0.400849 
        1.61376        0.450116        0.397123        0.397123 
        1.61989        0.446319        0.393443        0.393443 
        1.62604        0.441434          0.3898          0.3898 
        1.63218        0.438779        0.386205        0.386205 
        1.63831        0.434179        0.382665        0.382665 
        1.64444        0.430904        0.379167        0.379167 
        1.65059        0.426746        0.375704        0.375704 
        1.65673        0.422531        0.372288        0.372288 
        1.66285        0.419272        0.368924        0.368924 
        1.66898        0.416018        0.365601        0.365601 
        1.67512        0.410939        0.362312        0.362312 
        1.68127        0.407429         0.35906         0.35906 
         1.6874        0.405237        0.355855        0.355855 
        1.69353        0.400764        0.352691        0.352691 
        1.69967        0.397939        0.349558        0.349558 
        1.70581        0.394961        0.346465        0.346465 
        1.71193         0.39137         0.34342         0.34342 
        1.71806        0.388089        0.340406        0.340406 
        1.72421        0.384375        0.337421        0.337421 
        1.73035        0.380124        0.334476        0.334476 
        1.73649        0.378797        0.331567        0.331567 
        1.74262        0.374209        0.328694        0.328694 
        1.74876        0.371871        0.325853        0.325853 
        1.75489        0.368942        0.323052        0.323052 
        1.76101        0.365098        0.320284        0.320284 
        1.76715        0.362378        0.317545        0.317545 
        1.77329        0.359453        0.314835        0.314835 
        1.77943        0.356411        0.312155        0.312155 
        1.78557        0.354475         0.30951         0.30951 
        1.79171        0.351278        0.306895        0.306895 
        1.79785        0.348033         0.30431         0.30431 
        1.80399         0.34421        0.301755        0.301755 
        1.81012        0.342247        0.299233        0.299233 
        1.81625        0.339922         0.29674         0.29674 
        1.82239        0.337293        0.294272        0.294272 
        1.82853        0.333983        0.291833        0.291833 
        1.83466        0.331272        0.289425        0.289425 
        1.84078         0.32831        0.287045        0.287045 
        1.84692        0.326144        0.284689        0.284689 
        1.85306        0.323881        0.282356        0.282356 
         1.8592        0.320918        0.280053        0.280053 
        1.86533        0.318859        0.277777        0.277777 
        1.87147        0.315184        0.275523        0.275523 
