# k  (h/Mpc)    P(k)  (Mpc/h)^3    P_linear(k)  (Mpc/h)^3     P_NL(k)  ShotnoiseSubtracted = false
     0.00783031         12674.1         12745.6         12745.6 
       0.013688         14481.5         14826.2         14826.2 
       0.019231         14112.9         14294.6         14294.6 
      0.0249154           12678         12617.9         12617.9 
      0.0312784         10400.8         10451.8         10451.8 
      0.0375637         8539.91         8633.48         8633.48 
      0.0433917          7415.5            7415            7415 
      0.0492413         6558.99         6598.18         6598.18 
      0.0555754         6019.84          6012.8          6012.8 
      0.0619321         5411.08         5551.17         5551.17 
       0.067871          5051.3         5108.03         5108.03 
      0.0738098         4598.27         4606.32         4606.32 
      0.0800417          4062.9          4040.1          4040.1 
      0.0862327          3521.1         3501.27         3501.27 
      0.0921407         3113.14         3065.89         3065.89 
      0.0982031         2815.33         2728.12         2728.12 
       0.104506         2531.52          2489.7          2489.7 
       0.110769         2384.19          2335.6          2335.6 
       0.116806         2299.36         2224.89         2224.89 
       0.122832         2162.53         2115.37         2115.37 
       0.129052         2027.87         1980.52         1980.52 
       0.135211         1915.52         1822.04         1822.04 
       0.141259         1734.04         1655.26         1655.26 
       0.147318         1571.37         1496.31         1496.31 
       0.153489         1453.96         1359.14         1359.14 
       0.159709         1381.03         1253.82         1253.82 
       0.165845         1270.37         1180.13         1180.13 
       0.171974         1246.71         1127.42         1127.42 
       0.178125         1203.18         1083.59         1083.59 
       0.184229         1118.83         1038.66         1038.66 
        0.19034         1088.58         986.355         986.355 
       0.196428         1042.48         926.651         926.651 
       0.202534         960.817         863.261         863.261 
       0.208729         933.065         801.414         801.414 
       0.214876         883.493         747.623         747.623 
       0.220989         827.725         704.099         704.099 
       0.227147         806.513         669.925         669.925 
        0.23329         775.841         642.895         642.895 
       0.239377         765.933         619.526         619.526 
       0.245482         726.689         596.304         596.304 
       0.251667         697.321         571.033         571.033 
       0.257832         684.701         543.744         543.744 
       0.263955         645.625         515.662         515.662 
       0.270079         620.154         488.321         488.321 
        0.27624         592.456         463.163         463.163 
       0.282372         578.915         441.413         441.413 
        0.28843         571.936         423.155         423.155 
       0.294538         542.397         407.374         407.374 
       0.300721         527.296         393.014         393.014 
        0.30691         516.771         379.221         379.221 
       0.313033         492.726         365.424         365.424 
       0.319153         484.315         351.277         351.277 
       0.325316         474.789          336.87          336.87 
        0.33145         462.094         322.849         322.849 
       0.337538         444.402          309.71          309.71 
       0.343633         431.074         297.692         297.692 
       0.349808         420.016         286.724         286.724 
       0.355968         411.506         276.879         276.879 
       0.362074         396.662         267.883         267.883 
       0.368217         393.611         259.282         259.282 
       0.374374         385.652         250.868         250.868 
       0.380519         369.654         242.526         242.526 
       0.386598         364.895          234.37          234.37 
       0.392688         355.111         226.384         226.384 
        0.39888         346.034          218.59          218.59 
       0.405048         338.241         211.285         211.285 
       0.411186         336.796         204.501         204.501 
       0.417313         331.045         198.188         198.188 
       0.423458         321.991         192.254         192.254 
       0.429607         312.345         186.603         186.603 
       0.435692         307.301           181.2           181.2 
       0.441815         301.758         175.911         175.911 
       0.447964         293.944         170.727         170.727 
       0.454126         290.282         165.664         165.664 
       0.460267         285.506         160.794         160.794 
       0.466387         279.204         156.151         156.151 
        0.47254         275.467         151.705         151.705 
       0.478662         268.645         147.496         147.496 
       0.484765         264.754         143.504         143.504 
       0.490885         261.601         139.678         139.678 
       0.497035         256.383         135.974         135.974 
       0.503198         254.938         132.378         132.378 
       0.509342         248.656         128.899         128.899 
       0.515458         244.359         125.542         125.542 
       0.521598         239.579         122.281         122.281 
       0.527764         236.718         119.119         119.119 
       0.533884         234.887         116.094         116.094 
           0.54         230.643         113.189         113.189 
       0.546137         225.289          110.39          110.39 
       0.552299         223.759         107.686         107.686 
       0.558452         219.828         105.081         105.081 
       0.564573         218.322         102.572         102.572 
       0.570708         213.652         100.132         100.132 
       0.576825          210.18         97.7733         97.7733 
       0.582926         208.426         95.4939         95.4939 
       0.589034         204.799         93.2842         93.2842 
       0.595184         203.136         91.1315         91.1315 
       0.601379         199.769         89.0341         89.0341 
       0.607522         195.162         87.0211         87.0211 
       0.613639         194.177         85.0804         85.0804 
       0.619772         192.817         83.1957         83.1957 
       0.625918         189.844         81.3658         81.3658 
       0.632068         186.608         79.5908         79.5908 
       0.638161         185.343         77.8848         77.8848 
         0.6443         183.075         76.2165         76.2165 
       0.650464         179.909         74.5904         74.5904 
       0.656582         178.305         73.0226         73.0226 
       0.662703         176.973         71.4991         71.4991 
       0.668861         173.247         70.0103         70.0103 
       0.675024         172.813          68.563          68.563 
       0.681124         170.366         67.1715         67.1715 
       0.687237         168.829         65.8166         65.8166 
       0.693381         166.043         64.4933         64.4933 
       0.699536          165.03         63.2046         63.2046 
       0.705665         163.091          61.957          61.957 
       0.711789         160.772         60.7445         60.7445 
       0.717957         159.375         59.5564         59.5564 
        0.72409         157.186         58.4066         58.4066 
       0.730186         157.793         57.2942         57.2942 
       0.736317         155.258         56.2047         56.2047 
       0.742472         153.006         55.1395         55.1395 
       0.748622         150.825         54.1029         54.1029 
        0.75476         151.233         53.0953         53.0953 
       0.760888         149.097         52.1149         52.1149 
       0.767043          146.57         51.1555         51.1555 
       0.773185         145.174         50.2222         50.2222 
       0.779291         143.702         49.3177         49.3177 
       0.785407         142.695         48.4341         48.4341 
       0.791564         141.412         47.5668         47.5668 
       0.797719         139.073         46.7212         46.7212 
       0.803834         139.493         45.9016         45.9016 
       0.809972         137.797         45.0988         45.0988 
       0.816124         135.388         44.3136         44.3136 
       0.822261         134.624         43.5492         43.5492 
       0.828378         134.078         42.8051         42.8051 
       0.834502         132.506         42.0779         42.0779 
       0.840667         132.056          41.363          41.363 
       0.846816         129.819         40.6667         40.6667 
       0.852925         129.109         39.9909         39.9909 
       0.859047         127.801         39.3291         39.3291 
       0.865192         127.166         38.6801         38.6801 
       0.871341         125.825         38.0454         38.0454 
       0.877463         124.659         37.4279         37.4279 
       0.883569         124.478         36.8257         36.8257 
       0.889708         123.214         36.2337         36.2337 
       0.895864         121.883         35.6532         35.6532 
       0.902008         120.512         35.0867         35.0867 
       0.908149         119.316         34.5329         34.5329 
       0.914301          118.66         33.9901         33.9901 
       0.920448         118.646         33.4596         33.4596 
       0.926574         116.523         32.9423         32.9423 
       0.932687          116.37          32.437          32.437 
       0.938823         115.411         31.9405         31.9405 
       0.944975         114.551         31.4533         31.4533 
       0.951105         113.359         30.9781         30.9781 
       0.957225         112.761         30.5134         30.5134 
       0.963368         111.811         30.0568         30.0568 
       0.969511         110.775         29.6095         29.6095 
       0.975621         109.394         29.1736         29.1736 
       0.981748         108.983         28.7455         28.7455 
       0.987916         108.337         28.3232         28.3232 
        0.99406         107.659         27.9111         27.9111 
        1.00019         106.861          27.508          27.508 
        1.00632          105.88         27.1132         27.1132 
        1.01246          105.15         26.7255         26.7255 
        1.01859         104.477         26.3461         26.3461 
        1.02471         103.741         25.9746         25.9746 
        1.03085         102.845         25.6089         25.6089 
        1.03698         102.026          25.251          25.251 
        1.04314         101.628         24.8985         24.8985 
        1.04929         101.004         24.5535         24.5535 
        1.05541         100.252         24.2165         24.2165 
        1.06154         99.2287         23.8849         23.8849 
        1.06769         98.7582         23.5591         23.5591 
        1.07382         98.1852         23.2404         23.2404 
        1.07993         97.4485         22.9283         22.9283 
        1.08607         96.9829         22.6207         22.6207 
        1.09222         96.1076         22.3184         22.3184 
        1.09836         95.4497          22.022          22.022 
        1.10449         94.8756         21.7314         21.7314 
        1.11063         94.0674         21.4457         21.4457 
        1.11677         93.6488         21.1652         21.1652 
         1.1229          92.716         20.8902         20.8902 
        1.12903          92.126         20.6199         20.6199 
        1.13518         91.4269         20.3541         20.3541 
        1.14131          91.078         20.0932         20.0932 
        1.14745         90.5071          19.837          19.837 
        1.15359         89.6346         19.5852         19.5852 
        1.15973         89.3299         19.3377         19.3377 
        1.16584         88.6542         19.0956         19.0956 
        1.17197         88.2491         18.8572         18.8572 
        1.17811         87.4785         18.6223         18.6223 
        1.18424         86.9117          18.392          18.392 
        1.19038         86.4924         18.1649         18.1649 
        1.19652         85.9762         17.9417         17.9417 
        1.20267         85.3359         17.7224         17.7224 
        1.20881         84.6662         17.5067         17.5067 
        1.21495         84.3129         17.2949         17.2949 
        1.22108         83.8105         17.0867         17.0867 
         1.2272         83.2881         16.8824         16.8824 
        1.23334         82.9558          16.681          16.681 
        1.23949         82.3633         16.4823         16.4823 
        1.24562         81.6158         16.2875         16.2875 
        1.25174         81.4839         16.0961         16.0961 
        1.25789         80.7446         15.9072         15.9072 
        1.26402          80.461         15.7216         15.7216 
        1.27014          79.708         15.5395         15.5395 
        1.27628         79.3444         15.3596         15.3596 
        1.28244         79.1391         15.1823         15.1823 
        1.28858         78.4016          15.008          15.008 
        1.29471         77.9537         14.8369         14.8369 
        1.30084         77.2901         14.6685         14.6685 
        1.30697         77.0532         14.5026         14.5026 
        1.31312         76.5787         14.3389         14.3389 
        1.31925         75.9396         14.1783         14.1783 
        1.32537          75.614         14.0203         14.0203 
        1.33151         75.4951         13.8641         13.8641 
        1.33765         74.7804         13.7105         13.7105 
        1.34378         74.4344         13.5594         13.5594 
        1.34992         74.1038         13.4105         13.4105 
        1.35606         73.6206         13.2636         13.2636 
         1.3622          73.403          13.119          13.119 
        1.36833         72.7354          12.977          12.977 
        1.37445         72.4305         12.8372         12.8372 
        1.38059         72.0138          12.699          12.699 
        1.38675         71.4482         12.5625         12.5625 
        1.39288         71.0447         12.4285         12.4285 
        1.39901          70.696         12.2966         12.2966 
        1.40515         70.2459         12.1662         12.1662 
         1.4113         69.8899         12.0379         12.0379 
        1.41742         69.5387         11.9118         11.9118 
        1.42355         69.2701         11.7873         11.7873 
         1.4297         68.7852         11.6642         11.6642 
        1.43585         68.4614          11.543          11.543 
        1.44198         67.8712         11.4239         11.4239 
        1.44809         67.3802         11.3067         11.3067 
        1.45423         67.4532         11.1907         11.1907 
        1.46036         66.8942         11.0766         11.0766 
        1.46649         66.3992          10.964          10.964 
        1.47263         65.9971         10.8528         10.8528 
        1.47877         65.7366         10.7433         10.7433 
        1.48491         65.3015         10.6351         10.6351 
        1.49104         64.8536         10.5286         10.5286 
        1.49718         64.5905         10.4235         10.4235 
        1.50333         64.3461         10.3197         10.3197 
        1.50947         64.0262         10.2175         10.2175 
         1.5156          63.797         10.1168         10.1168 
        1.52172         63.1467         10.0174         10.0174 
        1.52787         62.9052         9.91923         9.91923 
          1.534         62.5239         9.82246         9.82246 
        1.54013         62.3523         9.72707         9.72707 
        1.54627         61.7747         9.63278         9.63278 
        1.55241         61.7612         9.53972         9.53972 
        1.55855         61.0492         9.44801         9.44801 
        1.56467         60.6732         9.35777         9.35777 
         1.5708         60.4545         9.26844         9.26844 
        1.57695         60.1602         9.18015         9.18015 
        1.58308         59.8975          9.0932          9.0932 
        1.58922         59.6702         9.00732         9.00732 
        1.59535         59.4878         8.92258         8.92258 
         1.6015         58.9915         8.83882         8.83882 
        1.60764         58.6778         8.75616         8.75616 
        1.61376         58.4512         8.67478         8.67478 
        1.61989         57.9276         8.59438         8.59438 
        1.62604         57.8205         8.51481         8.51481 
        1.63218         57.4755         8.43629         8.43629 
        1.63831         57.2018         8.35894         8.35894 
        1.64444          56.923         8.28253         8.28253 
        1.65059         56.5624          8.2069          8.2069 
        1.65673         56.3102         8.13228         8.13228 
        1.66285         55.9168          8.0588          8.0588 
        1.66898         55.5513          7.9862          7.9862 
        1.67512         55.2595         7.91435         7.91435 
        1.68127         55.1395         7.84332         7.84332 
         1.6874         54.7655         7.77331         7.77331 
        1.69353         54.4646          7.7042          7.7042 
        1.69967         54.2289         7.63577         7.63577 
        1.70581         53.9462         7.56819         7.56819 
        1.71193         53.5648         7.50168         7.50168 
        1.71806         53.4303         7.43583         7.43583 
        1.72421         53.1261         7.37064         7.37064 
        1.73035         52.8201         7.30631         7.30631 
        1.73649         52.5214         7.24275         7.24275 
        1.74262         52.2092            7.18            7.18 
        1.74876         52.0832         7.11795         7.11795 
        1.75489         51.7593         7.05676         7.05676 
        1.76101         51.5277         6.99631         6.99631 
        1.76715         51.1879         6.93648         6.93648 
        1.77329         50.9289         6.87727         6.87727 
        1.77943         50.8302         6.81873         6.81873 
        1.78557          50.507         6.76095         6.76095 
        1.79171         50.1214         6.70383         6.70383 
        1.79785         49.9477         6.64736         6.64736 
        1.80399         49.7626         6.59155         6.59155 
        1.81012         49.4088         6.53645         6.53645 
        1.81625         49.2125           6.482           6.482 
        1.82239         48.8662         6.42809         6.42809 
        1.82853         48.7193         6.37482         6.37482 
        1.83466         48.3745          6.3222          6.3222 
        1.84078         48.1394         6.27023         6.27023 
        1.84692          48.094         6.21875         6.21875 
        1.85306         47.7975         6.16779         6.16779 
         1.8592         47.4808         6.11748         6.11748 
        1.86533         47.2859         6.06776         6.06776 
        1.87147         46.9922         6.01853         6.01853 
        1.87761         46.7157         5.96982         5.96982 
