# k  (h/Mpc)    Pcb(k)  (Mpc/h)^3    Pcb_linear(k) (Mpc/h)^3    Pcb_NL(k) (Mpc/h)^3   ShotnoiseSubtracted = false
     0.00783031         425.142         428.692         428.692 
       0.013688         495.131         499.481         499.481 
       0.019231         480.289         481.826         481.826 
      0.0249154         425.705         425.418         425.418 
      0.0312784         352.826         352.444         352.444 
      0.0375637         291.234         291.155         291.155 
      0.0433917         250.757         250.077         250.077 
      0.0492413         222.699         222.538         222.538 
      0.0555754         203.275         202.801         202.801 
      0.0619321         186.476         187.235         187.235 
       0.067871         172.149         172.291         172.291 
      0.0738098         155.369         155.371         155.371 
      0.0800417         136.543         136.274         136.274 
      0.0862327         118.259           118.1           118.1 
      0.0921407         103.525         103.415         103.415 
      0.0982031         92.3881         92.0223         92.0223 
       0.104506         83.9245         83.9804         83.9804 
       0.110769         78.7434         78.7827         78.7827 
       0.116806         75.2088         75.0486         75.0486 
       0.122832         71.2548         71.3545         71.3545 
       0.129052         66.8587         66.8061         66.8061 
       0.135211         61.6394         61.4604         61.4604 
       0.141259         55.9007         55.8349         55.8349 
       0.147318         50.4396         50.4733         50.4733 
       0.153489         45.9367         45.8463         45.8463 
       0.159709         42.4544         42.2939         42.2939 
       0.165845         39.7308         39.8082         39.8082 
       0.171974         38.2055           38.03           38.03 
       0.178125         36.6593         36.5515         36.5515 
       0.184229         35.0304         35.0361         35.0361 
        0.19034         33.4164         33.2718         33.2718 
       0.196428         31.3689         31.2579         31.2579 
       0.202534         29.0677         29.1196         29.1196 
       0.208729         27.1521         27.0334         27.0334 
       0.214876         25.4357         25.2189         25.2189 
       0.220989         23.7947         23.7509         23.7509 
       0.227147         22.7976         22.5982         22.5982 
        0.23329         21.8813         21.6863         21.6863 
       0.239377         21.1004          20.898          20.898 
       0.245482         20.2855         20.1147         20.1147 
       0.251667         19.3575         19.2622         19.2622 
       0.257832         18.5397         18.3417         18.3417 
       0.263955         17.5243         17.3944         17.3944 
       0.270079         16.5993         16.4722         16.4722 
        0.27624          15.709         15.6236         15.6236 
       0.282372          14.989         14.8899         14.8899 
        0.28843         14.4592          14.274          14.274 
       0.294538         13.9037         13.7417         13.7417 
       0.300721         13.3544         13.2573         13.2573 
        0.30691         12.9523          12.792          12.792 
       0.313033         12.4648         12.3266         12.3266 
       0.319153         12.0711         11.8494         11.8494 
       0.325316          11.471         11.3634         11.3634 
        0.33145          10.999         10.8905         10.8905 
       0.337538         10.5764         10.4473         10.4473 
       0.343633            10.2         10.0419         10.0419 
       0.349808          9.8064         9.67193         9.67193 
       0.355968         9.45768         9.33979         9.33979 
       0.362074         9.19333         9.03634         9.03634 
       0.368217          8.8905         8.74623         8.74623 
       0.374374         8.64591         8.46233         8.46233 
       0.380519         8.31523         8.18099         8.18099 
       0.386598         8.02218         7.90587         7.90587 
       0.392688         7.73764         7.63648         7.63648 
        0.39888         7.50477         7.37358         7.37358 
       0.405048         7.26608         7.12714         7.12714 
       0.411186           7.026         6.89831         6.89831 
       0.417313         6.81367         6.68535         6.68535 
       0.423458          6.5866         6.48521         6.48521 
       0.429607          6.4313         6.29455         6.29455 
       0.435692         6.25787         6.11233         6.11233 
       0.441815         6.05538         5.93392         5.93392 
       0.447964         5.85103         5.75901         5.75901 
       0.454126         5.71178         5.58826         5.58826 
       0.460267         5.56981         5.42396         5.42396 
       0.466387         5.40026         5.26736         5.26736 
        0.47254         5.26246         5.11738         5.11738 
       0.478662         5.10704         4.97542         4.97542 
       0.484765         4.97426         4.84074         4.84074 
       0.490885         4.82809         4.71167         4.71167 
       0.497035         4.68941         4.58674         4.58674 
       0.503198         4.58835         4.46545         4.46545 
       0.509342         4.44791         4.34807         4.34807 
       0.515458         4.35206         4.23485         4.23485 
       0.521598         4.24413         4.12485         4.12485 
       0.527764         4.15311         4.01817         4.01817 
       0.533884         4.01877         3.91615         3.91615 
           0.54         3.93118         3.81815         3.81815 
       0.546137         3.82099         3.72373         3.72373 
       0.552299         3.73781         3.63252         3.63252 
       0.558452         3.64719         3.54466         3.54466 
       0.564573         3.56592         3.46001         3.46001 
       0.570708         3.48356          3.3777          3.3777 
       0.576825         3.40474         3.29814         3.29814 
       0.582926         3.31841         3.22125         3.22125 
       0.589034         3.25482         3.14671         3.14671 
       0.595184         3.18986         3.07409         3.07409 
       0.601379         3.10466         3.00334         3.00334 
       0.607522         3.03357         2.93544         2.93544 
       0.613639         2.95948         2.86997         2.86997 
       0.619772         2.90674          2.8064          2.8064 
       0.625918         2.84245         2.74467         2.74467 
       0.632068         2.78554          2.6848          2.6848 
       0.638161         2.72281         2.62725         2.62725 
         0.6443         2.66372         2.57097         2.57097 
       0.650464         2.60871         2.51612         2.51612 
       0.656582         2.56438         2.46324         2.46324 
       0.662703         2.51016         2.41184         2.41184 
       0.668861         2.44533         2.36162         2.36162 
       0.675024         2.40007          2.3128          2.3128 
       0.681124         2.37508         2.26586         2.26586 
       0.687237         2.31584         2.22016         2.22016 
       0.693381         2.25791         2.17552         2.17552 
       0.699536         2.22732         2.13205         2.13205 
       0.705665         2.18362         2.08997         2.08997 
       0.711789         2.13128         2.04907         2.04907 
       0.717957           2.092         2.00899         2.00899 
        0.72409         2.05495          1.9702          1.9702 
       0.730186         2.02752         1.93268         1.93268 
       0.736317         1.97851         1.89592         1.89592 
       0.742472          1.9496         1.85999         1.85999 
       0.748622         1.91496         1.82503         1.82503 
        0.75476         1.87068         1.79104         1.79104 
       0.760888         1.84503         1.75797         1.75797 
       0.767043         1.79473          1.7256          1.7256 
       0.773185         1.77048         1.69412         1.69412 
       0.779291         1.75134         1.66361         1.66361 
       0.785407         1.71431         1.63381         1.63381 
       0.791564         1.68284         1.60455         1.60455 
       0.797719         1.65337         1.57602         1.57602 
       0.803834         1.62543         1.54838         1.54838 
       0.809972         1.59708          1.5213          1.5213 
       0.816124         1.56965         1.49481         1.49481 
       0.822261         1.54572         1.46902         1.46902 
       0.828378         1.51786         1.44393         1.44393 
       0.834502         1.49204         1.41939         1.41939 
       0.840667         1.47167         1.39528         1.39528 
       0.846816          1.4445         1.37179         1.37179 
       0.852925         1.41881         1.34899         1.34899 
       0.859047          1.3963         1.32667         1.32667 
       0.865192         1.37419         1.30478         1.30478 
       0.871341         1.35485         1.28337         1.28337 
       0.877463         1.32851         1.26254         1.26254 
       0.883569         1.30928         1.24222         1.24222 
       0.889708         1.29148         1.22225         1.22225 
       0.895864         1.27119         1.20267         1.20267 
       0.902008         1.24709         1.18356         1.18356 
       0.908149         1.23095         1.16488         1.16488 
       0.914301         1.21434         1.14657         1.14657 
       0.920448         1.19697         1.12868         1.12868 
       0.926574         1.18183         1.11123         1.11123 
       0.932687         1.16252         1.09418         1.09418 
       0.938823         1.13952         1.07744         1.07744 
       0.944975         1.12715           1.061           1.061 
       0.951105         1.10417         1.04497         1.04497 
       0.957225         1.09107          1.0293          1.0293 
       0.963368         1.07771         1.01389         1.01389 
       0.969511         1.06345        0.998802        0.998802 
       0.975621         1.04394        0.984101        0.984101 
       0.981748         1.02498        0.969658        0.969658 
       0.987916         1.01299        0.955415        0.955415 
        0.99406         1.00174        0.941512        0.941512 
        1.00019        0.986904        0.927913        0.927913 
        1.00632        0.976324        0.914596        0.914596 
        1.01246        0.961259        0.901521        0.901521 
        1.01859         0.94815        0.888722        0.888722 
        1.02471        0.931518        0.876188        0.876188 
        1.03085        0.918522        0.863853        0.863853 
        1.03698        0.908497        0.851782        0.851782 
        1.04314        0.895556         0.83989         0.83989 
        1.04929        0.886216        0.828253        0.828253 
        1.05541        0.870025        0.816883        0.816883 
        1.06154        0.861111        0.805699        0.805699 
        1.06769        0.850833        0.794708        0.794708 
        1.07382        0.838128        0.783957        0.783957 
        1.07993        0.827149         0.77343         0.77343 
        1.08607        0.817533        0.763054        0.763054 
        1.09222        0.805033        0.752857        0.752857 
        1.09836         0.79722        0.742859        0.742859 
        1.10449        0.783536        0.733055        0.733055 
        1.11063        0.773706        0.723416        0.723416 
        1.11677        0.765706        0.713955        0.713955 
         1.1229        0.753157         0.70468         0.70468 
        1.12903        0.746397        0.695561        0.695561 
        1.13518        0.735603        0.686596        0.686596 
        1.14131        0.727339        0.677795        0.677795 
        1.14745        0.720221        0.669152        0.669152 
        1.15359        0.709474        0.660659        0.660659 
        1.15973        0.701611         0.65231         0.65231 
        1.16584        0.692179        0.644142        0.644142 
        1.17197        0.682657        0.636103        0.636103 
        1.17811         0.67425        0.628176        0.628176 
        1.18424        0.666521        0.620408        0.620408 
        1.19038         0.65748        0.612748        0.612748 
        1.19652        0.652043        0.605221        0.605221 
        1.20267        0.645248         0.59782         0.59782 
        1.20881        0.634152        0.590545        0.590545 
        1.21495        0.628288        0.583402        0.583402 
        1.22108        0.621354        0.576378        0.576378 
         1.2272        0.612111        0.569487        0.569487 
        1.23334        0.606104        0.562692        0.562692 
        1.23949        0.600032        0.555992        0.555992 
        1.24562        0.592748        0.549419        0.549419 
        1.25174        0.586623        0.542962        0.542962 
        1.25789        0.577609         0.53659         0.53659 
        1.26402        0.572279         0.53033         0.53033 
        1.27014        0.563817        0.524186        0.524186 
        1.27628        0.559595         0.51812         0.51812 
        1.28244        0.552939        0.512139        0.512139 
        1.28858        0.545728         0.50626         0.50626 
        1.29471        0.539798        0.500486        0.500486 
        1.30084        0.534263        0.494807        0.494807 
        1.30697        0.530094        0.489208        0.489208 
        1.31312        0.523386        0.483688        0.483688 
        1.31925        0.517495         0.47827         0.47827 
        1.32537        0.512054        0.472941        0.472941 
        1.33151          0.5061        0.467673        0.467673 
        1.33765        0.500591        0.462489        0.462489 
        1.34378        0.494616        0.457394        0.457394 
        1.34992        0.491053        0.452371        0.452371 
        1.35606        0.484594        0.447414        0.447414 
         1.3622        0.479946        0.442539        0.442539 
        1.36833        0.475339        0.437749        0.437749 
        1.37445        0.470162        0.433032        0.433032 
        1.38059        0.465253         0.42837         0.42837 
        1.38675        0.459947        0.423765        0.423765 
        1.39288        0.454806        0.419246        0.419246 
        1.39901        0.450655        0.414795        0.414795 
        1.40515        0.445655        0.410399        0.410399 
         1.4113         0.44274        0.406068        0.406068 
        1.41742         0.43726        0.401816        0.401816 
        1.42355        0.431136        0.397617        0.397617 
         1.4297        0.428571        0.393465        0.393465 
        1.43585        0.423274        0.389374        0.389374 
        1.44198        0.419726        0.385357        0.385357 
        1.44809        0.414961        0.381403        0.381403 
        1.45423        0.411019        0.377491        0.377491 
        1.46036        0.406966        0.373641        0.373641 
        1.46649        0.402824        0.369843        0.369843 
        1.47263        0.398048        0.366095        0.366095 
        1.47877        0.396648          0.3624          0.3624 
        1.48491        0.390026         0.35875         0.35875 
        1.49104        0.388518        0.355158        0.355158 
        1.49718        0.383046        0.351612        0.351612 
        1.50333        0.380185         0.34811         0.34811 
        1.50947        0.376723        0.344661        0.344661 
         1.5156        0.372856        0.341265        0.341265 
        1.52172        0.369567        0.337914        0.337914 
        1.52787        0.365049        0.334601        0.334601 
          1.534        0.362731        0.331337        0.331337 
        1.54013         0.35893        0.328119        0.328119 
        1.54627        0.355655        0.324939        0.324939 
        1.55241        0.352114        0.321799        0.321799 
        1.55855        0.348799        0.318706        0.318706 
        1.56467        0.345798        0.315662        0.315662 
         1.5708        0.342289        0.312649        0.312649 
        1.57695         0.33886         0.30967         0.30967 
        1.58308        0.335105        0.306737        0.306737 
        1.58922        0.333081         0.30384         0.30384 
        1.59535        0.329396        0.300982        0.300982 
         1.6015        0.326531        0.298156        0.298156 
        1.60764        0.323463        0.295368        0.295368 
        1.61376        0.320585        0.292623        0.292623 
        1.61989        0.317637        0.289911        0.289911 
        1.62604        0.314409        0.287227        0.287227 
        1.63218        0.312331        0.284578        0.284578 
        1.63831        0.309015        0.281969        0.281969 
        1.64444        0.306781        0.279391        0.279391 
        1.65059         0.30342         0.27684         0.27684 
        1.65673        0.300795        0.274323        0.274323 
        1.66285        0.298456        0.271844        0.271844 
        1.66898         0.29581        0.269395        0.269395 
        1.67512        0.292542        0.266972        0.266972 
        1.68127        0.289902        0.264576        0.264576 
         1.6874        0.288189        0.262214        0.262214 
        1.69353        0.285091        0.259883        0.259883 
        1.69967        0.282863        0.257574        0.257574 
        1.70581        0.280805        0.255295        0.255295 
        1.71193        0.278566        0.253051        0.253051 
        1.71806        0.275905         0.25083         0.25083 
        1.72421        0.273205        0.248631        0.248631 
        1.73035        0.270521        0.246461        0.246461 
        1.73649        0.269199        0.244317        0.244317 
        1.74262        0.266066          0.2422          0.2422 
        1.74876         0.26444        0.240107        0.240107 
        1.75489        0.262246        0.238043        0.238043 
        1.76101         0.25969        0.236004        0.236004 
        1.76715        0.257639        0.233985        0.233985 
        1.77329        0.255373        0.231988        0.231988 
        1.77943        0.253204        0.230014        0.230014 
        1.78557        0.251855        0.228065        0.228065 
        1.79171         0.24956        0.226138        0.226138 
        1.79785        0.247139        0.224233        0.224233 
        1.80399        0.244472         0.22235         0.22235 
        1.81012        0.243191        0.220492        0.220492 
        1.81625        0.241571        0.218655        0.218655 
        1.82239        0.239785        0.216836        0.216836 
        1.82853        0.237218        0.215039        0.215039 
        1.83466        0.235299        0.213264        0.213264 
        1.84078        0.233222        0.211511        0.211511 
        1.84692        0.231663        0.209775        0.209775 
        1.85306         0.22992        0.208056        0.208056 
         1.8592        0.228039        0.206359        0.206359 
        1.86533        0.226478        0.204681        0.204681 
        1.87147        0.224005        0.203021        0.203021 
