# k  (h/Mpc)    P(k)  (Mpc/h)^3    P_linear(k)  (Mpc/h)^3     P_NL(k)  ShotnoiseSubtracted = false
     0.00783031         17560.2         17651.3         17651.3 
       0.013688         19975.8         20523.7         20523.7 
       0.019231         19482.4         19785.4         19785.4 
      0.0249154         17547.1         17463.5         17463.5 
      0.0312784         14358.9         14465.1         14465.1 
      0.0375637         11779.5         11948.3         11948.3 
      0.0433917         10242.7         10261.9         10261.9 
      0.0492413         9054.91         9131.36         9131.36 
      0.0555754          8310.7         8321.19         8321.19 
      0.0619321         7444.11         7682.28         7682.28 
       0.067871         6956.25         7068.99         7068.99 
      0.0738098         6351.14         6374.66         6374.66 
      0.0800417          5614.9         5591.06         5591.06 
      0.0862327         4873.28         4845.36         4845.36 
      0.0921407         4325.78         4242.85         4242.85 
      0.0982031         3923.62         3775.41         3775.41 
       0.104506         3526.29         3445.45         3445.45 
       0.110769         3323.08         3232.19         3232.19 
       0.116806         3203.25         3078.98         3078.98 
       0.122832         3016.19         2927.41         2927.41 
       0.129052         2819.99          2740.8          2740.8 
       0.135211         2681.96         2521.48         2521.48 
       0.141259         2429.17         2290.68         2290.68 
       0.147318         2212.76         2070.71         2070.71 
       0.153489         2054.67         1880.88         1880.88 
       0.159709         1963.71         1735.14         1735.14 
       0.165845         1807.27         1633.16         1633.16 
       0.171974         1770.49          1560.2          1560.2 
       0.178125         1714.81         1499.55         1499.55 
       0.184229         1585.26         1437.37         1437.37 
        0.19034         1550.24         1364.99         1364.99 
       0.196428         1491.13         1282.37         1282.37 
       0.202534         1382.36         1194.64         1194.64 
       0.208729         1346.63         1109.06         1109.06 
       0.214876         1274.85         1034.61         1034.61 
       0.220989         1204.97         974.383         974.383 
       0.227147         1171.87         927.091         927.091 
        0.23329         1126.59         889.685         889.685 
       0.239377         1118.34         857.344         857.344 
       0.245482         1062.42         825.208         825.208 
       0.251667         1021.91         790.237         790.237 
       0.257832         1001.96         752.472         752.472 
       0.263955         950.496         713.609         713.609 
       0.270079         918.147         675.774         675.774 
        0.27624         878.516         640.958         640.958 
       0.282372         863.665         610.858         610.858 
        0.28843         849.052         585.592         585.592 
       0.294538         807.577         563.753         563.753 
       0.300721         789.813          543.88          543.88 
        0.30691         770.813         524.793         524.793 
       0.313033          737.63           505.7           505.7 
       0.319153         727.697         486.122         486.122 
       0.325316         716.446         466.184         466.184 
        0.33145          698.14         446.781         446.781 
       0.337538          672.81         428.599         428.599 
       0.343633         655.548         411.968         411.968 
       0.349808         640.956         396.789         396.789 
       0.355968         628.186         383.165         383.165 
       0.362074         605.177         370.716         370.716 
       0.368217         602.481         358.813         358.813 
       0.374374         592.935         347.169         347.169 
       0.380519         569.475         335.624         335.624 
       0.386598         564.301         324.338         324.338 
       0.392688         549.537         313.286         313.286 
        0.39888         536.598           302.5           302.5 
       0.405048         524.348         292.391         292.391 
       0.411186         523.676         283.002         283.002 
       0.417313         517.048         274.266         274.266 
       0.423458         502.818         266.055         266.055 
       0.429607         487.687         258.234         258.234 
       0.435692          481.36         250.757         250.757 
       0.441815         472.533         243.438         243.438 
       0.447964         463.506         236.263         236.263 
       0.454126         458.209         229.257         229.257 
       0.460267         450.707         222.517         222.517 
       0.466387         441.251         216.093         216.093 
        0.47254         435.768          209.94          209.94 
       0.478662         427.136         204.115         204.115 
       0.484765         421.029         198.591         198.591 
       0.490885         417.496         193.295         193.295 
       0.497035         407.586         188.171         188.171 
       0.503198           406.9         183.194         183.194 
       0.509342         398.426         178.379         178.379 
       0.515458          390.47         173.734         173.734 
       0.521598         386.785         169.221         169.221 
       0.527764         379.428         164.845         164.845 
       0.533884         375.678         160.659         160.659 
           0.54         371.578         156.639         156.639 
       0.546137         364.213         152.765         152.765 
       0.552299         362.588         149.024         149.024 
       0.558452         356.499         145.419         145.419 
       0.564573         354.164         141.946         141.946 
       0.570708         348.611          138.57          138.57 
       0.576825         342.118         135.305         135.305 
       0.582926         340.916         132.151         132.151 
       0.589034         334.421         129.093         129.093 
       0.595184         332.049         126.114         126.114 
       0.601379         326.533         123.212         123.212 
       0.607522         320.042         120.426         120.426 
       0.613639         319.077          117.74          117.74 
       0.619772         317.684         115.132         115.132 
       0.625918         310.951           112.6           112.6 
       0.632068          309.32         110.143         110.143 
       0.638161         306.253         107.782         107.782 
         0.6443         301.666         105.474         105.474 
       0.650464         298.597         103.223         103.223 
       0.656582         295.386         101.054         101.054 
       0.662703         293.745         98.9455         98.9455 
       0.668861         288.123         96.8852         96.8852 
       0.675024         287.095         94.8822         94.8822 
       0.681124         282.035         92.9566         92.9566 
       0.687237         281.055         91.0815         91.0815 
       0.693381         276.482         89.2503         89.2503 
       0.699536         275.945         87.4669         87.4669 
       0.705665         272.091         85.7404         85.7404 
       0.711789         269.566         84.0625         84.0625 
       0.717957         267.283         82.4182         82.4182 
        0.72409         263.607         80.8271         80.8271 
       0.730186         264.592         79.2877         79.2877 
       0.736317         259.927         77.7799         77.7799 
       0.742472         257.768         76.3058         76.3058 
       0.748622         255.555         74.8714         74.8714 
        0.75476         254.018          73.477          73.477 
       0.760888         251.245         72.1202         72.1202 
       0.767043         248.178         70.7925         70.7925 
       0.773185         246.131          69.501          69.501 
       0.779291         243.843         68.2492         68.2492 
       0.785407           242.1         67.0265         67.0265 
       0.791564         240.518         65.8262         65.8262 
       0.797719         236.569          64.656          64.656 
       0.803834         237.286         63.5218         63.5218 
       0.809972         233.601         62.4109         62.4109 
       0.816124         230.887         61.3242         61.3242 
       0.822261         229.242         60.2663         60.2663 
       0.828378         228.246         59.2367         59.2367 
       0.834502         225.074         58.2303         58.2303 
       0.840667         225.132         57.2409         57.2409 
       0.846816         220.997         56.2774         56.2774 
       0.852925         221.155         55.3421         55.3421 
       0.859047          218.72         54.4263         54.4263 
       0.865192         217.803         53.5282         53.5282 
       0.871341           215.2         52.6499         52.6499 
       0.877463         213.758         51.7953         51.7953 
       0.883569         212.718         50.9619         50.9619 
       0.889708         210.809         50.1427         50.1427 
       0.895864         208.009         49.3394         49.3394 
       0.902008         206.784         48.5554         48.5554 
       0.908149         204.917          47.789          47.789 
       0.914301         203.694         47.0379         47.0379 
       0.920448         202.545         46.3037         46.3037 
       0.926574         200.549         45.5878         45.5878 
       0.932687         200.303         44.8885         44.8885 
       0.938823         198.003         44.2015         44.2015 
       0.944975         197.604         43.5273         43.5273 
       0.951105         195.202         42.8696         42.8696 
       0.957225         193.534         42.2266         42.2266 
       0.963368         193.523         41.5946         41.5946 
       0.969511         190.363         40.9756         40.9756 
       0.975621         188.416         40.3725         40.3725 
       0.981748         188.326           39.78           39.78 
       0.987916         187.229         39.1957         39.1957 
        0.99406         185.355         38.6253         38.6253 
        1.00019         184.307         38.0674         38.0674 
        1.00632          183.32         37.5211         37.5211 
        1.01246         181.877         36.9847         36.9847 
        1.01859         179.917         36.4596         36.4596 
        1.02471          178.62         35.9454         35.9454 
        1.03085         177.515         35.4394         35.4394 
        1.03698         177.011         34.9441         34.9441 
        1.04314         176.079         34.4563         34.4563 
        1.04929         174.743         33.9789         33.9789 
        1.05541         173.986         33.5124         33.5124 
        1.06154         172.173         33.0536         33.0536 
        1.06769         171.139         32.6027         32.6027 
        1.07382         169.661         32.1616         32.1616 
        1.07993          168.59         31.7298         31.7298 
        1.08607         168.061         31.3041         31.3041 
        1.09222         166.293         30.8858         30.8858 
        1.09836         165.586         30.4756         30.4756 
        1.10449         164.609         30.0734         30.0734 
        1.11063         163.151          29.678          29.678 
        1.11677         162.067         29.2898         29.2898 
         1.1229         161.663         28.9093         28.9093 
        1.12903         159.764         28.5352         28.5352 
        1.13518         158.967         28.1674         28.1674 
        1.14131         158.326         27.8063         27.8063 
        1.14745         156.611         27.4518         27.4518 
        1.15359         155.799         27.1034         27.1034 
        1.15973         155.199         26.7608         26.7608 
        1.16584         154.117         26.4258         26.4258 
        1.17197         153.441         26.0959         26.0959 
        1.17811         151.936         25.7708         25.7708 
        1.18424         151.081         25.4521         25.4521 
        1.19038         150.473         25.1378         25.1378 
        1.19652         148.715          24.829          24.829 
        1.20267         148.111         24.5254         24.5254 
        1.20881         147.056         24.2269         24.2269 
        1.21495         146.839         23.9339         23.9339 
        1.22108          145.54         23.6458         23.6458 
         1.2272         144.747          23.363          23.363 
        1.23334         143.656         23.0843         23.0843 
        1.23949         142.975         22.8094         22.8094 
        1.24562         141.898         22.5398         22.5398 
        1.25174         141.508         22.2749         22.2749 
        1.25789         140.202         22.0134         22.0134 
        1.26402         139.609         21.7566         21.7566 
        1.27014         138.851         21.5046         21.5046 
        1.27628         138.196         21.2557         21.2557 
        1.28244         136.897         21.0103         21.0103 
        1.28858          136.19         20.7692         20.7692 
        1.29471         135.117         20.5323         20.5323 
        1.30084         134.545         20.2993         20.2993 
        1.30697         133.578         20.0696         20.0696 
        1.31312          132.99         19.8432         19.8432 
        1.31925         131.834         19.6209         19.6209 
        1.32537         131.468         19.4022         19.4022 
        1.33151          130.39         19.1862         19.1862 
        1.33765         129.796         18.9735         18.9735 
        1.34378         129.342         18.7644         18.7644 
        1.34992         128.201         18.5584         18.5584 
        1.35606         127.678          18.355          18.355 
         1.3622          126.75          18.155          18.155 
        1.36833         125.991         17.9585         17.9585 
        1.37445         125.543          17.765          17.765 
        1.38059         124.455         17.5737         17.5737 
        1.38675         123.813         17.3848         17.3848 
        1.39288         123.011         17.1994         17.1994 
        1.39901         122.094         17.0168         17.0168 
        1.40515         121.647         16.8365         16.8365 
         1.4113         120.926         16.6588         16.6588 
        1.41742         120.318         16.4844         16.4844 
        1.42355         119.605         16.3121         16.3121 
         1.4297          118.83         16.1418         16.1418 
        1.43585         118.338         15.9739         15.9739 
        1.44198         117.279         15.8091         15.8091 
        1.44809         116.866          15.647          15.647 
        1.45423         116.335         15.4865         15.4865 
        1.46036         115.463         15.3285         15.3285 
        1.46649         114.662         15.1727         15.1727 
        1.47263          114.16         15.0189         15.0189 
        1.47877         113.464         14.8673         14.8673 
        1.48491         112.717         14.7176         14.7176 
        1.49104         111.853         14.5702         14.5702 
        1.49718         111.431         14.4248         14.4248 
        1.50333         110.566         14.2811         14.2811 
        1.50947          110.32         14.1396         14.1396 
         1.5156         109.414         14.0003         14.0003 
        1.52172         108.769         13.8628         13.8628 
        1.52787         108.461         13.7269         13.7269 
          1.534         107.791          13.593          13.593 
        1.54013         106.921          13.461          13.461 
        1.54627         106.438         13.3305         13.3305 
        1.55241         105.986         13.2017         13.2017 
        1.55855         105.248         13.0748         13.0748 
        1.56467         104.723         12.9499         12.9499 
         1.5708         103.819         12.8263         12.8263 
        1.57695         103.607         12.7041         12.7041 
        1.58308         102.768         12.5838         12.5838 
        1.58922         102.291          12.465          12.465 
        1.59535         101.898         12.3477         12.3477 
         1.6015         101.061         12.2318         12.2318 
        1.60764         100.493         12.1174         12.1174 
        1.61376          100.12         12.0048         12.0048 
        1.61989          99.592         11.8935         11.8935 
        1.62604         98.8689         11.7834         11.7834 
        1.63218         98.3888         11.6747         11.6747 
        1.63831         97.7383         11.5677         11.5677 
        1.64444          97.046         11.4619         11.4619 
        1.65059         96.7051         11.3573         11.3573 
        1.65673          96.351          11.254          11.254 
        1.66285         95.9505         11.1523         11.1523 
        1.66898         95.1116         11.0518         11.0518 
        1.67512         94.2927         10.9524         10.9524 
        1.68127         94.2136         10.8541         10.8541 
         1.6874         93.6139         10.7572         10.7572 
        1.69353         92.9956         10.6616         10.6616 
        1.69967         92.4589         10.5669         10.5669 
        1.70581         92.0383         10.4734         10.4734 
        1.71193         91.5011         10.3813         10.3813 
        1.71806         90.6981         10.2902         10.2902 
        1.72421         90.2879            10.2            10.2 
        1.73035          89.863          10.111          10.111 
        1.73649         89.4441          10.023          10.023 
        1.74262          88.907         9.93618         9.93618 
        1.74876         88.2313         9.85031         9.85031 
        1.75489         88.1595         9.76563         9.76563 
        1.76101         87.5718         9.68197         9.68197 
        1.76715         86.8695         9.59917         9.59917 
        1.77329         86.4115         9.51724         9.51724 
        1.77943         85.9485         9.43622         9.43622 
        1.78557         85.6113         9.35627         9.35627 
        1.79171         85.0028         9.27722         9.27722 
        1.79785         84.4903         9.19907         9.19907 
        1.80399         84.0425         9.12184         9.12184 
        1.81012         83.4892         9.04559         9.04559 
        1.81625         83.0668         8.97024         8.97024 
        1.82239         82.7415         8.89563         8.89563 
        1.82853         82.0529         8.82191         8.82191 
        1.83466         81.5023         8.74909         8.74909 
        1.84078         81.3979         8.67717         8.67717 
        1.84692         81.0353         8.60594         8.60594 
        1.85306         80.5433         8.53541         8.53541 
         1.8592         80.1612         8.46579         8.46579 
        1.86533         79.6149         8.39698         8.39698 
        1.87147         79.1373         8.32885         8.32885 
        1.87761         78.5804         8.26145         8.26145 
