# k  (h/Mpc)    P(k)  (Mpc/h)^3    P_linear(k)  (Mpc/h)^3     P_NL(k)  ShotnoiseSubtracted = false
     0.00783031         20525.4         20627.1         20627.1 
       0.013688         23291.5         23977.1         23977.1 
       0.019231         22724.7         23112.7         23112.7 
      0.0249154         20495.4         20399.6         20399.6 
      0.0312784         16747.7         16896.7         16896.7 
      0.0375637         13733.4         13956.6         13956.6 
      0.0433917         11949.9         11986.6         11986.6 
      0.0492413         10561.7         10666.1         10666.1 
      0.0555754         9692.18         9719.69         9719.69 
      0.0619321         8666.63         8973.38         8973.38 
       0.067871         8101.46            8257            8257 
      0.0738098         7409.83         7445.97         7445.97 
      0.0800417          6552.1         6530.67         6530.67 
      0.0862327         5692.38         5659.64         5659.64 
      0.0921407         5064.48         4955.87         4955.87 
      0.0982031         4601.08         4409.87         4409.87 
       0.104506         4134.76         4024.46         4024.46 
       0.110769         3897.86         3775.36         3775.36 
       0.116806         3754.78          3596.4          3596.4 
       0.122832         3539.45         3419.36         3419.36 
       0.129052         3302.92         3201.39         3201.39 
       0.135211         3152.46         2945.21         2945.21 
       0.141259         2856.79         2675.62         2675.62 
       0.147318         2611.07         2418.69         2418.69 
       0.153489         2428.98         2196.95         2196.95 
       0.159709         2328.56         2026.72         2026.72 
       0.165845         2145.11          1907.6          1907.6 
       0.171974         2097.77         1822.39         1822.39 
       0.178125         2035.87         1751.54         1751.54 
       0.184229         1877.36         1678.92         1678.92 
        0.19034         1841.02         1594.37         1594.37 
       0.196428         1774.22         1497.86         1497.86 
       0.202534         1651.73          1395.4          1395.4 
       0.208729          1609.7         1295.43         1295.43 
       0.214876         1524.17         1208.48         1208.48 
       0.220989          1448.3         1138.12         1138.12 
       0.227147         1406.71         1082.88         1082.88 
        0.23329          1352.1         1039.19         1039.19 
       0.239377         1344.95         1001.42         1001.42 
       0.245482         1279.71          963.88          963.88 
       0.251667         1232.05         923.032         923.032 
       0.257832         1206.95         878.921         878.921 
       0.263955         1148.69         833.528         833.528 
       0.270079         1113.26         789.334         789.334 
        0.27624         1066.17         748.668         748.668 
       0.282372          1051.3          713.51          713.51 
        0.28843         1029.67         683.998         683.998 
       0.294538         982.522         658.489         658.489 
       0.300721         963.378         635.276         635.276 
        0.30691         937.572         612.982         612.982 
       0.313033         900.354          590.68          590.68 
       0.319153         889.987         567.813         567.813 
       0.325316         876.815         544.524         544.524 
        0.33145         854.527          521.86          521.86 
       0.337538         825.226         500.623         500.623 
       0.343633         805.648         481.197         481.197 
       0.349808         789.437         463.467         463.467 
       0.355968         773.196         447.553         447.553 
       0.362074         746.881         433.013         433.013 
       0.368217         743.436         419.109         419.109 
       0.374374         732.185         405.509         405.509 
       0.380519         704.926         392.024         392.024 
       0.386598         699.632         378.841         378.841 
       0.392688         681.128         365.932         365.932 
        0.39888         667.263         353.333         353.333 
       0.405048         651.646         341.526         341.526 
       0.411186         651.133         330.559         330.559 
       0.417313         643.284         320.355         320.355 
       0.423458         626.031         310.764         310.764 
       0.429607         608.211         301.629         301.629 
       0.435692         601.118         292.896         292.896 
       0.441815         589.818         284.347         284.347 
       0.447964         580.752         275.966         275.966 
       0.454126         573.568         267.783         267.783 
       0.460267         565.578          259.91          259.91 
       0.466387         553.304         252.406         252.406 
        0.47254         547.243         245.219         245.219 
       0.478662         536.988         238.416         238.416 
       0.484765         529.589         231.963         231.963 
       0.490885         525.774         225.778         225.778 
       0.497035         513.328         219.792         219.792 
       0.503198         512.427         213.979         213.979 
       0.509342          502.52         208.355         208.355 
       0.515458         492.594         202.929         202.929 
       0.521598         490.429         197.658         197.658 
       0.527764         479.477         192.546         192.546 
       0.533884         473.808         187.657         187.657 
           0.54          470.19         182.961         182.961 
       0.546137         462.129         178.437         178.437 
       0.552299         459.299         174.066         174.066 
       0.558452         452.377         169.856         169.856 
       0.564573          450.25           165.8           165.8 
       0.570708         443.509         161.856         161.856 
       0.576825         435.341         158.043         158.043 
       0.582926         434.125         154.358         154.358 
       0.589034         426.371         150.786         150.786 
       0.595184         422.845         147.307         147.307 
       0.601379         415.918         143.917         143.917 
       0.607522         408.802         140.663         140.663 
       0.613639         407.818         137.526         137.526 
       0.619772         405.251         134.479         134.479 
       0.625918         397.482         131.521         131.521 
       0.632068         396.297         128.652         128.652 
       0.638161         391.255         125.895         125.895 
         0.6443         385.957         123.198         123.198 
       0.650464         382.772         120.569         120.569 
       0.656582         378.889         118.035         118.035 
       0.662703         376.272         115.573         115.573 
       0.668861         370.202         113.166         113.166 
       0.675024         368.961         110.827         110.827 
       0.681124         361.044         108.577         108.577 
       0.687237         360.851         106.387         106.387 
       0.693381         355.317         104.248         104.248 
       0.699536         355.279         102.165         102.165 
       0.705665         349.623         100.149         100.149 
       0.711789         347.776         98.1887         98.1887 
       0.717957          344.24         96.2681         96.2681 
        0.72409         340.212         94.4097         94.4097 
       0.730186         340.463         92.6115         92.6115 
       0.736317         334.766         90.8504         90.8504 
       0.742472         332.119         89.1286         89.1286 
       0.748622         330.711         87.4531         87.4531 
        0.75476         326.609         85.8243         85.8243 
       0.760888         324.699         84.2396         84.2396 
       0.767043         321.346         82.6887         82.6887 
       0.773185         318.513         81.1802         81.1802 
       0.779291         315.808          79.718          79.718 
       0.785407         313.372         78.2899         78.2899 
       0.791564         311.829         76.8879         76.8879 
       0.797719          306.91         75.5211         75.5211 
       0.803834          307.12         74.1963         74.1963 
       0.809972         302.251         72.8987         72.8987 
       0.816124         300.129         71.6293         71.6293 
       0.822261         297.901         70.3937         70.3937 
       0.828378         296.329         69.1911         69.1911 
       0.834502         291.913         68.0156         68.0156 
       0.840667         291.466         66.8599         66.8599 
       0.846816         287.673         65.7344         65.7344 
       0.852925         287.949         64.6421         64.6421 
       0.859047         284.176         63.5723         63.5723 
       0.865192         282.825         62.5233         62.5233 
       0.871341         279.682         61.4974         61.4974 
       0.877463         278.468         60.4992         60.4992 
       0.883569         276.585         59.5258         59.5258 
       0.889708         273.876         58.5688         58.5688 
       0.895864         270.318         57.6305         57.6305 
       0.902008         269.406         56.7148         56.7148 
       0.908149         266.545         55.8196         55.8196 
       0.914301         265.745         54.9423         54.9423 
       0.920448         262.794         54.0847         54.0847 
       0.926574         260.978         53.2485         53.2485 
       0.932687         260.609         52.4318         52.4318 
       0.938823         257.676         51.6293         51.6293 
       0.944975          257.36         50.8418         50.8418 
       0.951105         254.693         50.0736         50.0736 
       0.957225         251.973         49.3225         49.3225 
       0.963368         252.119         48.5844         48.5844 
       0.969511         248.312         47.8613         47.8613 
       0.975621         245.898         47.1568         47.1568 
       0.981748          245.68         46.4648         46.4648 
       0.987916          244.12         45.7823         45.7823 
        0.99406         241.484          45.116          45.116 
        1.00019         239.657         44.4644         44.4644 
        1.00632         238.909         43.8263         43.8263 
        1.01246         237.178         43.1997         43.1997 
        1.01859         234.794         42.5864         42.5864 
        1.02471         233.157         41.9858         41.9858 
        1.03085         232.024         41.3947         41.3947 
        1.03698         230.884         40.8163         40.8163 
        1.04314         229.632         40.2464         40.2464 
        1.04929         227.936         39.6888         39.6888 
        1.05541         226.943          39.144          39.144 
        1.06154         224.552         38.6081         38.6081 
        1.06769         223.061         38.0814         38.0814 
        1.07382         220.969         37.5662         37.5662 
        1.07993         220.443         37.0618         37.0618 
        1.08607         219.099         36.5645         36.5645 
        1.09222         217.057         36.0759         36.0759 
        1.09836         215.874         35.5968         35.5968 
        1.10449         214.803          35.127          35.127 
        1.11063         213.345         34.6652         34.6652 
        1.11677         211.172         34.2118         34.2118 
         1.1229         211.167         33.7673         33.7673 
        1.12903         208.577         33.3304         33.3304 
        1.13518         207.426         32.9008         32.9008 
        1.14131         206.363          32.479          32.479 
        1.14745         204.585         32.0649         32.0649 
        1.15359         203.373         31.6579         31.6579 
        1.15973         202.475         31.2578         31.2578 
        1.16584         201.123         30.8664         30.8664 
        1.17197         200.173         30.4812         30.4812 
        1.17811         197.924         30.1014         30.1014 
        1.18424         196.988         29.7291         29.7291 
        1.19038          196.25         29.3621         29.3621 
        1.19652         193.989         29.0014         29.0014 
        1.20267         193.318         28.6468         28.6468 
        1.20881         192.047         28.2981         28.2981 
        1.21495         191.082         27.9558         27.9558 
        1.22108          189.82         27.6193         27.6193 
         1.2272         188.484          27.289          27.289 
        1.23334          187.04         26.9635         26.9635 
        1.23949         186.291         26.6424         26.6424 
        1.24562         184.902         26.3274         26.3274 
        1.25174         184.406          26.018          26.018 
        1.25789         182.563         25.7127         25.7127 
        1.26402         181.898         25.4127         25.4127 
        1.27014         180.789         25.1183         25.1183 
        1.27628         179.912         24.8276         24.8276 
        1.28244         178.109          24.541          24.541 
        1.28858         177.395         24.2593         24.2593 
        1.29471         175.981         23.9826         23.9826 
        1.30084         175.657         23.7105         23.7105 
        1.30697         174.183         23.4422         23.4422 
        1.31312         173.357         23.1777         23.1777 
        1.31925         172.173         22.9181         22.9181 
        1.32537         171.573         22.6627         22.6627 
        1.33151         169.777         22.4103         22.4103 
        1.33765         169.183         22.1618         22.1618 
        1.34378         168.417         21.9177         21.9177 
        1.34992         166.827          21.677          21.677 
        1.35606         166.228         21.4395         21.4395 
         1.3622         164.716         21.2059         21.2059 
        1.36833         164.432         20.9763         20.9763 
        1.37445         163.587         20.7503         20.7503 
        1.38059         161.828         20.5269         20.5269 
        1.38675         160.748         20.3062         20.3062 
        1.39288         160.175         20.0897         20.0897 
        1.39901         158.943         19.8764         19.8764 
        1.40515         158.079         19.6657         19.6657 
         1.4113         157.515         19.4582         19.4582 
        1.41742          156.35         19.2545         19.2545 
        1.42355         155.111         19.0532         19.0532 
         1.4297         154.403         18.8543         18.8543 
        1.43585         153.909         18.6583         18.6583 
        1.44198         152.537         18.4658         18.4658 
        1.44809         152.039         18.2763         18.2763 
        1.45423         151.112         18.0889         18.0889 
        1.46036         150.351         17.9044         17.9044 
        1.46649         148.986         17.7224         17.7224 
        1.47263         148.533         17.5427         17.5427 
        1.47877         147.568         17.3657         17.3657 
        1.48491         146.442         17.1908         17.1908 
        1.49104         145.347         17.0187         17.0187 
        1.49718          144.76         16.8488         16.8488 
        1.50333         143.573         16.6809         16.6809 
        1.50947         143.024         16.5157         16.5157 
         1.5156         142.069         16.3529         16.3529 
        1.52172         141.265         16.1924         16.1924 
        1.52787          140.64         16.0336         16.0336 
          1.534         140.003         15.8772         15.8772 
        1.54013         139.033          15.723          15.723 
        1.54627          138.27         15.5706         15.5706 
        1.55241         137.502         15.4202         15.4202 
        1.55855         136.587          15.272          15.272 
        1.56467         135.803         15.1261         15.1261 
         1.5708         135.077         14.9817         14.9817 
        1.57695         134.397          14.839          14.839 
        1.58308         133.331         14.6984         14.6984 
        1.58922         132.583         14.5596         14.5596 
        1.59535         131.843         14.4226         14.4226 
         1.6015         131.022         14.2872         14.2872 
        1.60764         130.194         14.1536         14.1536 
        1.61376         129.634         14.0221         14.0221 
        1.61989          128.82         13.8921         13.8921 
        1.62604         128.287         13.7635         13.7635 
        1.63218         127.317         13.6366         13.6366 
        1.63831         126.683         13.5116         13.5116 
        1.64444         125.722          13.388          13.388 
        1.65059         125.107         13.2658         13.2658 
        1.65673         124.374         13.1452         13.1452 
        1.66285         123.838         13.0264         13.0264 
        1.66898         123.098          12.909          12.909 
        1.67512         121.962         12.7929         12.7929 
        1.68127         121.698         12.6781         12.6781 
         1.6874         120.904         12.5649         12.5649 
        1.69353          120.26         12.4532         12.4532 
        1.69967         119.583         12.3426         12.3426 
        1.70581         118.858         12.2334         12.2334 
        1.71193         118.359         12.1259         12.1259 
        1.71806         117.314         12.0194         12.0194 
        1.72421         116.601         11.9141         11.9141 
        1.73035         116.277         11.8101         11.8101 
        1.73649         115.581         11.7073         11.7073 
        1.74262         114.651         11.6059         11.6059 
        1.74876         113.983         11.5056         11.5056 
        1.75489         113.861         11.4067         11.4067 
        1.76101         112.865          11.309          11.309 
        1.76715          112.24         11.2123         11.2123 
        1.77329         111.606         11.1165         11.1165 
        1.77943          110.78         11.0219         11.0219 
        1.78557         110.097         10.9285         10.9285 
        1.79171          109.48         10.8362         10.8362 
        1.79785         108.849         10.7449         10.7449 
        1.80399          108.23         10.6547         10.6547 
        1.81012         107.903         10.5656         10.5656 
        1.81625         106.959         10.4776         10.4776 
        1.82239          106.66         10.3905         10.3905 
        1.82853         105.828         10.3044         10.3044 
        1.83466         105.057         10.2193         10.2193 
        1.84078         104.746         10.1353         10.1353 
        1.84692         104.068         10.0521         10.0521 
        1.85306         103.418         9.96974         9.96974 
         1.8592         102.906         9.88841         9.88841 
        1.86533         102.258         9.80804         9.80804 
        1.87147         101.578         9.72847         9.72847 
        1.87761         101.169         9.64974         9.64974 
