# k  (h/Mpc)    Pcb(k)  (Mpc/h)^3    Pcb_linear(k) (Mpc/h)^3    Pcb_NL(k) (Mpc/h)^3   ShotnoiseSubtracted = false
     0.00783031         948.328         955.917         955.917 
       0.013688         1102.16         1113.52         1113.52 
       0.019231         1069.74         1074.08         1074.08 
      0.0249154         949.661         948.301         948.301 
      0.0312784         786.288         785.618         785.618 
      0.0375637         648.578         648.993         648.993 
      0.0433917         559.037         557.425         557.425 
      0.0492413         496.191         496.037         496.037 
      0.0555754         453.366         452.042         452.042 
      0.0619321          414.85         417.344         417.344 
       0.067871         383.617         384.034         384.034 
      0.0738098         346.409         346.318         346.318 
      0.0800417         304.648         303.751         303.751 
      0.0862327         263.728         263.241         263.241 
      0.0921407          230.91         230.509         230.509 
      0.0982031         206.342         205.115         205.115 
       0.104506         187.098          187.19          187.19 
       0.110769         175.627         175.604         175.604 
       0.116806         168.025         167.281         167.281 
       0.122832         158.954         159.047         159.047 
       0.129052         149.284         148.908         148.908 
       0.135211         137.836         136.993         136.993 
       0.141259         124.912         124.454         124.454 
       0.147318         112.612         112.503         112.503 
       0.153489           102.7          102.19          102.19 
       0.159709          95.086         94.2714         94.2714 
       0.165845         88.7393         88.7309         88.7309 
       0.171974         85.6462         84.7675         84.7675 
       0.178125         82.1463         81.4719         81.4719 
       0.184229         78.3471         78.0941         78.0941 
        0.19034         74.8904         74.1617         74.1617 
       0.196428         70.3488         69.6726         69.6726 
       0.202534         65.0278         64.9065         64.9065 
       0.208729         60.9807         60.2564         60.2564 
       0.214876         57.2525          56.212          56.212 
       0.220989         53.3993         52.9397         52.9397 
       0.227147         51.3483         50.3704         50.3704 
        0.23329         49.3059         48.3379         48.3379 
       0.239377         47.6025         46.5808         46.5808 
       0.245482         45.6948         44.8348         44.8348 
       0.251667           43.56         42.9347         42.9347 
       0.257832         41.8904         40.8829         40.8829 
       0.263955         39.5068         38.7715         38.7715 
       0.270079         37.4464         36.7159         36.7159 
        0.27624         35.4339         34.8244         34.8244 
       0.282372         33.8558         33.1889         33.1889 
        0.28843         32.7948         31.8162         31.8162 
       0.294538         31.4995         30.6296         30.6296 
       0.300721         30.2012         29.5499         29.5499 
        0.30691         29.3743         28.5129         28.5129 
       0.313033         28.2365         27.4756         27.4756 
       0.319153         27.4336         26.4119         26.4119 
       0.325316         26.0213         25.3286         25.3286 
        0.33145         24.9554         24.2744         24.2744 
       0.337538         24.0257         23.2866         23.2866 
       0.343633         23.2021         22.3829         22.3829 
       0.349808         22.3087         21.5583         21.5583 
       0.355968         21.5179          20.818          20.818 
       0.362074          20.977         20.1416         20.1416 
       0.368217          20.285          19.495          19.495 
       0.374374         19.7605         18.8622         18.8622 
       0.380519         18.9622         18.2351         18.2351 
       0.386598         18.2964         17.6219         17.6219 
       0.392688         17.6495         17.0214         17.0214 
        0.39888         17.1684         16.4354         16.4354 
       0.405048         16.6475         15.8861         15.8861 
       0.411186         16.0977          15.376          15.376 
       0.417313         15.6076         14.9014         14.9014 
       0.423458         15.0869         14.4553         14.4553 
       0.429607          14.768         14.0303         14.0303 
       0.435692         14.4054         13.6241         13.6241 
       0.441815         13.8955         13.2265         13.2265 
       0.447964          13.412         12.8366         12.8366 
       0.454126         13.1298          12.456          12.456 
       0.460267         12.8507         12.0898         12.0898 
       0.466387         12.4486         11.7407         11.7407 
        0.47254         12.1633         11.4064         11.4064 
       0.478662         11.7868           11.09           11.09 
       0.484765         11.4852         10.7898         10.7898 
       0.490885         11.1374         10.5021         10.5021 
       0.497035         10.8392         10.2237         10.2237 
       0.503198         10.6168         9.95329         9.95329 
       0.509342         10.2813         9.69167         9.69167 
       0.515458         10.0834         9.43929         9.43929 
       0.521598         9.83779         9.19411         9.19411 
       0.527764         9.64531         8.95633         8.95633 
       0.533884          9.3294         8.72893         8.72893 
           0.54         9.13752         8.51049         8.51049 
       0.546137         8.86176         8.30003         8.30003 
       0.552299         8.68188         8.09673         8.09673 
       0.558452         8.46902         7.90089         7.90089 
       0.564573         8.30218         7.71221         7.71221 
       0.570708         8.10825         7.52876         7.52876 
       0.576825          7.9374          7.3514          7.3514 
       0.582926         7.74289         7.18002         7.18002 
       0.589034         7.58842         7.01388         7.01388 
       0.595184         7.45835         6.85202         6.85202 
       0.601379          7.2472         6.69432         6.69432 
       0.607522         7.09201         6.54297         6.54297 
       0.613639         6.92387         6.39705         6.39705 
       0.619772         6.80135         6.25535         6.25535 
       0.625918         6.64928         6.11776         6.11776 
       0.632068         6.53771          5.9843          5.9843 
       0.638161         6.38734         5.85603         5.85603 
         0.6443         6.25336         5.73059         5.73059 
       0.650464         6.10998         5.60832         5.60832 
       0.656582         6.02831         5.49045         5.49045 
       0.662703         5.91274          5.3759          5.3759 
       0.668861         5.75062         5.26396         5.26396 
       0.675024         5.64476         5.15513         5.15513 
       0.681124         5.60898         5.05051         5.05051 
       0.687237         5.46717         4.94864         4.94864 
       0.693381         5.32247         4.84914         4.84914 
       0.699536          5.2642         4.75225         4.75225 
       0.705665         5.15754         4.65844         4.65844 
       0.711789         5.03707         4.56728         4.56728 
       0.717957         4.93395         4.47794         4.47794 
        0.72409         4.86563          4.3915          4.3915 
       0.730186         4.81147         4.30785         4.30785 
       0.736317         4.69037         4.22594         4.22594 
       0.742472         4.62708         4.14585         4.14585 
       0.748622         4.54476         4.06791         4.06791 
        0.75476         4.42717         3.99215         3.99215 
       0.760888          4.3787         3.91843         3.91843 
       0.767043         4.26551         3.84629         3.84629 
       0.773185         4.20635         3.77613         3.77613 
       0.779291         4.17406         3.70811         3.70811 
       0.785407         4.08145         3.64168         3.64168 
       0.791564         4.01148         3.57647         3.57647 
       0.797719         3.93732         3.51289         3.51289 
       0.803834         3.88362         3.45127         3.45127 
       0.809972         3.80894         3.39091         3.39091 
       0.816124         3.74943         3.33186         3.33186 
       0.822261         3.69392         3.27439         3.27439 
       0.828378         3.63138         3.21845         3.21845 
       0.834502         3.57326         3.16377         3.16377 
       0.840667           3.529         3.11001         3.11001 
       0.846816         3.45614         3.05766         3.05766 
       0.852925         3.40553         3.00685         3.00685 
       0.859047         3.35148         2.95709         2.95709 
       0.865192         3.29802          2.9083          2.9083 
       0.871341         3.24965         2.86057         2.86057 
       0.877463         3.19344         2.81414         2.81414 
       0.883569         3.15184         2.76886         2.76886 
       0.889708         3.10541         2.72435         2.72435 
       0.895864         3.05885         2.68071         2.68071 
       0.902008         3.00264         2.63811         2.63811 
       0.908149         2.96287         2.59647         2.59647 
       0.914301         2.92445         2.55566         2.55566 
       0.920448         2.88629         2.51577         2.51577 
       0.926574         2.85489         2.47688         2.47688 
       0.932687         2.80348         2.43889         2.43889 
       0.938823         2.74949         2.40156         2.40156 
       0.944975         2.72696         2.36493         2.36493 
       0.951105         2.66856         2.32919         2.32919 
       0.957225         2.64632         2.29426         2.29426 
       0.963368         2.61091         2.25992         2.25992 
       0.969511         2.57567         2.22629         2.22629 
       0.975621         2.53168         2.19352         2.19352 
       0.981748         2.48493         2.16133         2.16133 
       0.987916         2.45869         2.12958         2.12958 
        0.99406         2.43442         2.09859         2.09859 
        1.00019         2.40156         2.06828         2.06828 
        1.00632         2.37511          2.0386          2.0386 
        1.01246          2.3375         2.00945         2.00945 
        1.01859         2.30613         1.98092         1.98092 
        1.02471         2.26616         1.95299         1.95299 
        1.03085         2.24305         1.92549         1.92549 
        1.03698         2.21533         1.89859         1.89859 
        1.04314         2.18627         1.87208         1.87208 
        1.04929         2.15829         1.84614         1.84614 
        1.05541         2.12424          1.8208          1.8208 
        1.06154         2.10492         1.79587         1.79587 
        1.06769         2.08486         1.77137         1.77137 
        1.07382         2.04827         1.74741         1.74741 
        1.07993         2.02019         1.72394         1.72394 
        1.08607          2.0033         1.70081         1.70081 
        1.09222         1.97101         1.67809         1.67809 
        1.09836         1.96077          1.6558          1.6558 
        1.10449         1.91792         1.63395         1.63395 
        1.11063         1.89991         1.61246         1.61246 
        1.11677          1.8798         1.59138         1.59138 
         1.1229         1.85286          1.5707          1.5707 
        1.12903         1.83751         1.55038         1.55038 
        1.13518         1.80839         1.53039         1.53039 
        1.14131         1.78737         1.51078         1.51078 
        1.14745         1.76627         1.49151         1.49151 
        1.15359         1.74493         1.47258         1.47258 
        1.15973         1.72354         1.45397         1.45397 
        1.16584         1.70606         1.43577         1.43577 
        1.17197         1.68164         1.41785         1.41785 
        1.17811         1.66184         1.40018         1.40018 
        1.18424         1.64272         1.38286         1.38286 
        1.19038         1.62488         1.36579         1.36579 
        1.19652         1.60899         1.34901         1.34901 
        1.20267         1.59415         1.33252         1.33252 
        1.20881         1.57072          1.3163          1.3163 
        1.21495         1.55465         1.30038         1.30038 
        1.22108         1.53802         1.28472         1.28472 
         1.2272         1.51448         1.26936         1.26936 
        1.23334         1.50447         1.25422         1.25422 
        1.23949         1.48505         1.23928         1.23928 
        1.24562         1.46994         1.22463         1.22463 
        1.25174         1.45768         1.21024         1.21024 
        1.25789         1.43444         1.19604         1.19604 
        1.26402         1.41988         1.18208         1.18208 
        1.27014         1.40238         1.16839         1.16839 
        1.27628         1.38973         1.15487         1.15487 
        1.28244         1.37473         1.14154         1.14154 
        1.28858         1.36027         1.12843         1.12843 
        1.29471         1.34217         1.11556         1.11556 
        1.30084         1.32998          1.1029          1.1029 
        1.30697         1.31961         1.09042         1.09042 
        1.31312         1.30393         1.07812         1.07812 
        1.31925         1.29054         1.06604         1.06604 
        1.32537          1.2779         1.05416         1.05416 
        1.33151         1.26223         1.04242         1.04242 
        1.33765         1.25033         1.03087         1.03087 
        1.34378          1.2385         1.01951         1.01951 
        1.34992         1.22704         1.00832         1.00832 
        1.35606         1.21316        0.997266        0.997266 
         1.3622         1.20217        0.986401        0.986401 
        1.36833          1.1872        0.975724        0.975724 
        1.37445          1.1744        0.965209        0.965209 
        1.38059         1.16355        0.954818        0.954818 
        1.38675         1.15225        0.944554        0.944554 
        1.39288          1.1438        0.934481        0.934481 
        1.39901         1.12883        0.924561        0.924561 
        1.40515         1.11767        0.914761        0.914761 
         1.4113         1.11084        0.905108        0.905108 
        1.41742         1.09563         0.89563         0.89563 
        1.42355         1.08439         0.88627         0.88627 
         1.4297         1.07641        0.877016        0.877016 
        1.43585         1.06514        0.867897        0.867897 
        1.44198         1.05513        0.858943        0.858943 
        1.44809         1.04572        0.850132        0.850132 
        1.45423         1.03497        0.841412        0.841412 
        1.46036         1.02633         0.83283         0.83283 
        1.46649         1.01294        0.824364        0.824364 
        1.47263         1.00678        0.816009        0.816009 
        1.47877         1.00074        0.807773        0.807773 
        1.48491        0.984268        0.799638        0.799638 
        1.49104        0.978817        0.791632        0.791632 
        1.49718        0.967764        0.783729        0.783729 
        1.50333        0.959563        0.775921        0.775921 
        1.50947        0.951177        0.768235        0.768235 
         1.5156        0.942211        0.760665        0.760665 
        1.52172        0.934305        0.753196        0.753196 
        1.52787        0.925449        0.745812        0.745812 
          1.534        0.918408        0.738536        0.738536 
        1.54013        0.908752        0.731364        0.731364 
        1.54627        0.900411        0.724274        0.724274 
        1.55241        0.891288        0.717277        0.717277 
        1.55855        0.884159        0.710382        0.710382 
        1.56467        0.876806        0.703597        0.703597 
         1.5708        0.868715         0.69688         0.69688 
        1.57695        0.859487        0.690242        0.690242 
        1.58308        0.851071        0.683705        0.683705 
        1.58922        0.846458        0.677247        0.677247 
        1.59535        0.836214        0.670876        0.670876 
         1.6015         0.82929        0.664577        0.664577 
        1.60764        0.823302        0.658363        0.658363 
        1.61376        0.814376        0.652244        0.652244 
        1.61989        0.808244        0.646199        0.646199 
        1.62604        0.799446        0.640216        0.640216 
        1.63218         0.79541        0.634312        0.634312 
        1.63831        0.787949        0.628497        0.628497 
        1.64444        0.780782        0.622752        0.622752 
        1.65059        0.775408        0.617064        0.617064 
        1.65673        0.766351        0.611454        0.611454 
        1.66285        0.760457        0.605929        0.605929 
        1.66898        0.755265        0.600471        0.600471 
        1.67512        0.746153        0.595068        0.595068 
        1.68127        0.740474        0.589728        0.589728 
         1.6874         0.73697        0.584464        0.584464 
        1.69353        0.728693        0.579268        0.579268 
        1.69967        0.723401        0.574122        0.574122 
        1.70581        0.719132        0.569041        0.569041 
        1.71193        0.709894        0.564041        0.564041 
        1.71806        0.705887         0.55909         0.55909 
        1.72421        0.700493        0.554188        0.554188 
        1.73035        0.691831        0.549351        0.549351 
        1.73649        0.689742        0.544572        0.544572 
        1.74262        0.682115        0.539854        0.539854 
        1.74876        0.677216        0.535189        0.535189 
        1.75489        0.672036        0.530588        0.530588 
        1.76101        0.664775        0.526042        0.526042 
        1.76715        0.660899        0.521544        0.521544 
        1.77329        0.655657        0.517092        0.517092 
        1.77943        0.650653         0.51269         0.51269 
        1.78557        0.646642        0.508346        0.508346 
        1.79171        0.641363        0.504052        0.504052 
        1.79785        0.635989        0.499805        0.499805 
        1.80399        0.629658        0.495609        0.495609 
        1.81012        0.625101        0.491466        0.491466 
        1.81625        0.619765        0.487372        0.487372 
        1.82239        0.615573        0.483319        0.483319 
        1.82853        0.610722        0.479314        0.479314 
        1.83466        0.605492        0.475357        0.475357 
        1.84078        0.600856        0.471449        0.471449 
        1.84692        0.596446        0.467579        0.467579 
        1.85306        0.593133        0.463748        0.463748 
         1.8592        0.586826        0.459965        0.459965 
        1.86533        0.583384        0.456226        0.456226 
        1.87147        0.577367        0.452525        0.452525 
