# k  (h/Mpc)    P(k)  (Mpc/h)^3    P_linear(k)  (Mpc/h)^3     P_NL(k)  ShotnoiseSubtracted = false
     0.00783031         3591.17         3616.54         3616.54 
       0.013688         4148.99         4210.68         4210.68 
       0.019231         4033.45         4060.87         4060.87 
      0.0249154         3596.63         3585.03         3585.03 
      0.0312784         2968.81         2969.86         2969.86 
      0.0375637         2444.41         2453.31         2453.31 
      0.0433917         2113.15         2107.13         2107.13 
      0.0492413         1872.82         1875.05         1875.05 
      0.0555754         1715.29         1708.73         1708.73 
      0.0619321         1558.75         1577.56         1577.56 
       0.067871         1447.61         1451.64         1451.64 
      0.0738098         1310.01         1309.07         1309.07 
      0.0800417          1154.4         1148.16         1148.16 
      0.0862327         998.779         995.035         995.035 
      0.0921407         876.215         871.308         871.308 
      0.0982031         786.235         775.318         775.318 
       0.104506         709.906         707.561         707.561 
       0.110769         667.268         663.769         663.769 
       0.116806         641.206         632.307         632.307 
       0.122832         604.359         601.182         601.182 
       0.129052         568.436          562.86          562.86 
       0.135211         528.192          517.82          517.82 
       0.141259          478.14         470.423         470.423 
       0.147318         430.659          425.25          425.25 
       0.153489         394.622         386.266         386.266 
       0.159709         368.255         356.336         356.336 
       0.165845         341.109         335.393         335.393 
       0.171974         332.456         320.412         320.412 
       0.178125         318.929         307.955         307.955 
       0.184229         301.925         295.187         295.187 
        0.19034         290.282         280.322         280.322 
       0.196428         274.139         263.354         263.354 
       0.202534         252.095         245.339         245.339 
       0.208729         239.667         227.762         227.762 
       0.214876         226.298         212.475         212.475 
       0.220989         209.993         200.105         200.105 
       0.227147         203.761         190.393         190.393 
        0.23329          195.97         182.711         182.711 
       0.239377         190.328          176.07          176.07 
       0.245482         181.659          169.47          169.47 
       0.251667         173.152         162.288         162.288 
       0.257832         168.607         154.533         154.533 
       0.263955         158.135         146.552         146.552 
       0.270079         150.383         138.782         138.782 
        0.27624         142.731         131.632         131.632 
       0.282372         137.235          125.45          125.45 
        0.28843         134.667         120.261         120.261 
       0.294538         128.662         115.776         115.776 
       0.300721         123.244         111.695         111.695 
        0.30691         120.719         107.775         107.775 
       0.313033         115.525         103.854         103.854 
       0.319153         112.943         99.8335         99.8335 
       0.325316         107.842         95.7389         95.7389 
        0.33145         103.765         91.7542         91.7542 
       0.337538         99.9818         88.0202         88.0202 
       0.343633         96.6536         84.6047         84.6047 
       0.349808         93.2653         81.4874         81.4874 
       0.355968         90.4156         78.6895         78.6895 
       0.362074         88.4618         76.1329         76.1329 
       0.368217         85.9641         73.6884         73.6884 
       0.374374         83.7402         71.2972         71.2972 
       0.380519         80.1136         68.9263         68.9263 
       0.386598         77.8117         66.6084         66.6084 
       0.392688         75.1932         64.3388         64.3388 
        0.39888         73.6543         62.1236         62.1236 
       0.405048         71.6675         60.0476         60.0476 
       0.411186         69.7546         58.1195         58.1195 
       0.417313         67.7038         56.3253         56.3253 
       0.423458         65.7962          54.639          54.639 
       0.429607          64.447         53.0329         53.0329 
       0.435692         63.2828         51.4974         51.4974 
       0.441815         60.9209         49.9943         49.9943 
       0.447964         58.8385         48.5208         48.5208 
       0.454126         57.7469          47.082          47.082 
       0.460267         57.0481         45.6978         45.6978 
       0.466387         55.3945         44.3784         44.3784 
        0.47254          54.527         43.1149         43.1149 
       0.478662         52.5678         41.9187         41.9187 
       0.484765         51.4981         40.7842         40.7842 
       0.490885         50.0245         39.6966         39.6966 
       0.497035         49.3226         38.6442         38.6442 
       0.503198         48.1521         37.6222         37.6222 
       0.509342         46.7695         36.6333         36.6333 
       0.515458         46.0199         35.6793         35.6793 
       0.521598         44.8616         34.7526         34.7526 
       0.527764         44.2048         33.8538         33.8538 
       0.533884         43.3779         32.9942         32.9942 
           0.54          42.301         32.1686         32.1686 
       0.546137         41.0259         31.3731         31.3731 
       0.552299         40.2706         30.6046         30.6046 
       0.558452         39.3762         29.8643         29.8643 
       0.564573         39.0029         29.1512         29.1512 
       0.570708         37.8703         28.4577         28.4577 
       0.576825         37.4004         27.7874         27.7874 
       0.582926         36.7591         27.1396         27.1396 
       0.589034         35.9546         26.5116         26.5116 
       0.595184         35.4153         25.8998         25.8998 
       0.601379         34.4573         25.3037         25.3037 
       0.607522         33.8199         24.7316         24.7316 
       0.613639         33.3544           24.18           24.18 
       0.619772         32.6594         23.6444         23.6444 
       0.625918         32.0679         23.1243         23.1243 
       0.632068         31.7131         22.6199         22.6199 
       0.638161         31.0031          22.135          22.135 
         0.6443         30.5758         21.6609         21.6609 
       0.650464         29.7806         21.1987         21.1987 
       0.656582         29.5681         20.7532         20.7532 
       0.662703         29.1154         20.3202         20.3202 
       0.668861         28.3662         19.8971         19.8971 
       0.675024         28.0277         19.4857         19.4857 
       0.681124         27.7752         19.0903         19.0903 
       0.687237         27.1758         18.7052         18.7052 
       0.693381         26.6764         18.3291         18.3291 
       0.699536         26.4523         17.9629         17.9629 
       0.705665         25.9246         17.6083         17.6083 
       0.711789         25.4745         17.2637         17.2637 
       0.717957         24.9543         16.9261         16.9261 
        0.72409         24.6904         16.5993         16.5993 
       0.730186         24.5277         16.2831         16.2831 
       0.736317          24.005         15.9735         15.9735 
       0.742472         23.7025         15.6708         15.6708 
       0.748622         23.2761         15.3762         15.3762 
        0.75476         22.7301         15.0898         15.0898 
       0.760888         22.6657         14.8112         14.8112 
       0.767043         22.2136         14.5385         14.5385 
       0.773185         21.9335         14.2733         14.2733 
       0.779291         21.6461         14.0162         14.0162 
       0.785407         21.3188         13.7651         13.7651 
       0.791564         21.1881         13.5186         13.5186 
       0.797719         20.6718         13.2783         13.2783 
       0.803834         20.5763         13.0453         13.0453 
       0.809972         20.1771         12.8172         12.8172 
       0.816124         19.9432          12.594          12.594 
       0.822261         19.6871         12.3768         12.3768 
       0.828378         19.4917         12.1653         12.1653 
       0.834502         19.2468         11.9586         11.9586 
       0.840667         19.0309         11.7555         11.7555 
       0.846816         18.6212         11.5576         11.5576 
       0.852925         18.5294         11.3655         11.3655 
       0.859047          18.314         11.1774         11.1774 
       0.865192         18.0228          10.993          10.993 
       0.871341         17.7958         10.8126         10.8126 
       0.877463         17.5687         10.6371         10.6371 
       0.883569          17.444         10.4659         10.4659 
       0.889708         17.1632         10.2977         10.2977 
       0.895864         16.9319         10.1327         10.1327 
       0.902008         16.7386         9.97172         9.97172 
       0.908149         16.5079         9.81432         9.81432 
       0.914301         16.3904         9.66007         9.66007 
       0.920448         16.1543         9.50929         9.50929 
       0.926574         15.9865         9.36227         9.36227 
       0.932687         15.7704         9.21867         9.21867 
       0.938823         15.5447         9.07757         9.07757 
       0.944975         15.4281         8.93911         8.93911 
       0.951105          15.261         8.80404         8.80404 
       0.957225         15.1363         8.67199         8.67199 
       0.963368         14.8822         8.54221         8.54221 
       0.969511         14.7377         8.41508         8.41508 
       0.975621         14.6026         8.29122         8.29122 
       0.981748         14.3987         8.16954         8.16954 
       0.987916          14.304         8.04953         8.04953 
        0.99406         14.0936          7.9324          7.9324 
        1.00019         13.9948         7.81783         7.81783 
        1.00632         13.8667         7.70563         7.70563 
        1.01246         13.7008         7.59546         7.59546 
        1.01859         13.5376         7.48763         7.48763 
        1.02471          13.391         7.38204         7.38204 
        1.03085          13.314         7.27811         7.27811 
        1.03698         13.1877         7.17641         7.17641 
        1.04314         13.0047         7.07622         7.07622 
        1.04929         12.8332         6.97817         6.97817 
        1.05541          12.763         6.88238         6.88238 
        1.06154         12.6501         6.78815         6.78815 
        1.06769         12.4905         6.69555         6.69555 
        1.07382         12.3409         6.60497         6.60497 
        1.07993         12.2364         6.51628         6.51628 
        1.08607         12.1463         6.42886         6.42886 
        1.09222         12.0009         6.34295         6.34295 
        1.09836          11.897         6.25871         6.25871 
        1.10449          11.793         6.17611         6.17611 
        1.11063         11.7089         6.09491         6.09491 
        1.11677         11.6198         6.01519         6.01519 
         1.1229           11.49         5.93705         5.93705 
        1.12903         11.3688         5.86022         5.86022 
        1.13518         11.2681         5.78469         5.78469 
        1.14131         11.1813         5.71053         5.71053 
        1.14745         11.0132         5.63772         5.63772 
        1.15359         10.9034         5.56616         5.56616 
        1.15973         10.8303         5.49582         5.49582 
        1.16584         10.7264         5.42701         5.42701 
        1.17197         10.6079         5.35927         5.35927 
        1.17811         10.5379         5.29249         5.29249 
        1.18424         10.4468         5.22704         5.22704 
        1.19038         10.3883         5.16251         5.16251 
        1.19652         10.2579         5.09909         5.09909 
        1.20267         10.2053         5.03674         5.03674 
        1.20881         10.0629         4.97544         4.97544 
        1.21495         10.0062         4.91526         4.91526 
        1.22108         9.94035         4.85608         4.85608 
         1.2272         9.84554         4.79802         4.79802 
        1.23334         9.78512         4.74077         4.74077 
        1.23949          9.6871         4.68432         4.68432 
        1.24562         9.57715         4.62895         4.62895 
        1.25174         9.54029         4.57455         4.57455 
        1.25789         9.44209         4.52086         4.52086 
        1.26402         9.37367         4.46812         4.46812 
        1.27014         9.32262         4.41635         4.41635 
        1.27628         9.20223         4.36525         4.36525 
        1.28244         9.17768         4.31485         4.31485 
        1.28858         9.07195         4.26532         4.26532 
        1.29471         8.96614         4.21668         4.21668 
        1.30084         8.89896         4.16884         4.16884 
        1.30697          8.8682         4.12166         4.12166 
        1.31312          8.7835         4.07515         4.07515 
        1.31925         8.72637         4.02951         4.02951 
        1.32537         8.64122          3.9846          3.9846 
        1.33151         8.57878         3.94022         3.94022 
        1.33765         8.52123         3.89655         3.89655 
        1.34378         8.48007         3.85362         3.85362 
        1.34992         8.38631          3.8113          3.8113 
        1.35606         8.30803         3.76954         3.76954 
         1.3622         8.24471         3.72847         3.72847 
        1.36833         8.21637         3.68811         3.68811 
        1.37445         8.15222         3.64836         3.64836 
        1.38059         8.07873         3.60908         3.60908 
        1.38675         8.03258         3.57029         3.57029 
        1.39288         7.94992         3.53222         3.53222 
        1.39901         7.89212         3.49472         3.49472 
        1.40515         7.83712         3.45768         3.45768 
         1.4113           7.779         3.42119         3.42119 
        1.41742          7.7404         3.38536         3.38536 
        1.42355          7.6604         3.34998         3.34998 
         1.4297         7.61453           3.315           3.315 
        1.43585         7.56696         3.28054         3.28054 
        1.44198         7.52549         3.24669         3.24669 
        1.44809         7.45976         3.21339         3.21339 
        1.45423         7.40328         3.18043         3.18043 
        1.46036         7.35225         3.14799         3.14799 
        1.46649         7.30339         3.11599         3.11599 
        1.47263         7.25725         3.08441         3.08441 
        1.47877         7.19965         3.05328         3.05328 
        1.48491         7.16192         3.02253         3.02253 
        1.49104         7.10291         2.99226         2.99226 
        1.49718         7.07023         2.96239         2.96239 
        1.50333         7.02269         2.93288         2.93288 
        1.50947         6.96846         2.90383         2.90383 
         1.5156         6.93575         2.87521         2.87521 
        1.52172          6.8673         2.84698         2.84698 
        1.52787         6.84816         2.81907         2.81907 
          1.534          6.7929         2.79157         2.79157 
        1.54013         6.75734         2.76446         2.76446 
        1.54627         6.69984         2.73766         2.73766 
        1.55241          6.6384         2.71121         2.71121 
        1.55855         6.62141         2.68515         2.68515 
        1.56467         6.58605          2.6595          2.6595 
         1.5708         6.53411         2.63412         2.63412 
        1.57695          6.4905         2.60902         2.60902 
        1.58308         6.44054         2.58431         2.58431 
        1.58922         6.41455         2.55991         2.55991 
        1.59535         6.37657         2.53582         2.53582 
         1.6015         6.30101         2.51201         2.51201 
        1.60764         6.27276         2.48852         2.48852 
        1.61376         6.24899          2.4654          2.4654 
        1.61989         6.19517         2.44254         2.44254 
        1.62604          6.1771         2.41993         2.41993 
        1.63218         6.13865         2.39762         2.39762 
        1.63831         6.08942         2.37563         2.37563 
        1.64444          6.0424         2.35392         2.35392 
        1.65059         6.00327         2.33242         2.33242 
        1.65673         5.98958         2.31122         2.31122 
        1.66285         5.93866         2.29033         2.29033 
        1.66898          5.9196          2.2697          2.2697 
        1.67512          5.8863         2.24928         2.24928 
        1.68127         5.82434         2.22909         2.22909 
         1.6874         5.81268          2.2092          2.2092 
        1.69353         5.75173         2.18955         2.18955 
        1.69967         5.73551         2.17011         2.17011 
        1.70581         5.69661          2.1509          2.1509 
        1.71193         5.66975           2.132           2.132 
        1.71806         5.63216         2.11328         2.11328 
        1.72421         5.59687         2.09476         2.09476 
        1.73035          5.5739         2.07647         2.07647 
        1.73649         5.54789         2.05841         2.05841 
        1.74262         5.48667         2.04058         2.04058 
        1.74876         5.48159         2.02294         2.02294 
        1.75489          5.4501         2.00555         2.00555 
        1.76101         5.39813         1.98837         1.98837 
        1.76715         5.39481         1.97137         1.97137 
        1.77329          5.3515         1.95454         1.95454 
        1.77943         5.30567          1.9379          1.9379 
        1.78557         5.30976         1.92148         1.92148 
        1.79171         5.26557         1.90525         1.90525 
        1.79785         5.24425          1.8892          1.8892 
        1.80399         5.20549         1.87334         1.87334 
        1.81012         5.17744         1.85768         1.85768 
        1.81625         5.14503          1.8422          1.8422 
        1.82239         5.12064         1.82688         1.82688 
        1.82853         5.07941         1.81174         1.81174 
        1.83466         5.04601         1.79679         1.79679 
        1.84078         5.02728         1.78202         1.78202 
        1.84692         5.00872         1.76739         1.76739 
        1.85306         4.97835          1.7529          1.7529 
         1.8592          4.9605         1.73861         1.73861 
        1.86533         4.92651         1.72447         1.72447 
        1.87147         4.90415         1.71048         1.71048 
        1.87761         4.88055         1.69664         1.69664 
