# k  (h/Mpc)    P(k)  (Mpc/h)^3    P_linear(k)  (Mpc/h)^3     P_NL(k)  ShotnoiseSubtracted = false
     0.00783031         13749.1         13825.1         13825.1 
       0.013688         15693.6         16080.3         16080.3 
       0.019231         15297.1         15503.4         15503.4 
      0.0249154         13750.3         13684.7         13684.7 
      0.0312784         11273.9         11335.4         11335.4 
      0.0375637          9254.8         9363.29         9363.29 
      0.0433917            8039         8041.79         8041.79 
      0.0492413          7109.5         7155.91         7155.91 
      0.0555754         6525.37         6521.04         6521.04 
      0.0619321         5860.45         6020.38         6020.38 
       0.067871         5472.35         5539.77         5539.77 
      0.0738098         4984.83         4995.66         4995.66 
      0.0800417         4405.14         4381.58         4381.58 
      0.0862327         3818.87          3797.2          3797.2 
      0.0921407         3379.42         3325.03         3325.03 
      0.0982031         3058.26         2958.71         2958.71 
       0.104506         2749.51         2700.13         2700.13 
       0.110769         2589.87            2533            2533 
       0.116806         2497.66         2412.94         2412.94 
       0.122832         2349.43         2294.16         2294.16 
       0.129052         2201.76         2147.91         2147.91 
       0.135211         2083.12         1976.04         1976.04 
       0.141259         1885.95         1795.16         1795.16 
       0.147318         1710.86         1622.78         1622.78 
       0.153489         1584.38         1474.01         1474.01 
       0.159709         1507.16          1359.8          1359.8 
       0.165845         1386.34         1279.88         1279.88 
       0.171974         1360.22         1222.71         1222.71 
       0.178125         1313.79         1175.17         1175.17 
       0.184229         1219.87         1126.45         1126.45 
        0.19034         1188.28         1069.72         1069.72 
       0.196428         1139.23         1004.97         1004.97 
       0.202534         1051.17         936.222         936.222 
       0.208729         1021.85         869.149         869.149 
       0.214876         967.494         810.811         810.811 
       0.220989         908.156         763.609         763.609 
       0.227147         884.572         726.546         726.546 
        0.23329         850.803         697.232         697.232 
       0.239377          841.15         671.887         671.887 
       0.245482         798.126         646.703         646.703 
       0.251667          766.35         619.296         619.296 
       0.257832         752.316           589.7           589.7 
       0.263955         710.333         559.245         559.245 
       0.270079         683.163         529.594         529.594 
        0.27624         652.885         502.309         502.309 
       0.282372         638.898          478.72          478.72 
        0.28843         630.669         458.919         458.919 
       0.294538          598.28         441.804         441.804 
       0.300721          582.51         426.231         426.231 
        0.30691         570.414         411.272         411.272 
       0.313033         544.172         396.309         396.309 
       0.319153         535.323         380.967         380.967 
       0.325316         525.511         365.342         365.342 
        0.33145           511.7         350.136         350.136 
       0.337538         492.242         335.887         335.887 
       0.343633         477.985         322.853         322.853 
       0.349808         466.083         310.958         310.958 
       0.355968         456.765          300.28          300.28 
       0.362074         439.966         290.524         290.524 
       0.368217         437.092         281.196         281.196 
       0.374374         428.813         272.071         272.071 
       0.380519         411.103         263.024         263.024 
       0.386598         406.231         254.179         254.179 
       0.392688         395.485         245.518         245.518 
        0.39888          385.35         237.065         237.065 
       0.405048         376.699         229.142         229.142 
       0.411186         375.489         221.785         221.785 
       0.417313          369.55         214.938         214.938 
       0.423458         359.399         208.503         208.503 
       0.429607         348.501         202.374         202.374 
       0.435692           343.1         196.515         196.515 
       0.441815         336.983         190.779         190.779 
       0.447964         328.784         185.156         185.156 
       0.454126         324.891         179.666         179.666 
       0.460267         319.374         174.384         174.384 
       0.466387         312.484         169.349         169.349 
        0.47254          308.31         164.527         164.527 
       0.478662         301.126         159.962         159.962 
       0.484765         296.758         155.633         155.633 
       0.490885         293.522         151.483         151.483 
       0.497035         287.272         147.467         147.467 
       0.503198           286.1         143.567         143.567 
       0.509342           279.3         139.793         139.793 
       0.515458         274.259         136.153         136.153 
       0.521598         269.476         132.616         132.616 
       0.527764         265.884         129.186         129.186 
       0.533884         263.742         125.906         125.906 
           0.54         259.484         122.756         122.756 
       0.546137         253.566          119.72          119.72 
       0.552299         252.137         116.788         116.788 
       0.558452         247.711         113.963         113.963 
       0.564573          245.98         111.241         111.241 
       0.570708         241.109         108.595         108.595 
       0.576825         236.988         106.037         106.037 
       0.582926         235.301         103.565         103.565 
       0.589034         231.085         101.168         101.168 
       0.595184         229.345         98.8338         98.8338 
       0.601379         225.627         96.5591         96.5591 
       0.607522         220.453          94.376          94.376 
       0.613639         219.498         92.2712         92.2712 
       0.619772         218.264         90.2273         90.2273 
       0.625918         214.416         88.2427         88.2427 
       0.632068         211.453         86.3177         86.3177 
       0.638161         209.986         84.4675         84.4675 
         0.6443          207.15         82.6582         82.6582 
       0.650464         203.928         80.8946         80.8946 
       0.656582         201.942         79.1944         79.1944 
       0.662703         200.641         77.5421         77.5421 
       0.668861          196.44         75.9275         75.9275 
       0.675024         195.845         74.3578         74.3578 
       0.681124         193.117         72.8487         72.8487 
       0.687237         191.586         71.3793         71.3793 
       0.693381         188.327         69.9441         69.9441 
       0.699536          187.41         68.5465         68.5465 
       0.705665          185.17         67.1935         67.1935 
       0.711789         182.652         65.8786         65.8786 
       0.717957         181.188           64.59           64.59 
        0.72409         178.601         63.3431         63.3431 
       0.730186         179.476         62.1366         62.1366 
       0.736317         176.503          60.955          60.955 
       0.742472         174.209         59.7998         59.7998 
       0.748622         171.881         58.6756         58.6756 
        0.75476         172.107         57.5828         57.5828 
       0.760888         169.681         56.5196         56.5196 
       0.767043          166.98          55.479          55.479 
       0.773185         165.505         54.4669         54.4669 
       0.779291         163.859         53.4859         53.4859 
       0.785407          162.74         52.5277         52.5277 
       0.791564         161.337         51.5871         51.5871 
       0.797719         158.606           50.67           50.67 
       0.803834         159.225         49.7811         49.7811 
       0.809972         157.155         48.9105         48.9105 
       0.816124         154.468         48.0589         48.0589 
       0.822261         153.619         47.2299         47.2299 
       0.828378         153.018          46.423          46.423 
       0.834502         151.208         45.6343         45.6343 
       0.840667         150.911         44.8589         44.8589 
       0.846816         148.104         44.1038         44.1038 
       0.852925         147.594         43.3708         43.3708 
       0.859047         146.072         42.6531         42.6531 
       0.865192         145.464         41.9493         41.9493 
       0.871341         143.841          41.261          41.261 
       0.877463         142.509         40.5912         40.5912 
       0.883569         142.285         39.9381         39.9381 
       0.889708         140.856         39.2961         39.2961 
       0.895864          139.27         38.6665         38.6665 
       0.902008         137.855         38.0522         38.0522 
       0.908149         136.577         37.4515         37.4515 
       0.914301          135.66         36.8629         36.8629 
       0.920448         135.617         36.2875         36.2875 
       0.926574         133.465         35.7265         35.7265 
       0.932687         133.245         35.1785         35.1785 
       0.938823         132.072         34.6401         34.6401 
       0.944975           131.3         34.1117         34.1117 
       0.951105         129.853         33.5963         33.5963 
       0.957225         129.061         33.0924         33.0924 
       0.963368         128.238         32.5971         32.5971 
       0.969511         126.784          32.112          32.112 
       0.975621         125.278         31.6393         31.6393 
       0.981748          124.92          31.175          31.175 
       0.987916         124.227         30.7171         30.7171 
        0.99406         123.297         30.2701         30.2701 
        1.00019         122.551         29.8329         29.8329 
        1.00632         121.479         29.4047         29.4047 
        1.01246         120.591         28.9843         28.9843 
        1.01859         119.695         28.5729         28.5729 
        1.02471         118.827         28.1699         28.1699 
        1.03085          117.92         27.7733         27.7733 
        1.03698         117.065         27.3852         27.3852 
        1.04314         116.687         27.0029         27.0029 
        1.04929          115.91         26.6288         26.6288 
        1.05541         115.166         26.2632         26.2632 
        1.06154         113.887         25.9036         25.9036 
        1.06769         113.376         25.5502         25.5502 
        1.07382         112.725         25.2046         25.2046 
        1.07993         111.777         24.8662         24.8662 
        1.08607         111.428         24.5326         24.5326 
        1.09222         110.276         24.2047         24.2047 
        1.09836         109.641         23.8833         23.8833 
        1.10449         108.972         23.5681         23.5681 
        1.11063         107.969         23.2582         23.2582 
        1.11677          107.56          22.954          22.954 
         1.1229         106.567         22.6558         22.6558 
        1.12903          105.79         22.3626         22.3626 
        1.13518         105.018         22.0744         22.0744 
        1.14131          104.69         21.7914         21.7914 
        1.14745          103.85         21.5136         21.5136 
        1.15359         103.032         21.2405         21.2405 
        1.15973         102.644         20.9721         20.9721 
        1.16584         101.851         20.7095         20.7095 
        1.17197         101.414          20.451          20.451 
        1.17811         100.528         20.1962         20.1962 
        1.18424         99.8903         19.9464         19.9464 
        1.19038         99.3666         19.7002         19.7002 
        1.19652         98.7346         19.4581         19.4581 
        1.20267         98.0088         19.2202         19.2202 
        1.20881         97.2517         18.9863         18.9863 
        1.21495         96.9642         18.7567         18.7567 
        1.22108         96.2455         18.5308         18.5308 
         1.2272         95.7452         18.3093         18.3093 
        1.23334         95.2654         18.0908         18.0908 
        1.23949         94.6583         17.8754         17.8754 
        1.24562         93.8327         17.6641         17.6641 
        1.25174         93.7102         17.4565         17.4565 
        1.25789         92.7653         17.2516         17.2516 
        1.26402         92.4739         17.0504         17.0504 
        1.27014         91.6197         16.8528         16.8528 
        1.27628         91.2456         16.6578         16.6578 
        1.28244         90.8694         16.4655         16.4655 
        1.28858         90.1337         16.2765         16.2765 
        1.29471         89.5927         16.0909         16.0909 
        1.30084         88.8554         15.9083         15.9083 
        1.30697         88.4573         15.7283         15.7283 
        1.31312         87.9344         15.5508         15.5508 
        1.31925         87.2192         15.3766         15.3766 
        1.32537         86.8199         15.2053         15.2053 
        1.33151         86.6958         15.0359         15.0359 
        1.33765         85.8709         14.8692         14.8692 
        1.34378         85.5831         14.7054         14.7054 
        1.34992         85.0802          14.544          14.544 
        1.35606         84.5947         14.3846         14.3846 
         1.3622         84.3187         14.2278         14.2278 
        1.36833         83.5019         14.0738         14.0738 
        1.37445         83.2518         13.9222         13.9222 
        1.38059         82.7058         13.7723         13.7723 
        1.38675         82.1369         13.6242         13.6242 
        1.39288         81.6077          13.479          13.479 
        1.39901         81.2474         13.3359         13.3359 
        1.40515          80.728         13.1945         13.1945 
         1.4113         80.2732         13.0553         13.0553 
        1.41742         79.9727         12.9186         12.9186 
        1.42355         79.5845         12.7836         12.7836 
         1.4297         79.0089         12.6501         12.6501 
        1.43585         78.6451         12.5185         12.5185 
        1.44198         77.9342         12.3894         12.3894 
        1.44809          77.486         12.2623         12.2623 
        1.45423         77.4924         12.1365         12.1365 
        1.46036         76.7716         12.0127         12.0127 
        1.46649         76.3084         11.8906         11.8906 
        1.47263         75.7652         11.7701         11.7701 
        1.47877         75.5138         11.6513         11.6513 
        1.48491         75.0639          11.534          11.534 
        1.49104         74.4599         11.4185         11.4185 
        1.49718         74.1579         11.3045         11.3045 
        1.50333         73.8462         11.1919         11.1919 
        1.50947         73.5354          11.081          11.081 
         1.5156          73.181         10.9718         10.9718 
        1.52172         72.4626         10.8641         10.8641 
        1.52787         72.2789         10.7576         10.7576 
          1.534         71.8253         10.6526         10.6526 
        1.54013         71.5114         10.5492         10.5492 
        1.54627         70.9374         10.4469         10.4469 
        1.55241         70.9005          10.346          10.346 
        1.55855         70.0949         10.2465         10.2465 
        1.56467         69.7264         10.1487         10.1487 
         1.5708         69.2619         10.0518         10.0518 
        1.57695         69.0721         9.95604         9.95604 
        1.58308         68.7265         9.86175         9.86175 
        1.58922         68.5126         9.76861         9.76861 
        1.59535         68.2595          9.6767          9.6767 
         1.6015         67.5999         9.58586         9.58586 
        1.60764         67.2784         9.49621         9.49621 
        1.61376         67.0725         9.40796         9.40796 
        1.61989         66.5393         9.32076         9.32076 
        1.62604           66.31         9.23446         9.23446 
        1.63218         65.8954         9.14931         9.14931 
        1.63831         65.5782         9.06543         9.06543 
        1.64444          65.191         8.98256         8.98256 
        1.65059         64.8405         8.90053         8.90053 
        1.65673         64.6182         8.81961         8.81961 
        1.66285         64.1762         8.73991         8.73991 
        1.66898         63.7019         8.66118         8.66118 
        1.67512         63.3447         8.58326         8.58326 
        1.68127         63.1655         8.50622         8.50622 
         1.6874         62.7461          8.4303          8.4303 
        1.69353         62.4326         8.35535         8.35535 
        1.69967         62.0946         8.28113         8.28113 
        1.70581         61.8181         8.20784         8.20784 
        1.71193         61.3753         8.13571         8.13571 
        1.71806         61.2086          8.0643          8.0643 
        1.72421         60.8201          7.9936          7.9936 
        1.73035         60.4505         7.92382         7.92382 
        1.73649         60.1356          7.8549          7.8549 
        1.74262         59.8483         7.78684         7.78684 
        1.74876         59.5402         7.71955         7.71955 
        1.75489         59.2439         7.65319         7.65319 
        1.76101          58.995         7.58762         7.58762 
        1.76715          58.599         7.52273         7.52273 
        1.77329         58.2761         7.45852         7.45852 
        1.77943         58.1361         7.39503         7.39503 
        1.78557          57.812         7.33237         7.33237 
        1.79171         57.3173         7.27043         7.27043 
        1.79785         57.1049         7.20918         7.20918 
        1.80399         56.9596         7.14865         7.14865 
        1.81012          56.485          7.0889          7.0889 
        1.81625         56.2598         7.02985         7.02985 
        1.82239         55.8304         6.97138         6.97138 
        1.82853         55.7091         6.91361         6.91361 
        1.83466          55.279         6.85654         6.85654 
        1.84078         55.0353         6.80018         6.80018 
        1.84692         54.9458         6.74435         6.74435 
        1.85306         54.6636         6.68908         6.68908 
         1.8592         54.3095         6.63452         6.63452 
        1.86533         54.0099          6.5806          6.5806 
        1.87147         53.7041         6.52721         6.52721 
        1.87761         53.2759         6.47438         6.47438 
