# k  (h/Mpc)    Pcb(k)  (Mpc/h)^3    Pcb_linear(k) (Mpc/h)^3    Pcb_NL(k) (Mpc/h)^3   ShotnoiseSubtracted = false
     0.00783031         1406.45         1417.39         1417.39 
       0.013688         1632.38         1650.86         1650.86 
       0.019231         1584.97         1592.33         1592.33 
      0.0249154          1408.5         1405.84         1405.84 
      0.0312784         1165.41         1164.65         1164.65 
      0.0375637         960.879         962.098         962.098 
      0.0433917         828.798          826.35          826.35 
      0.0492413         735.358         735.344         735.344 
      0.0555754         672.305         670.122         670.122 
      0.0619321          614.19         618.684         618.684 
       0.067871         568.547         569.303         569.303 
      0.0738098         513.614         513.392         513.392 
      0.0800417         451.907         450.289         450.289 
      0.0862327         391.118         390.235         390.235 
      0.0921407         342.538         341.713         341.713 
      0.0982031         306.371         304.067         304.067 
       0.104506         277.495         277.494         277.494 
       0.110769          260.56          260.32          260.32 
       0.116806         249.553         247.981         247.981 
       0.122832         235.859         235.775         235.775 
       0.129052         221.622         220.745         220.745 
       0.135211         204.872         203.082         203.082 
       0.141259         185.595         184.493         184.493 
       0.147318         167.248         166.777         166.777 
       0.153489         152.677         151.488         151.488 
       0.159709         141.569          139.75          139.75 
       0.165845          131.88         131.537         131.537 
       0.171974          127.59         125.661         125.661 
       0.178125         122.358         120.776         120.776 
       0.184229         116.531         115.768         115.768 
        0.19034         111.537         109.939         109.939 
       0.196428         104.859         103.284         103.284 
       0.202534         96.7865         96.2188         96.2188 
       0.208729          91.025         89.3254         89.3254 
       0.214876          85.584         83.3298         83.3298 
       0.220989          79.689         78.4789         78.4789 
       0.227147         76.8071         74.6701         74.6701 
        0.23329         73.7782         71.6571         71.6571 
       0.239377         71.3035         69.0524         69.0524 
       0.245482         68.3633         66.4641         66.4641 
       0.251667         65.1441         63.6473         63.6473 
       0.257832         62.8307         60.6057         60.6057 
       0.263955         59.1661         57.4757         57.4757 
       0.270079         56.1149         54.4284         54.4284 
        0.27624         53.1154         51.6244         51.6244 
       0.282372         50.8086         49.1999         49.1999 
        0.28843         49.3629          47.165          47.165 
       0.294538         47.3676          45.406          45.406 
       0.300721         45.3764         43.8054         43.8054 
        0.30691         44.2149         42.2681         42.2681 
       0.313033          42.464         40.7304         40.7304 
       0.319153         41.3342         39.1535         39.1535 
       0.325316         39.2061         37.5476         37.5476 
        0.33145         37.6122         35.9849         35.9849 
       0.337538          36.232         34.5205         34.5205 
       0.343633         35.0124         33.1808         33.1808 
       0.349808          33.679         31.9585         31.9585 
       0.355968          32.503          30.861          30.861 
       0.362074         31.7396         29.8584         29.8584 
       0.368217         30.7035         28.8998         28.8998 
       0.374374         29.9273         27.9617         27.9617 
       0.380519         28.6844         27.0321         27.0321 
       0.386598         27.6966          26.123          26.123 
       0.392688         26.7247         25.2329         25.2329 
        0.39888         26.0479         24.3642         24.3642 
       0.405048         25.2824         23.5499         23.5499 
       0.411186         24.4603         22.7938         22.7938 
       0.417313         23.7128         22.0901         22.0901 
       0.423458         22.9395         21.4288         21.4288 
       0.429607         22.4788         20.7988         20.7988 
       0.435692         21.9679         20.1967         20.1967 
       0.441815         21.1494         19.6072         19.6072 
       0.447964         20.4089         19.0292         19.0292 
       0.454126         20.0078          18.465          18.465 
       0.460267         19.6316         17.9222         17.9222 
       0.466387         19.0156         17.4047         17.4047 
        0.47254         18.6143         16.9091         16.9091 
       0.478662         18.0165           16.44           16.44 
       0.484765         17.5661          15.995          15.995 
       0.490885         17.0295         15.5686         15.5686 
       0.497035         16.6143         15.1558         15.1558 
       0.503198         16.2703          14.755          14.755 
       0.509342         15.7571         14.3671         14.3671 
       0.515458         15.4748          13.993          13.993 
       0.521598         15.0981         13.6295         13.6295 
       0.527764         14.8198          13.277          13.277 
       0.533884         14.3567         12.9399         12.9399 
           0.54          14.064         12.6161         12.6161 
       0.546137         13.6238         12.3041         12.3041 
       0.552299         13.3579         12.0028         12.0028 
       0.558452         13.0312         11.7124         11.7124 
       0.564573         12.8034         11.4327         11.4327 
       0.570708         12.4943         11.1608         11.1608 
       0.576825         12.2524         10.8979         10.8979 
       0.582926         11.9667         10.6438         10.6438 
       0.589034         11.7175         10.3975         10.3975 
       0.595184         11.5333         10.1576         10.1576 
       0.601379         11.2016          9.9238          9.9238 
       0.607522         10.9741         9.69943         9.69943 
       0.613639         10.7299         9.48311         9.48311 
       0.619772          10.535         9.27305         9.27305 
       0.625918          10.299         9.06909         9.06909 
       0.632068         10.1514         8.87124         8.87124 
       0.638161          9.9168          8.6811          8.6811 
         0.6443         9.71795         8.49514         8.49514 
       0.650464         9.47929         8.31389         8.31389 
       0.656582         9.37188         8.13915         8.13915 
       0.662703         9.20875         7.96934         7.96934 
       0.668861         8.95148          7.8034          7.8034 
       0.675024         8.78982         7.64208         7.64208 
       0.681124         8.74506         7.48698         7.48698 
       0.687237         8.53011         7.33596         7.33596 
       0.693381         8.30633         7.18847         7.18847 
       0.699536         8.22856         7.04483         7.04483 
       0.705665         8.05617         6.90577         6.90577 
       0.711789         7.87943         6.77063         6.77063 
       0.717957         7.70696          6.6382          6.6382 
        0.72409         7.61822         6.51005         6.51005 
       0.730186         7.54427         6.38605         6.38605 
       0.736317         7.35481         6.26461         6.26461 
       0.742472         7.25729         6.14589         6.14589 
       0.748622         7.12605         6.03035         6.03035 
        0.75476         6.93429         5.91804         5.91804 
       0.760888         6.87293         5.80877         5.80877 
       0.767043         6.71141         5.70183         5.70183 
       0.773185         6.61582         5.59781         5.59781 
       0.779291         6.56636         5.49698         5.49698 
       0.785407         6.42482         5.39851         5.39851 
       0.791564         6.32526         5.30183         5.30183 
       0.797719         6.19707         5.20758         5.20758 
       0.803834         6.13284         5.11623         5.11623 
       0.809972         6.00808         5.02675         5.02675 
       0.816124          5.9206         4.93922         4.93922 
       0.822261         5.83589         4.85402         4.85402 
       0.828378          5.7441         4.77109         4.77109 
       0.834502         5.65818         4.69004         4.69004 
       0.840667         5.59036         4.61035         4.61035 
       0.846816         5.46689         4.53274         4.53274 
       0.852925         5.40443         4.45741         4.45741 
       0.859047         5.31854         4.38365         4.38365 
       0.865192         5.23437         4.31132         4.31132 
       0.871341         5.15615         4.24057         4.24057 
       0.877463         5.07507         4.17174         4.17174 
       0.883569         5.01781         4.10462         4.10462 
       0.889708         4.93446         4.03863         4.03863 
       0.895864         4.86386         3.97393         3.97393 
       0.902008         4.78353         3.91079         3.91079 
       0.908149         4.71443         3.84906         3.84906 
       0.914301         4.66042         3.78857         3.78857 
       0.920448         4.59827         3.72943         3.72943 
       0.926574         4.55375         3.67177         3.67177 
       0.932687         4.46907         3.61545         3.61545 
       0.938823         4.38988         3.56012         3.56012 
       0.944975         4.35801         3.50581         3.50581 
       0.951105         4.27033         3.45284         3.45284 
       0.957225         4.23952         3.40105         3.40105 
       0.963368         4.17638         3.35015         3.35015 
       0.969511         4.12069         3.30029         3.30029 
       0.975621         4.05829         3.25172         3.25172 
       0.981748         3.98769           3.204           3.204 
       0.987916         3.94728         3.15693         3.15693 
        0.99406         3.90799         3.11099         3.11099 
        1.00019         3.86041         3.06606         3.06606 
        1.00632          3.8177         3.02205         3.02205 
        1.01246         3.75865         2.97885         2.97885 
        1.01859         3.70828         2.93656         2.93656 
        1.02471         3.64724         2.89515         2.89515 
        1.03085          3.6197         2.85439         2.85439 
        1.03698          3.5731          2.8145          2.8145 
        1.04314           3.527         2.77521         2.77521 
        1.04929         3.47473         2.73676         2.73676 
        1.05541         3.43162         2.69919         2.69919 
        1.06154         3.39837         2.66223         2.66223 
        1.06769         3.37174         2.62591         2.62591 
        1.07382         3.30877         2.59039         2.59039 
        1.07993         3.26698         2.55561         2.55561 
        1.08607         3.24261         2.52132         2.52132 
        1.09222         3.19161         2.48763         2.48763 
        1.09836         3.17935         2.45459         2.45459 
        1.10449         3.10692          2.4222          2.4222 
        1.11063         3.08667         2.39035         2.39035 
        1.11677         3.05272         2.35909         2.35909 
         1.1229         3.01568         2.32844         2.32844 
        1.12903         2.98775         2.29831         2.29831 
        1.13518         2.94038         2.26869         2.26869 
        1.14131         2.90597          2.2396          2.2396 
        1.14745         2.86919         2.21105         2.21105 
        1.15359         2.83759         2.18298         2.18298 
        1.15973         2.80416          2.1554          2.1554 
        1.16584         2.78049         2.12841         2.12841 
        1.17197         2.74195         2.10184         2.10184 
        1.17811         2.71042         2.07565         2.07565 
        1.18424         2.68089         2.04998         2.04998 
        1.19038         2.65614         2.02467         2.02467 
        1.19652         2.63022          1.9998          1.9998 
        1.20267         2.60438         1.97535         1.97535 
        1.20881         2.56956         1.95131         1.95131 
        1.21495         2.54445         1.92771         1.92771 
        1.22108          2.5164          1.9045          1.9045 
         1.2272         2.48144         1.88173         1.88173 
        1.23334          2.4704         1.85928         1.85928 
        1.23949          2.4342         1.83714         1.83714 
        1.24562         2.41273         1.81542         1.81542 
        1.25174         2.39529         1.79408         1.79408 
        1.25789         2.35408         1.77303         1.77303 
        1.26402         2.33487         1.75234         1.75234 
        1.27014         2.31112         1.73204         1.73204 
        1.27628         2.28506           1.712           1.712 
        1.28244         2.26483         1.69223         1.69223 
        1.28858         2.24563         1.67281         1.67281 
        1.29471         2.21304         1.65373         1.65373 
        1.30084          2.1911         1.63497         1.63497 
        1.30697          2.1766         1.61647         1.61647 
        1.31312         2.15221         1.59823         1.59823 
        1.31925         2.12966         1.58032         1.58032 
        1.32537         2.11135         1.56271         1.56271 
        1.33151         2.08655         1.54531         1.54531 
        1.33765         2.06736         1.52818         1.52818 
        1.34378         2.05343         1.51134         1.51134 
        1.34992         2.03132         1.49475         1.49475 
        1.35606         2.01226         1.47837         1.47837 
         1.3622         1.99303         1.46226         1.46226 
        1.36833         1.96826         1.44643         1.44643 
        1.37445         1.94715         1.43085         1.43085 
        1.38059         1.92922         1.41544         1.41544 
        1.38675         1.91206         1.40023         1.40023 
        1.39288         1.90125         1.38529         1.38529 
        1.39901         1.87433         1.37059         1.37059 
        1.40515         1.85944         1.35606         1.35606 
         1.4113         1.84539         1.34175         1.34175 
        1.41742         1.82362          1.3277          1.3277 
        1.42355         1.80664         1.31382         1.31382 
         1.4297          1.7929         1.30011         1.30011 
        1.43585         1.77728         1.28659         1.28659 
        1.44198         1.75822         1.27331         1.27331 
        1.44809         1.74609         1.26025         1.26025 
        1.45423         1.72798         1.24733         1.24733 
        1.46036         1.71485          1.2346          1.2346 
        1.46649         1.69332         1.22205         1.22205 
        1.47263         1.68561         1.20967         1.20967 
        1.47877         1.67217         1.19746         1.19746 
        1.48491         1.65002          1.1854          1.1854 
        1.49104         1.63835         1.17353         1.17353 
        1.49718         1.62469         1.16182         1.16182 
        1.50333         1.60851         1.15024         1.15024 
        1.50947         1.59353         1.13885         1.13885 
         1.5156         1.58139         1.12762         1.12762 
        1.52172         1.56784         1.11655         1.11655 
        1.52787         1.55539         1.10561         1.10561 
          1.534          1.5422         1.09482         1.09482 
        1.54013         1.52835         1.08419         1.08419 
        1.54627         1.51401         1.07368         1.07368 
        1.55241         1.49931         1.06331         1.06331 
        1.55855         1.48925         1.05308         1.05308 
        1.56467         1.47829         1.04303         1.04303 
         1.5708         1.46387         1.03307         1.03307 
        1.57695         1.44872         1.02323         1.02323 
        1.58308         1.43502         1.01354         1.01354 
        1.58922          1.4293         1.00397         1.00397 
        1.59535          1.4129         0.99452         0.99452 
         1.6015         1.40102        0.985183        0.985183 
        1.60764         1.39342         0.97597         0.97597 
        1.61376         1.37712          0.9669          0.9669 
        1.61989          1.3657        0.957938        0.957938 
        1.62604         1.35388        0.949069        0.949069 
        1.63218         1.34717        0.940317        0.940317 
        1.63831         1.33719        0.931696        0.931696 
        1.64444         1.32397        0.923179        0.923179 
        1.65059         1.31643        0.914749        0.914749 
        1.65673         1.30108        0.906432        0.906432 
        1.66285         1.29113        0.898242        0.898242 
        1.66898         1.28146         0.89015         0.89015 
        1.67512         1.26958        0.882141        0.882141 
        1.68127         1.26038        0.874224        0.874224 
         1.6874         1.25416        0.866421        0.866421 
        1.69353         1.23999        0.858718        0.858718 
        1.69967         1.23036         0.85109         0.85109 
        1.70581         1.22486        0.843558        0.843558 
        1.71193         1.20785        0.836145        0.836145 
        1.71806         1.20314        0.828806        0.828806 
        1.72421          1.1954         0.82154         0.82154 
        1.73035         1.18211        0.814369        0.814369 
        1.73649          1.1762        0.807285        0.807285 
        1.74262         1.16641         0.80029         0.80029 
        1.74876         1.15746        0.793374        0.793374 
        1.75489         1.14791        0.786554        0.786554 
        1.76101         1.13741        0.779815        0.779815 
        1.76715         1.13255        0.773147        0.773147 
        1.77329          1.1217        0.766547        0.766547 
        1.77943         1.11412        0.760022        0.760022 
        1.78557         1.10654        0.753583        0.753583 
        1.79171         1.09874        0.747216        0.747216 
        1.79785         1.09109        0.740922        0.740922 
        1.80399         1.08164        0.734701        0.734701 
        1.81012         1.07351        0.728559        0.728559 
        1.81625         1.06308        0.722491        0.722491 
        1.82239         1.05772        0.716482        0.716482 
        1.82853         1.04999        0.710544        0.710544 
        1.83466         1.03997        0.704679        0.704679 
        1.84078         1.03321        0.698886        0.698886 
        1.84692         1.02577        0.693149        0.693149 
        1.85306         1.01979        0.687469        0.687469 
         1.8592         1.01051        0.681861        0.681861 
        1.86533         1.00467        0.676319        0.676319 
        1.87147        0.997616        0.670832        0.670832 
