# k  (h/Mpc)    Pcb(k)  (Mpc/h)^3    Pcb_linear(k) (Mpc/h)^3    Pcb_NL(k) (Mpc/h)^3   ShotnoiseSubtracted = false
     0.00783031         17723.3         17815.2         17815.2 
       0.013688         20161.3         20714.3         20714.3 
       0.019231         19663.3         19969.1         19969.1 
      0.0249154         17710.1         17625.7         17625.7 
      0.0312784         14492.2         14599.4         14599.4 
      0.0375637         11888.9         12059.3         12059.3 
      0.0433917         10337.8         10357.2         10357.2 
      0.0492413         9138.98         9216.15         9216.15 
      0.0555754         8387.86         8398.45         8398.45 
      0.0619321         7513.23         7753.62         7753.62 
       0.067871         7020.84         7134.63         7134.63 
      0.0738098         6410.11         6433.85         6433.85 
      0.0800417         5667.03         5642.98         5642.98 
      0.0862327         4918.53         4890.35         4890.35 
      0.0921407         4365.94         4282.24         4282.24 
      0.0982031         3960.05         3810.46         3810.46 
       0.104506         3559.03         3477.44         3477.44 
       0.110769         3353.93          3262.2          3262.2 
       0.116806         3232.99         3107.57         3107.57 
       0.122832         3044.19          2954.6          2954.6 
       0.129052         2846.18         2766.25         2766.25 
       0.135211         2706.86         2544.89         2544.89 
       0.141259         2451.73         2311.95         2311.95 
       0.147318         2233.31         2089.94         2089.94 
       0.153489         2073.75         1898.34         1898.34 
       0.159709         1981.94         1751.25         1751.25 
       0.165845         1824.05         1648.32         1648.32 
       0.171974         1786.93         1574.69         1574.69 
       0.178125         1730.73         1513.47         1513.47 
       0.184229         1599.98         1450.72         1450.72 
        0.19034         1564.64         1377.67         1377.67 
       0.196428         1504.98         1294.27         1294.27 
       0.202534          1395.2         1205.74         1205.74 
       0.208729         1359.14         1119.35         1119.35 
       0.214876         1286.69         1044.22         1044.22 
       0.220989         1216.15         983.433         983.433 
       0.227147         1182.75         935.703         935.703 
        0.23329         1137.05         897.946         897.946 
       0.239377         1128.72         865.306         865.306 
       0.245482         1072.29         832.871         832.871 
       0.251667          1031.4         797.574         797.574 
       0.257832         1011.27         759.458         759.458 
       0.263955         959.322         720.235         720.235 
       0.270079         926.672         682.049         682.049 
        0.27624         886.673         646.912         646.912 
       0.282372         871.685          616.53          616.53 
        0.28843         856.935          591.03          591.03 
       0.294538         815.075         568.988         568.988 
       0.300721         797.147          548.93          548.93 
        0.30691         777.971         529.665         529.665 
       0.313033         744.479         510.396         510.396 
       0.319153         734.454         490.637         490.637 
       0.325316         723.098         470.512         470.512 
        0.33145         704.622          450.93          450.93 
       0.337538         679.058          432.58          432.58 
       0.343633         661.635         415.792         415.792 
       0.349808         646.907         400.475         400.475 
       0.355968         634.018         386.722         386.722 
       0.362074         610.796         374.158         374.158 
       0.368217         608.076         362.145         362.145 
       0.374374          598.44          350.39          350.39 
       0.380519         574.763         338.741         338.741 
       0.386598         569.541         327.349         327.349 
       0.392688         554.639         316.195         316.195 
        0.39888          541.58         305.309         305.309 
       0.405048         529.217         295.105         295.105 
       0.411186         528.539          285.63          285.63 
       0.417313         521.849         276.813         276.813 
       0.423458         507.487         268.525         268.525 
       0.429607         492.215         260.631         260.631 
       0.435692         485.829         253.086         253.086 
       0.441815         476.921         245.699         245.699 
       0.447964          467.81         238.457         238.457 
       0.454126         462.464         231.386         231.386 
       0.460267         454.892         224.584         224.584 
       0.466387         445.348         218.099         218.099 
        0.47254         439.814         211.889         211.889 
       0.478662         431.102         206.011         206.011 
       0.484765         424.938         200.435         200.435 
       0.490885         421.373          195.09          195.09 
       0.497035         411.371         189.918         189.918 
       0.503198         410.678         184.895         184.895 
       0.509342         402.126         180.035         180.035 
       0.515458         394.096         175.347         175.347 
       0.521598         390.377         170.792         170.792 
       0.527764         382.951         166.375         166.375 
       0.533884         379.167         162.151         162.151 
           0.54         375.028         158.093         158.093 
       0.546137         367.595         154.184         154.184 
       0.552299         365.954         150.407         150.407 
       0.558452         359.809         146.769         146.769 
       0.564573         357.453         143.264         143.264 
       0.570708         351.848         139.856         139.856 
       0.576825         345.295         136.562         136.562 
       0.582926         344.082         133.378         133.378 
       0.589034         337.526         130.292         130.292 
       0.595184         335.132         127.285         127.285 
       0.601379         329.564         124.356         124.356 
       0.607522         323.014         121.544         121.544 
       0.613639         322.039         118.833         118.833 
       0.619772         320.634         116.201         116.201 
       0.625918         313.838         113.645         113.645 
       0.632068         312.192         111.166         111.166 
       0.638161         309.096         108.783         108.783 
         0.6443         304.467         106.453         106.453 
       0.650464         301.369         104.182         104.182 
       0.656582         298.129         101.992         101.992 
       0.662703         296.473         99.8642         99.8642 
       0.668861         290.798         97.7848         97.7848 
       0.675024         289.761         95.7632         95.7632 
       0.681124         284.654         93.8197         93.8197 
       0.687237         283.665         91.9272         91.9272 
       0.693381          279.05          90.079          90.079 
       0.699536         278.507          88.279          88.279 
       0.705665         274.618         86.5365         86.5365 
       0.711789         272.069          84.843          84.843 
       0.717957         269.765         83.1835         83.1835 
        0.72409         266.055         81.5776         81.5776 
       0.730186         267.049         80.0239         80.0239 
       0.736317          262.34         78.5021         78.5021 
       0.742472         260.161         77.0144         77.0144 
       0.748622         257.928         75.5666         75.5666 
        0.75476         256.377         74.1592         74.1592 
       0.760888         253.578         72.7899         72.7899 
       0.767043         250.482         71.4498         71.4498 
       0.773185         248.416         70.1463         70.1463 
       0.779291         246.107         68.8829         68.8829 
       0.785407         244.348         67.6489         67.6489 
       0.791564         242.752         66.4374         66.4374 
       0.797719         238.765         65.2564         65.2564 
       0.803834         239.489         64.1116         64.1116 
       0.809972          235.77         62.9904         62.9904 
       0.816124         233.031         61.8936         61.8936 
       0.822261         231.371         60.8259         60.8259 
       0.828378         230.365         59.7867         59.7867 
       0.834502         227.164          58.771          58.771 
       0.840667         227.222         57.7724         57.7724 
       0.846816         223.049         56.7999         56.7999 
       0.852925         223.209          55.856          55.856 
       0.859047          220.75         54.9316         54.9316 
       0.865192         219.826         54.0252         54.0252 
       0.871341         217.198         53.1388         53.1388 
       0.877463         215.743         52.2762         52.2762 
       0.883569         214.694         51.4351         51.4351 
       0.889708         212.767         50.6082         50.6082 
       0.895864          209.94         49.7975         49.7975 
       0.902008         208.704         49.0062         49.0062 
       0.908149          206.82         48.2327         48.2327 
       0.914301         205.585         47.4746         47.4746 
       0.920448         204.426         46.7336         46.7336 
       0.926574         202.411         46.0111         46.0111 
       0.932687         202.163         45.3053         45.3053 
       0.938823         199.841         44.6119         44.6119 
       0.944975         199.439         43.9315         43.9315 
       0.951105         197.014         43.2676         43.2676 
       0.957225         195.331         42.6187         42.6187 
       0.963368          195.32         41.9809         41.9809 
       0.969511          192.13         41.3561         41.3561 
       0.975621         190.165         40.7474         40.7474 
       0.981748         190.075         40.1494         40.1494 
       0.987916         188.967         39.5596         39.5596 
        0.99406         187.076         38.9839         38.9839 
        1.00019         186.018         38.4209         38.4209 
        1.00632         185.022         37.8695         37.8695 
        1.01246         183.566         37.3281         37.3281 
        1.01859         181.588         36.7981         36.7981 
        1.02471         180.279         36.2792         36.2792 
        1.03085         179.163         35.7684         35.7684 
        1.03698         178.654         35.2686         35.2686 
        1.04314         177.714         34.7762         34.7762 
        1.04929         176.366         34.2944         34.2944 
        1.05541         175.602         33.8236         33.8236 
        1.06154         173.771         33.3605         33.3605 
        1.06769         172.728         32.9054         32.9054 
        1.07382         171.236         32.4603         32.4603 
        1.07993         170.155         32.0244         32.0244 
        1.08607         169.621         31.5947         31.5947 
        1.09222         167.837         31.1725         31.1725 
        1.09836         167.123         30.7586         30.7586 
        1.10449         166.138         30.3526         30.3526 
        1.11063         164.666         29.9535         29.9535 
        1.11677         163.571         29.5618         29.5618 
         1.1229         163.164         29.1777         29.1777 
        1.12903         161.247         28.8002         28.8002 
        1.13518         160.444          28.429          28.429 
        1.14131         159.796         28.0645         28.0645 
        1.14745         158.065         27.7067         27.7067 
        1.15359         157.246          27.355          27.355 
        1.15973          156.64         27.0093         27.0093 
        1.16584         155.548         26.6711         26.6711 
        1.17197         154.865         26.3382         26.3382 
        1.17811         153.346           26.01           26.01 
        1.18424         152.484         25.6884         25.6884 
        1.19038          151.87         25.3712         25.3712 
        1.19652         150.096         25.0596         25.0596 
        1.20267         149.486         24.7531         24.7531 
        1.20881         148.422         24.4519         24.4519 
        1.21495         148.202         24.1561         24.1561 
        1.22108         146.892         23.8653         23.8653 
         1.2272         146.091           23.58           23.58 
        1.23334          144.99         23.2986         23.2986 
        1.23949         144.302         23.0212         23.0212 
        1.24562         143.216         22.7491         22.7491 
        1.25174         142.822         22.4817         22.4817 
        1.25789         141.504         22.2178         22.2178 
        1.26402         140.906         21.9587         21.9587 
        1.27014          140.14         21.7042         21.7042 
        1.27628         139.479         21.4531         21.4531 
        1.28244         138.168         21.2054         21.2054 
        1.28858         137.454          20.962          20.962 
        1.29471         136.371         20.7229         20.7229 
        1.30084         135.794         20.4878         20.4878 
        1.30697         134.819          20.256          20.256 
        1.31312         134.225         20.0274         20.0274 
        1.31925         133.059         19.8031         19.8031 
        1.32537         132.689         19.5824         19.5824 
        1.33151         131.601         19.3643         19.3643 
        1.33765         131.001         19.1496         19.1496 
        1.34378         130.543         18.9387         18.9387 
        1.34992         129.391         18.7307         18.7307 
        1.35606         128.864         18.5254         18.5254 
         1.3622         127.927         18.3236         18.3236 
        1.36833         127.161         18.1253         18.1253 
        1.37445         126.709         17.9299         17.9299 
        1.38059          125.61         17.7369         17.7369 
        1.38675         124.963         17.5462         17.5462 
        1.39288         124.153         17.3591         17.3591 
        1.39901         123.228         17.1748         17.1748 
        1.40515         122.776         16.9928         16.9928 
         1.4113         122.049         16.8135         16.8135 
        1.41742         121.435         16.6374         16.6374 
        1.42355         120.716         16.4636         16.4636 
         1.4297         119.934         16.2916         16.2916 
        1.43585         119.437         16.1223         16.1223 
        1.44198         118.368         15.9559         15.9559 
        1.44809         117.952         15.7922         15.7922 
        1.45423         117.415         15.6303         15.6303 
        1.46036         116.535         15.4708         15.4708 
        1.46649         115.727         15.3136         15.3136 
        1.47263          115.22         15.1584         15.1584 
        1.47877         114.517         15.0054         15.0054 
        1.48491         113.764         14.8543         14.8543 
        1.49104         112.892         14.7055         14.7055 
        1.49718         112.465         14.5587         14.5587 
        1.50333         111.593         14.4137         14.4137 
        1.50947         111.344         14.2709         14.2709 
         1.5156          110.43         14.1303         14.1303 
        1.52172         109.779         13.9915         13.9915 
        1.52787         109.468         13.8544         13.8544 
          1.534         108.792         13.7192         13.7192 
        1.54013         107.914          13.586          13.586 
        1.54627         107.426         13.4543         13.4543 
        1.55241          106.97         13.3243         13.3243 
        1.55855         106.225         13.1962         13.1962 
        1.56467         105.695         13.0702         13.0702 
         1.5708         104.783         12.9454         12.9454 
        1.57695         104.569         12.8221         12.8221 
        1.58308         103.722         12.7006         12.7006 
        1.58922         103.241         12.5807         12.5807 
        1.59535         102.844         12.4623         12.4623 
         1.6015         101.999         12.3453         12.3453 
        1.60764         101.426         12.2299         12.2299 
        1.61376         101.049         12.1162         12.1162 
        1.61989         100.517         12.0039         12.0039 
        1.62604         99.7869         11.8928         11.8928 
        1.63218         99.3024         11.7831         11.7831 
        1.63831         98.6459         11.6751         11.6751 
        1.64444         97.9471         11.5684         11.5684 
        1.65059         97.6031         11.4627         11.4627 
        1.65673         97.2456         11.3585         11.3585 
        1.66285         96.8414         11.2559         11.2559 
        1.66898         95.9947         11.1545         11.1545 
        1.67512         95.1682         11.0541         11.0541 
        1.68127         95.0884         10.9549         10.9549 
         1.6874         94.4831         10.8571         10.8571 
        1.69353          93.859         10.7606         10.7606 
        1.69967         93.3174          10.665          10.665 
        1.70581         92.8929         10.5706         10.5706 
        1.71193         92.3507         10.4777         10.4777 
        1.71806         91.5403         10.3858         10.3858 
        1.72421         91.1262         10.2947         10.2947 
        1.73035         90.6974         10.2049         10.2049 
        1.73649         90.2746         10.1161         10.1161 
        1.74262         89.7325         10.0284         10.0284 
        1.74876         89.0505         9.94177         9.94177 
        1.75489         88.9781          9.8563          9.8563 
        1.76101         88.3849         9.77187         9.77187 
        1.76715         87.6761          9.6883          9.6883 
        1.77329         87.2138         9.60561         9.60561 
        1.77943         86.7466         9.52384         9.52384 
        1.78557         86.4062         9.44314         9.44314 
        1.79171          85.792         9.36336         9.36336 
        1.79785         85.2748         9.28449         9.28449 
        1.80399         84.8228         9.20653         9.20653 
        1.81012         84.2644         9.12958         9.12958 
        1.81625          83.838         9.05353         9.05353 
        1.82239         83.5098         8.97823         8.97823 
        1.82853         82.8148         8.90382         8.90382 
        1.83466          82.259         8.83033         8.83033 
        1.84078         82.1537         8.75774         8.75774 
        1.84692         81.7877         8.68585         8.68585 
        1.85306         81.2911         8.61467         8.61467 
         1.8592         80.9055          8.5444          8.5444 
        1.86533         80.3541         8.47495         8.47495 
        1.87147         79.8721         8.40619         8.40619 
