# k  (h/Mpc)    Pcb(k)  (Mpc/h)^3    Pcb_linear(k) (Mpc/h)^3    Pcb_NL(k) (Mpc/h)^3   ShotnoiseSubtracted = false
     0.00783031         107.222         108.156         108.156 
       0.013688         125.154         126.064         126.064 
       0.019231         121.337         121.624         121.624 
      0.0249154         107.378         107.392         107.392 
      0.0312784         89.0868         88.9737         88.9737 
      0.0375637         73.5905         73.5029         73.5029 
      0.0433917         63.2942         63.1334         63.1334 
      0.0492413         56.2485         56.1813         56.1813 
      0.0555754         51.2871         51.1987         51.1987 
      0.0619321         47.1724         47.2691         47.2691 
       0.067871         43.4722         43.4965         43.4965 
      0.0738098          39.219         39.2249         39.2249 
      0.0800417         34.4437         34.4039         34.4039 
      0.0862327         29.8506         29.8158         29.8158 
      0.0921407         26.1352         26.1085         26.1085 
      0.0982031         23.2947         23.2323         23.2323 
       0.104506          21.204          21.202          21.202 
       0.110769         19.8865         19.8897         19.8897 
       0.116806         18.9621          18.947          18.947 
       0.122832         17.9931         18.0143         18.0143 
       0.129052          16.865          16.866          16.866 
       0.135211         15.5315         15.5165         15.5165 
       0.141259         14.0994         14.0963         14.0963 
       0.147318         12.7358         12.7427         12.7427 
       0.153489          11.585         11.5746         11.5746 
       0.159709         10.6938         10.6777         10.6777 
       0.165845         10.0356         10.0502         10.0502 
       0.171974         9.61596         9.60122         9.60122 
       0.178125         9.23226         9.22793         9.22793 
       0.184229         8.83619         8.84534         8.84534 
        0.19034         8.41091         8.39993         8.39993 
       0.196428         7.89637         7.89148         7.89148 
       0.202534         7.33711         7.35166         7.35166 
       0.208729         6.83119         6.82498         6.82498 
       0.214876         6.38585         6.36689         6.36689 
       0.220989         5.99382         5.99626         5.99626 
       0.227147         5.72187         5.70524         5.70524 
        0.23329         5.49047         5.47502         5.47502 
       0.239377         5.29092           5.276           5.276 
       0.245482         5.09147         5.07824         5.07824 
       0.251667         4.86599         4.86302         4.86302 
       0.257832         4.64486         4.63063         4.63063 
       0.263955         4.39919         4.39148         4.39148 
       0.270079         4.16589         4.15865         4.15865 
        0.27624         3.94583         3.94441         3.94441 
       0.282372         3.76183         3.75917         3.75917 
        0.28843         3.61616         3.60369         3.60369 
       0.294538         3.47983         3.46929         3.46929 
       0.300721         3.34949         3.34699         3.34699 
        0.30691         3.23981         3.22953         3.22953 
       0.313033         3.12051         3.11204         3.11204 
       0.319153         3.01114         2.99156         2.99156 
       0.325316         2.87257         2.86886         2.86886 
        0.33145          2.7541         2.74946         2.74946 
       0.337538         2.64483         2.63757         2.63757 
       0.343633         2.54653         2.53521         2.53521 
       0.349808         2.44983         2.44182         2.44182 
       0.355968         2.36391         2.35797         2.35797 
       0.362074         2.29167         2.28136         2.28136 
       0.368217         2.21714         2.20811         2.20811 
       0.374374          2.1509         2.13644         2.13644 
       0.380519         2.07404         2.06541         2.06541 
       0.386598         2.00231         1.99595         1.99595 
       0.392688         1.93215         1.92794         1.92794 
        0.39888         1.86932         1.86157         1.86157 
       0.405048         1.80774         1.79935         1.79935 
       0.411186         1.74883         1.74158         1.74158 
       0.417313         1.69591         1.68782         1.68782 
       0.423458         1.64176         1.63729         1.63729 
       0.429607         1.59813         1.58915         1.58915 
       0.435692         1.55265         1.54315         1.54315 
       0.441815          1.5059         1.49811         1.49811 
       0.447964         1.45793         1.45395         1.45395 
       0.454126         1.41885         1.41084         1.41084 
       0.460267          1.3795         1.36936         1.36936 
       0.466387         1.33906         1.32982         1.32982 
        0.47254          1.3022         1.29196         1.29196 
       0.478662         1.26504         1.25612         1.25612 
       0.484765         1.23179         1.22212         1.22212 
       0.490885         1.19724         1.18953         1.18953 
       0.497035         1.16313         1.15799         1.15799 
       0.503198         1.13542         1.12737         1.12737 
       0.509342         1.10299         1.09774         1.09774 
       0.515458         1.07668         1.06915         1.06915 
       0.521598         1.04922         1.04138         1.04138 
       0.527764         1.02449         1.01445         1.01445 
       0.533884        0.994384        0.988689        0.988689 
           0.54        0.971042        0.963948        0.963948 
       0.546137        0.945748         0.94011         0.94011 
       0.552299        0.923705        0.917083        0.917083 
       0.558452        0.901645        0.894901        0.894901 
       0.564573         0.88025        0.873531        0.873531 
       0.570708        0.859646        0.852752        0.852752 
       0.576825          0.8397        0.832663        0.832663 
       0.582926        0.818806        0.813251        0.813251 
       0.589034        0.802363        0.794434        0.794434 
       0.595184        0.784473        0.776101        0.776101 
       0.601379        0.765186        0.758238        0.758238 
       0.607522        0.747264        0.741095        0.741095 
       0.613639        0.729532        0.724567        0.724567 
       0.619772        0.715449        0.708517        0.708517 
       0.625918        0.699664        0.692933        0.692933 
       0.632068        0.684391        0.677817        0.677817 
       0.638161        0.669541        0.663288        0.663288 
         0.6443        0.655019         0.64908         0.64908 
       0.650464        0.641916        0.635232        0.635232 
       0.656582        0.629059        0.621881        0.621881 
       0.662703        0.615571        0.608906        0.608906 
       0.668861        0.601079        0.596227        0.596227 
       0.675024        0.589594        0.583901        0.583901 
       0.681124        0.580308        0.572051        0.572051 
       0.687237        0.567029        0.560512        0.560512 
       0.693381        0.554381        0.549242        0.549242 
       0.699536        0.545261        0.538268        0.538268 
       0.705665        0.534529        0.527643        0.527643 
       0.711789        0.522601        0.517317        0.517317 
       0.717957        0.513186        0.507198        0.507198 
        0.72409        0.503086        0.497407        0.497407 
       0.730186        0.494977        0.487933        0.487933 
       0.736317        0.484041        0.478654        0.478654 
       0.742472        0.475959        0.469583        0.469583 
       0.748622        0.467306        0.460756        0.460756 
        0.75476        0.457962        0.452174        0.452174 
       0.760888        0.450553        0.443825        0.443825 
       0.767043        0.439598        0.435654        0.435654 
       0.773185        0.432997        0.427706        0.427706 
       0.779291        0.426422        0.420003        0.420003 
       0.785407        0.418239        0.412479        0.412479 
       0.791564        0.410557        0.405092        0.405092 
       0.797719        0.403222        0.397891        0.397891 
       0.803834        0.396093        0.390911        0.390911 
       0.809972        0.389495        0.384074        0.384074 
       0.816124         0.38259        0.377387        0.377387 
       0.822261        0.376457        0.370877        0.370877 
       0.828378        0.369687         0.36454         0.36454 
       0.834502        0.363298        0.358347        0.358347 
       0.840667        0.357788        0.352259        0.352259 
       0.846816        0.351618        0.346329        0.346329 
       0.852925        0.345197        0.340574        0.340574 
       0.859047        0.339654        0.334937        0.334937 
       0.865192        0.334378        0.329411        0.329411 
       0.871341        0.329416        0.324006        0.324006 
       0.877463        0.323106        0.318746        0.318746 
       0.883569        0.318247        0.313618        0.313618 
       0.889708          0.3135        0.308576        0.308576 
       0.895864        0.308564        0.303633        0.303633 
       0.902008        0.303272        0.298808        0.298808 
       0.908149        0.298956        0.294092        0.294092 
       0.914301        0.294813        0.289469        0.289469 
       0.920448        0.290149        0.284951        0.284951 
       0.926574        0.285983        0.280546        0.280546 
       0.932687        0.281681        0.276243        0.276243 
       0.938823        0.276553        0.272015        0.272015 
       0.944975        0.272832        0.267866        0.267866 
       0.951105        0.268097        0.263818        0.263818 
       0.957225        0.264128        0.259861        0.259861 
       0.963368        0.260697        0.255972        0.255972 
       0.969511        0.257179        0.252162        0.252162 
       0.975621        0.252834        0.248451        0.248451 
       0.981748        0.248633        0.244805        0.244805 
       0.987916        0.245334        0.241209        0.241209 
        0.99406        0.242154        0.237699        0.237699 
        1.00019        0.238542        0.234266        0.234266 
        1.00632        0.235703        0.230903        0.230903 
        1.01246        0.232277        0.227602        0.227602 
        1.01859        0.228923        0.224371        0.224371 
        1.02471        0.225358        0.221207        0.221207 
        1.03085        0.221883        0.218093        0.218093 
        1.03698        0.219361        0.215045        0.215045 
        1.04314        0.216199        0.212043        0.212043 
        1.04929        0.213703        0.209105        0.209105 
        1.05541        0.210132        0.206234        0.206234 
        1.06154        0.207568        0.203411        0.203411 
        1.06769        0.204922        0.200636        0.200636 
        1.07382        0.202189        0.197922        0.197922 
        1.07993         0.19961        0.195264        0.195264 
        1.08607        0.196708        0.192644        0.192644 
        1.09222         0.19413         0.19007         0.19007 
        1.09836        0.191542        0.187546        0.187546 
        1.10449        0.188925        0.185071        0.185071 
        1.11063        0.186484        0.182637        0.182637 
        1.11677        0.184385        0.180249        0.180249 
         1.1229         0.18152        0.177907        0.177907 
        1.12903        0.179456        0.175605        0.175605 
        1.13518        0.177163        0.173342        0.173342 
        1.14131        0.175034        0.171119        0.171119 
        1.14745        0.173351        0.168938        0.168938 
        1.15359        0.170715        0.166793        0.166793 
        1.15973        0.168828        0.164685        0.164685 
        1.16584        0.166553        0.162623        0.162623 
        1.17197        0.164264        0.160594        0.160594 
        1.17811        0.162175        0.158592        0.158592 
        1.18424        0.160266        0.156631        0.156631 
        1.19038        0.158093        0.154697        0.154697 
        1.19652        0.156742        0.152797        0.152797 
        1.20267        0.154727        0.150929        0.150929 
        1.20881        0.152347        0.149092        0.149092 
        1.21495        0.150745        0.147289        0.147289 
        1.22108        0.149118        0.145515        0.145515 
         1.2272        0.147109        0.143775        0.143775 
        1.23334        0.145466         0.14206         0.14206 
        1.23949        0.144002        0.140368        0.140368 
        1.24562        0.142238        0.138709        0.138709 
        1.25174        0.140612        0.137079        0.137079 
        1.25789        0.138571         0.13547         0.13547 
        1.26402        0.137442         0.13389         0.13389 
        1.27014        0.135461        0.132339        0.132339 
        1.27628         0.13415        0.130807        0.130807 
        1.28244        0.132623        0.129297        0.129297 
        1.28858        0.130921        0.127813        0.127813 
        1.29471         0.12955        0.126355        0.126355 
        1.30084        0.128007        0.124922        0.124922 
        1.30697        0.126871        0.123508        0.123508 
        1.31312        0.125485        0.122114        0.122114 
        1.31925         0.12394        0.120746        0.120746 
        1.32537        0.122598        0.119401        0.119401 
        1.33151        0.121254        0.118071        0.118071 
        1.33765         0.11985        0.116762        0.116762 
        1.34378        0.118443        0.115476        0.115476 
        1.34992        0.117493        0.114208        0.114208 
        1.35606        0.116029        0.112956        0.112956 
         1.3622        0.114809        0.111726        0.111726 
        1.36833        0.113775        0.110516        0.110516 
        1.37445        0.112621        0.109325        0.109325 
        1.38059        0.111303        0.108148        0.108148 
        1.38675        0.109929        0.106986        0.106986 
        1.39288        0.108621        0.105845        0.105845 
        1.39901        0.107842        0.104721        0.104721 
        1.40515        0.106561        0.103611        0.103611 
         1.4113        0.105618        0.102518        0.102518 
        1.41742        0.104567        0.101444        0.101444 
        1.42355        0.103095        0.100384        0.100384 
         1.4297        0.102416       0.0993361       0.0993361 
        1.43585        0.101159       0.0983033       0.0983033 
        1.44198        0.100275        0.097289        0.097289 
        1.44809       0.0991919        0.096291        0.096291 
        1.45423       0.0981518       0.0953034       0.0953034 
        1.46036       0.0971946       0.0943313       0.0943313 
        1.46649       0.0961585       0.0933724       0.0933724 
        1.47263       0.0949431       0.0924261       0.0924261 
        1.47877       0.0945415       0.0914932       0.0914932 
        1.48491        0.093202       0.0905718       0.0905718 
        1.49104       0.0926713        0.089665        0.089665 
        1.49718        0.091611       0.0887698       0.0887698 
        1.50333       0.0906988       0.0878855       0.0878855 
        1.50947       0.0898584       0.0870149       0.0870149 
         1.5156       0.0889281       0.0861574       0.0861574 
        1.52172        0.088103       0.0853115       0.0853115 
        1.52787       0.0870549       0.0844751       0.0844751 
          1.534       0.0864191        0.083651        0.083651 
        1.54013       0.0855014       0.0828387       0.0828387 
        1.54627       0.0848428       0.0820356       0.0820356 
        1.55241       0.0839675       0.0812431       0.0812431 
        1.55855       0.0831947       0.0804621       0.0804621 
        1.56467       0.0824295       0.0796936       0.0796936 
         1.5708       0.0815912       0.0789329       0.0789329 
        1.57695       0.0808607       0.0781809       0.0781809 
        1.58308       0.0798591       0.0774405       0.0774405 
        1.58922       0.0793589       0.0767091       0.0767091 
        1.59535        0.078538       0.0759874       0.0759874 
         1.6015       0.0779293        0.075274        0.075274 
        1.60764       0.0770838       0.0745701       0.0745701 
        1.61376       0.0764344       0.0738771       0.0738771 
        1.61989       0.0756786       0.0731923       0.0731923 
        1.62604       0.0750128       0.0725147       0.0725147 
        1.63218       0.0743996        0.071846        0.071846 
        1.63831       0.0737055       0.0711873       0.0711873 
        1.64444        0.073026       0.0705366       0.0705366 
        1.65059       0.0722048       0.0698924       0.0698924 
        1.65673       0.0717092        0.069257        0.069257 
        1.66285       0.0711494       0.0686312       0.0686312 
        1.66898       0.0703276       0.0680129       0.0680129 
        1.67512       0.0698061        0.067401        0.067401 
        1.68127       0.0691634       0.0667961       0.0667961 
         1.6874       0.0686144       0.0661999       0.0661999 
        1.69353       0.0679858       0.0656113       0.0656113 
        1.69967       0.0672647       0.0650285       0.0650285 
        1.70581       0.0669096        0.064453        0.064453 
        1.71193       0.0663274       0.0638866       0.0638866 
        1.71806       0.0656409       0.0633258       0.0633258 
        1.72421       0.0650371       0.0627707       0.0627707 
        1.73035       0.0645571       0.0622228       0.0622228 
        1.73649       0.0639767       0.0616815       0.0616815 
        1.74262        0.063416       0.0611471       0.0611471 
        1.74876       0.0629654       0.0606187       0.0606187 
        1.75489       0.0623333       0.0600975       0.0600975 
        1.76101       0.0618621       0.0595827       0.0595827 
        1.76715       0.0613891       0.0590732       0.0590732 
        1.77329         0.06077       0.0585689       0.0585689 
        1.77943       0.0602534       0.0580704       0.0580704 
        1.78557       0.0598745       0.0575783       0.0575783 
        1.79171       0.0593431       0.0570919       0.0570919 
        1.79785       0.0587435        0.056611        0.056611 
        1.80399       0.0582563       0.0561357       0.0561357 
        1.81012        0.057866       0.0556664       0.0556664 
        1.81625       0.0573967       0.0552027       0.0552027 
        1.82239       0.0570141       0.0547436       0.0547436 
        1.82853        0.056444       0.0542899       0.0542899 
        1.83466       0.0559834       0.0538418       0.0538418 
        1.84078       0.0556013       0.0533992       0.0533992 
        1.84692       0.0551533       0.0529608       0.0529608 
        1.85306       0.0547032       0.0525268       0.0525268 
         1.8592       0.0542783       0.0520984       0.0520984 
        1.86533       0.0538563       0.0516749       0.0516749 
        1.87147       0.0533983       0.0512557       0.0512557 
