# k  (h/Mpc)    Pcb(k)  (Mpc/h)^3    Pcb_linear(k) (Mpc/h)^3    Pcb_NL(k) (Mpc/h)^3   ShotnoiseSubtracted = false
     0.00783031         22513.5         22622.2         22622.2 
       0.013688         25511.2         26291.6         26291.6 
       0.019231         24895.6         25342.5         25342.5 
      0.0249154         22470.6         22367.1         22367.1 
      0.0312784           18347         18526.1         18526.1 
      0.0375637         15041.4         15302.4         15302.4 
      0.0433917           13093         13142.4         13142.4 
      0.0492413         11570.9         11694.5         11694.5 
      0.0555754         10616.9         10656.8         10656.8 
      0.0619321         9484.91         9838.53         9838.53 
       0.067871         8867.61         9053.07         9053.07 
      0.0738098         8119.34         8163.83         8163.83 
      0.0800417         7179.97         7160.29         7160.29 
      0.0862327         6241.92         6205.28         6205.28 
      0.0921407         5560.94         5433.65         5433.65 
      0.0982031         5056.78         4835.01         4835.01 
       0.104506         4544.34         4412.44         4412.44 
       0.110769         4284.93         4139.33         4139.33 
       0.116806         4125.65         3943.12         3943.12 
       0.122832         3892.02         3749.01         3749.01 
       0.129052         3627.78         3510.02         3510.02 
       0.135211         3469.42         3229.14         3229.14 
       0.141259         3145.24         2933.57         2933.57 
       0.147318         2880.68         2651.86         2651.86 
       0.153489         2682.52         2408.75         2408.75 
       0.159709         2575.84          2222.1          2222.1 
       0.165845         2374.75          2091.5          2091.5 
       0.171974         2319.52         1998.08         1998.08 
       0.178125         2253.69          1920.4          1920.4 
       0.184229         2075.78         1840.77         1840.77 
        0.19034         2038.82         1748.08         1748.08 
       0.196428         1966.79         1642.26         1642.26 
       0.202534         1835.91         1529.92         1529.92 
       0.208729         1788.94         1420.31         1420.31 
       0.214876         1694.36         1324.98         1324.98 
       0.220989         1614.98         1247.85         1247.85 
       0.227147         1567.53         1187.28         1187.28 
        0.23329         1506.62         1139.37         1139.37 
       0.239377         1499.95         1097.96         1097.96 
       0.245482         1428.76          1056.8          1056.8 
       0.251667         1376.13         1012.02         1012.02 
       0.257832         1347.59         963.652         963.652 
       0.263955          1284.8         913.883         913.883 
       0.270079         1247.49         865.429         865.429 
        0.27624         1195.46         820.845         820.845 
       0.282372         1180.66         782.295         782.295 
        0.28843         1153.79         749.939         749.939 
       0.294538         1103.35          721.97          721.97 
       0.300721         1083.21         696.519         696.519 
        0.30691          1052.5         672.075         672.075 
       0.313033         1013.13         647.625         647.625 
       0.319153         1002.53         622.552         622.552 
       0.325316         987.622         597.017         597.017 
        0.33145          962.61          572.17          572.17 
       0.337538         930.916         548.886         548.886 
       0.343633         909.682         527.584         527.584 
       0.349808         892.564         508.149         508.149 
       0.355968         873.681         490.699         490.699 
       0.362074         845.916         474.756         474.756 
       0.368217         841.631         459.514         459.514 
       0.374374         828.725         444.598         444.598 
       0.380519         799.286         429.817         429.817 
       0.386598         793.848         415.363         415.363 
       0.392688         772.738         401.209         401.209 
        0.39888         758.761         387.397         387.397 
       0.405048         740.721         374.449         374.449 
       0.411186         740.138         362.426         362.426 
       0.417313         730.998         351.238         351.238 
       0.423458         712.024         340.723         340.723 
       0.429607          692.78         330.706         330.706 
       0.435692         684.897         321.132         321.132 
       0.441815         671.992         311.759         311.759 
       0.447964         663.071          302.57          302.57 
       0.454126         654.412         293.598         293.598 
       0.460267         646.363         284.966         284.966 
       0.466387         632.053         276.739         276.739 
        0.47254         625.804         268.859         268.859 
       0.478662         614.111           261.4           261.4 
       0.484765         605.915         254.325         254.325 
       0.490885         601.799         247.544         247.544 
       0.497035         587.818          240.98          240.98 
       0.503198         586.732         234.607         234.607 
       0.509342         575.577         228.441         228.441 
       0.515458         564.688         222.492         222.492 
       0.521598         563.327         216.713         216.713 
       0.527764         550.243         211.108         211.108 
       0.533884         543.037         205.748         205.748 
           0.54         539.964         200.599         200.599 
       0.546137          531.35         195.639         195.639 
       0.552299         527.384         190.847         190.847 
       0.558452         520.089          186.23          186.23 
       0.564573         518.424         181.783         181.783 
       0.570708         510.565         177.459         177.459 
       0.576825         501.328         173.279         173.279 
       0.582926          499.79         169.239         169.239 
       0.589034         491.568         165.323         165.323 
       0.595184         486.991         161.508         161.508 
       0.601379         479.305         157.791         157.791 
       0.607522         471.856         154.223         154.223 
       0.613639         470.748         150.784         150.784 
       0.619772         467.026         147.443         147.443 
       0.625918         459.309           144.2           144.2 
       0.632068         457.948         141.055         141.055 
       0.638161         451.487         138.031         138.031 
         0.6443         445.962         135.075         135.075 
       0.650464         442.436         132.193         132.193 
       0.656582           438.1         129.414         129.414 
       0.662703         434.702         126.714         126.714 
       0.668861         428.448         124.076         124.076 
       0.675024         426.986         121.511         121.511 
       0.681124         417.376         119.045         119.045 
       0.687237         417.505         116.643         116.643 
       0.693381         411.368         114.298         114.298 
       0.699536          411.62         112.014         112.014 
       0.705665         404.699         109.803         109.803 
       0.711789         403.302         107.654         107.654 
       0.717957         398.853         105.549         105.549 
        0.72409         394.708         103.511         103.511 
       0.730186         394.518         101.539         101.539 
       0.736317         388.334         99.6086         99.6086 
       0.742472         384.902         97.7209         97.7209 
       0.748622         384.141         95.8838         95.8838 
        0.75476         377.959         94.0981         94.0981 
       0.760888         376.956         92.3605         92.3605 
       0.767043         373.453         90.6602         90.6602 
       0.773185         370.025         89.0062         89.0062 
       0.779291         366.932         87.4031         87.4031 
       0.785407         364.102         85.8373         85.8373 
       0.791564         362.531         84.3002         84.3002 
       0.797719         356.895         82.8016         82.8016 
       0.803834         356.717          81.349          81.349 
       0.809972         351.296         79.9263         79.9263 
       0.816124         349.206         78.5346         78.5346 
       0.822261         346.732         77.1799         77.1799 
       0.828378         344.935         75.8613         75.8613 
       0.834502         339.966         74.5725         74.5725 
       0.840667         338.611         73.3054         73.3054 
       0.846816         335.393         72.0714         72.0714 
       0.852925         335.725         70.8737         70.8737 
       0.859047         330.719         69.7008         69.7008 
       0.865192         329.292         68.5507         68.5507 
       0.871341         325.896         67.4259         67.4259 
       0.877463         324.616         66.3315         66.3315 
       0.883569         322.534         65.2642         65.2642 
       0.889708          318.89          64.215          64.215 
       0.895864         315.199         63.1863         63.1863 
       0.902008         314.345         62.1823         62.1823 
       0.908149         310.875         61.2008         61.2008 
       0.914301         310.182         60.2389         60.2389 
       0.920448         306.148         59.2987         59.2987 
       0.926574         304.463         58.3818         58.3818 
       0.932687         303.544         57.4864         57.4864 
       0.938823         300.599         56.6065         56.6065 
       0.944975         300.166         55.7431         55.7431 
       0.951105         297.372         54.9008         54.9008 
       0.957225         293.969         54.0774         54.0774 
       0.963368         293.955          53.268          53.268 
       0.969511         290.154         52.4753         52.4753 
       0.975621         287.435         51.7029         51.7029 
       0.981748         286.873         50.9441         50.9441 
       0.987916         284.987         50.1958         50.1958 
        0.99406         281.906         49.4654         49.4654 
        1.00019         279.386         48.7509         48.7509 
        1.00632         278.769         48.0512         48.0512 
        1.01246         276.687         47.3643         47.3643 
        1.01859          274.47         46.6919         46.6919 
        1.02471         272.651         46.0334         46.0334 
        1.03085         271.392         45.3853         45.3853 
        1.03698         269.346         44.7511         44.7511 
        1.04314         267.988         44.1263         44.1263 
        1.04929         266.302         43.5149         43.5149 
        1.05541         264.945         42.9176         42.9176 
        1.06154          261.92           42.33           42.33 
        1.06769         260.488         41.7525         41.7525 
        1.07382         258.093         41.1877         41.1877 
        1.07993         257.833         40.6346         40.6346 
        1.08607         255.959         40.0895         40.0895 
        1.09222         253.754         39.5538         39.5538 
        1.09836         252.219         39.0285         39.0285 
        1.10449         250.904         38.5134         38.5134 
        1.11063          249.58          38.007          38.007 
        1.11677         246.952         37.5099         37.5099 
         1.1229         246.501         37.0226         37.0226 
        1.12903         243.931         36.5435         36.5435 
        1.13518         242.428         36.0725         36.0725 
        1.14131         240.978         35.6101         35.6101 
        1.14745         239.243          35.156          35.156 
        1.15359         237.581         34.7098         34.7098 
        1.15973         236.499         34.2712         34.2712 
        1.16584         235.181         33.8421         33.8421 
        1.17197         233.727         33.4197         33.4197 
        1.17811         231.041         33.0032         33.0032 
        1.18424         230.135         32.5951         32.5951 
        1.19038         229.242         32.1927         32.1927 
        1.19652         226.797         31.7972         31.7972 
        1.20267         225.818         31.4084         31.4084 
        1.20881         224.628         31.0261         31.0261 
        1.21495          222.89         30.6509         30.6509 
        1.22108         221.772         30.2819         30.2819 
         1.2272         219.887         29.9198         29.9198 
        1.23334         218.214         29.5628         29.5628 
        1.23949         217.488         29.2108         29.2108 
        1.24562         215.671         28.8655         28.8655 
        1.25174         215.236         28.5263         28.5263 
        1.25789         213.089         28.1914         28.1914 
        1.26402         212.186         27.8626         27.8626 
        1.27014         210.875         27.5398         27.5398 
        1.27628         209.713         27.2211         27.2211 
        1.28244         207.611         26.9068         26.9068 
        1.28858         207.013         26.5979         26.5979 
        1.29471         205.467         26.2946         26.2946 
        1.30084          205.06         25.9963         25.9963 
        1.30697         203.109         25.7021         25.7021 
        1.31312         202.374         25.4121         25.4121 
        1.31925         201.026         25.1274         25.1274 
        1.32537         200.323         24.8474         24.8474 
        1.33151          198.05         24.5707         24.5707 
        1.33765         197.496         24.2983         24.2983 
        1.34378           196.4         24.0306         24.0306 
        1.34992          194.63         23.7668         23.7668 
        1.35606         193.664         23.5063         23.5063 
         1.3622          191.92         23.2502         23.2502 
        1.36833         191.904         22.9985         22.9985 
        1.37445         190.822         22.7507         22.7507 
        1.38059         188.605         22.5057         22.5057 
        1.38675         187.152         22.2638         22.2638 
        1.39288         186.859         22.0264         22.0264 
        1.39901         185.466         21.7926         21.7926 
        1.40515         184.253         21.5616         21.5616 
         1.4113         183.464          21.334          21.334 
        1.41742         182.154         21.1106         21.1106 
        1.42355         180.635           20.89           20.89 
         1.4297          179.84         20.6719         20.6719 
        1.43585         179.046          20.457          20.457 
        1.44198         177.758         20.2459         20.2459 
        1.44809          177.12         20.0382         20.0382 
        1.45423         175.912         19.8327         19.8327 
        1.46036         175.302         19.6304         19.6304 
        1.46649         173.722         19.4308         19.4308 
        1.47263         172.892         19.2339         19.2339 
        1.47877         171.673         19.0398         19.0398 
        1.48491         170.714          18.848          18.848 
        1.49104         169.205         18.6593         18.6593 
        1.49718         168.336         18.4731         18.4731 
        1.50333         167.401          18.289          18.289 
        1.50947         166.313         18.1079         18.1079 
         1.5156         165.437         17.9294         17.9294 
        1.52172         164.486         17.7534         17.7534 
        1.52787          163.56         17.5793         17.5793 
          1.534         162.966         17.4078         17.4078 
        1.54013         161.838         17.2388         17.2388 
        1.54627         160.841         17.0717         17.0717 
        1.55241         160.094         16.9067         16.9067 
        1.55855         158.948         16.7442         16.7442 
        1.56467         157.936         16.5843         16.5843 
         1.5708         157.261          16.426          16.426 
        1.57695         156.402         16.2695         16.2695 
        1.58308         155.343         16.1154         16.1154 
        1.58922          154.14         15.9632         15.9632 
        1.59535         153.299          15.813          15.813 
         1.6015         152.499         15.6646         15.6646 
        1.60764         151.507         15.5181         15.5181 
        1.61376         150.743         15.3739         15.3739 
        1.61989         149.759         15.2314         15.2314 
        1.62604         149.372         15.0903         15.0903 
        1.63218         147.974         14.9512         14.9512 
        1.63831          147.33         14.8141         14.8141 
        1.64444         146.448         14.6787         14.6787 
        1.65059         145.484         14.5446         14.5446 
        1.65673         144.539         14.4124         14.4124 
        1.66285          143.87         14.2822         14.2822 
        1.66898         143.046         14.1535         14.1535 
        1.67512         141.978         14.0262         14.0262 
        1.68127         141.293         13.9003         13.9003 
         1.6874         140.464         13.7762         13.7762 
        1.69353         139.862         13.6537         13.6537 
        1.69967         138.931         13.5325         13.5325 
        1.70581         138.097         13.4127         13.4127 
        1.71193         137.488         13.2948         13.2948 
        1.71806         136.549         13.1781         13.1781 
        1.72421         135.649         13.0626         13.0626 
        1.73035         135.109         12.9486         12.9486 
        1.73649         134.174         12.8359         12.8359 
        1.74262         133.276         12.7247         12.7247 
        1.74876         132.435         12.6148         12.6148 
        1.75489         132.025         12.5063         12.5063 
        1.76101         131.132         12.3992         12.3992 
        1.76715         130.451         12.2931         12.2931 
        1.77329         129.776         12.1882         12.1882 
        1.77943         128.694         12.0845         12.0845 
        1.78557         127.828         11.9821         11.9821 
        1.79171         127.131         11.8808         11.8808 
        1.79785         126.368         11.7808         11.7808 
        1.80399          125.75         11.6818         11.6818 
        1.81012         125.377         11.5842         11.5842 
        1.81625         124.218         11.4877         11.4877 
        1.82239         123.934         11.3922         11.3922 
        1.82853         122.956         11.2977         11.2977 
        1.83466         122.204         11.2045         11.2045 
        1.84078         121.652         11.1124         11.1124 
        1.84692         120.834         11.0212         11.0212 
        1.85306          120.16         10.9308         10.9308 
         1.8592         119.455         10.8417         10.8417 
        1.86533         118.627         10.7536         10.7536 
        1.87147         117.926         10.6663         10.6663 
