# k  (h/Mpc)    Pcb(k)  (Mpc/h)^3    Pcb_linear(k) (Mpc/h)^3    Pcb_NL(k) (Mpc/h)^3   ShotnoiseSubtracted = false
     0.00783031         15007.7         15089.1         15089.1 
       0.013688         17112.6         17548.8         17548.8 
       0.019231         16683.3         16918.7         16918.7 
      0.0249154         15005.5         14933.7         14933.7 
      0.0312784         12295.8         12369.9         12369.9 
      0.0375637         10091.6         10217.8         10217.8 
      0.0433917         8768.74         8775.65         8775.65 
      0.0492413         7753.86         7808.91         7808.91 
      0.0555754         7116.91          7116.1          7116.1 
      0.0619321         6386.36         6569.74         6569.74 
       0.067871         5964.96         6045.27         6045.27 
      0.0738098         5437.26         5451.51         5451.51 
      0.0800417         4805.65         4781.39         4781.39 
      0.0862327         4167.44         4143.68         4143.68 
      0.0921407         3691.27         3628.43         3628.43 
      0.0982031          3342.8         3228.68         3228.68 
       0.104506         3004.92          2946.5          2946.5 
       0.110769         2830.85         2764.13         2764.13 
       0.116806         2729.83         2633.11         2633.11 
       0.122832         2568.44         2503.49         2503.49 
       0.129052         2405.38          2343.9          2343.9 
       0.135211         2279.44         2156.34         2156.34 
       0.141259         2063.91         1958.96         1958.96 
       0.147318          1874.5         1770.85         1770.85 
       0.153489         1737.36         1608.51         1608.51 
       0.159709         1655.13         1483.87         1483.87 
       0.165845         1522.55         1396.66         1396.66 
       0.171974         1493.35         1334.27         1334.27 
       0.178125         1443.58          1282.4          1282.4 
       0.184229         1338.46         1229.23         1229.23 
        0.19034         1305.33         1167.33         1167.33 
       0.196428          1252.8         1096.67         1096.67 
       0.202534         1157.44         1021.65         1021.65 
       0.208729          1126.1         948.453         948.453 
       0.214876         1066.13         884.792         884.792 
       0.220989         1002.77         833.285         833.285 
       0.227147         976.329         792.843         792.843 
        0.23329         938.904         760.851         760.851 
       0.239377         929.525         733.194         733.194 
       0.245482          882.18         705.711         705.711 
       0.251667         847.554         675.803         675.803 
       0.257832          831.77         643.507         643.507 
       0.263955         786.457         610.272         610.272 
       0.270079         757.355         577.916         577.916 
        0.27624         724.055         548.144         548.144 
       0.282372         709.566         522.401         522.401 
        0.28843         699.692         500.794         500.794 
       0.294538         664.116         482.117         482.117 
       0.300721         647.557         465.122         465.122 
        0.30691         633.521         448.798         448.798 
       0.313033         604.818         432.471         432.471 
       0.319153         595.494         415.728         415.728 
       0.325316         585.248         398.676         398.676 
        0.33145         570.063         382.084         382.084 
       0.337538         548.608         366.535         366.535 
       0.343633         533.294          352.31          352.31 
       0.349808         520.421         339.332         339.332 
       0.355968         510.098         327.679         327.679 
       0.362074         491.146         317.033         317.033 
       0.368217         488.395         306.854         306.854 
       0.374374         479.713         296.894         296.894 
       0.380519         460.056         287.023         287.023 
       0.386598         455.038         277.371         277.371 
       0.392688         443.097          267.92          267.92 
        0.39888         431.864         258.696         258.696 
       0.405048         422.156          250.05          250.05 
       0.411186         421.147         242.021         242.021 
       0.417313         414.975          234.55          234.55 
       0.423458         403.546         227.528         227.528 
       0.429607         391.232         220.839         220.839 
       0.435692         385.466         214.446         214.446 
       0.441815         378.583         208.187         208.187 
       0.447964         369.975          202.05          202.05 
       0.454126          365.74         196.059         196.059 
       0.460267          359.45         190.295         190.295 
       0.466387         351.836         184.801         184.801 
        0.47254         347.185         179.539         179.539 
       0.478662         339.543         174.558         174.558 
       0.484765         334.621         169.833         169.833 
       0.490885         331.271         165.305         165.305 
       0.497035         323.855         160.922         160.922 
       0.503198         322.909         156.666         156.666 
       0.509342         315.532         152.548         152.548 
       0.515458         309.593         148.576         148.576 
       0.521598         304.928         144.717         144.717 
       0.527764         300.363         140.974         140.974 
       0.533884         297.813         137.395         137.395 
           0.54         293.537         133.956         133.956 
       0.546137         287.032         130.644         130.644 
       0.552299         285.651         127.444         127.444 
       0.558452         280.659         124.361         124.361 
       0.564573         278.682         121.391         121.391 
       0.570708         273.597         118.504         118.504 
       0.576825         268.716         115.712         115.712 
       0.582926         267.148         113.015         113.015 
       0.589034         262.215         110.399         110.399 
       0.595184         260.348         107.852         107.852 
       0.601379         256.139          105.37          105.37 
       0.607522         250.409         102.987         102.987 
       0.613639         249.466          100.69          100.69 
       0.619772         248.294           98.46           98.46 
       0.625918         243.463         96.2943         96.2943 
       0.632068         240.874         94.1936         94.1936 
       0.638161         239.057         92.1747         92.1747 
         0.6443         235.605         90.2002         90.2002 
       0.650464         232.367         88.2757         88.2757 
       0.656582         229.964         86.4204         86.4204 
       0.662703         228.644         84.6174         84.6174 
       0.668861         223.913         82.8554         82.8554 
       0.675024         223.152         81.1425         81.1425 
       0.681124         219.942         79.4957         79.4957 
       0.687237         218.466         77.8922         77.8922 
       0.693381         214.734         76.3261         76.3261 
       0.699536         213.907          74.801          74.801 
       0.705665         211.262         73.3245         73.3245 
       0.711789         208.593         71.8896         71.8896 
       0.717957          206.98         70.4834         70.4834 
        0.72409         203.986         69.1227         69.1227 
       0.730186         205.052         67.8062         67.8062 
       0.736317          201.56         66.5168         66.5168 
       0.742472         199.263         65.2562         65.2562 
       0.748622         196.837         64.0294         64.0294 
        0.75476         196.722         62.8369         62.8369 
       0.760888         194.035         61.6766         61.6766 
       0.767043         191.173         60.5411         60.5411 
       0.773185         189.575         59.4367         59.4367 
       0.779291         187.716         58.3662         58.3662 
       0.785407          186.44         57.3205         57.3205 
       0.791564         184.932         56.2941         56.2941 
       0.797719         181.785         55.2933         55.2933 
       0.803834         182.549         54.3234         54.3234 
       0.809972         180.021         53.3733         53.3733 
       0.816124         177.123         52.4439         52.4439 
       0.822261         176.094         51.5393         51.5393 
       0.828378         175.425         50.6588         50.6588 
       0.834502         173.278         49.7981         49.7981 
       0.840667         173.139          48.952          48.952 
       0.846816         169.738          48.128          48.128 
       0.852925         169.471         47.3282         47.3282 
       0.859047         167.718         46.5449         46.5449 
       0.865192          167.07         45.7769         45.7769 
       0.871341         165.127         45.0258         45.0258 
       0.877463         163.656         44.2949         44.2949 
       0.883569           163.3         43.5822         43.5822 
       0.889708         161.703         42.8816         42.8816 
       0.895864         159.797         42.1946         42.1946 
       0.902008         158.365         41.5242         41.5242 
       0.908149          156.97         40.8687         40.8687 
       0.914301         155.828         40.2264         40.2264 
       0.920448         155.625         39.5985         39.5985 
       0.926574         153.482         38.9863         38.9863 
       0.932687         153.195         38.3883         38.3883 
       0.938823         151.741         37.8008         37.8008 
       0.944975         151.075         37.2242         37.2242 
       0.951105           149.3         36.6617         36.6617 
       0.957225         148.284         36.1119         36.1119 
       0.963368         147.684         35.5714         35.5714 
       0.969511         145.703          35.042          35.042 
       0.975621         144.051         34.5262         34.5262 
       0.981748         143.771         34.0195         34.0195 
       0.987916         142.992         33.5198         33.5198 
        0.99406         141.774          33.032          33.032 
        1.00019         141.009         32.5549         32.5549 
        1.00632         139.894         32.0877         32.0877 
        1.01246         138.831          31.629          31.629 
        1.01859         137.635           31.18           31.18 
        1.02471         136.627         30.7402         30.7402 
        1.03085         135.675         30.3075         30.3075 
        1.03698         134.869         29.8839         29.8839 
        1.04314         134.418         29.4667         29.4667 
        1.04929          133.46         29.0585         29.0585 
        1.05541         132.733         28.6596         28.6596 
        1.06154          131.22         28.2672         28.2672 
        1.06769         130.628         27.8815         27.8815 
        1.07382         129.783         27.5044         27.5044 
        1.07993         128.656         27.1351         27.1351 
        1.08607         128.393          26.771          26.771 
        1.09222         126.976         26.4133         26.4133 
        1.09836         126.352         26.0625         26.0625 
        1.10449         125.569         25.7185         25.7185 
        1.11063         124.372         25.3804         25.3804 
        1.11677         123.892         25.0484         25.0484 
         1.1229         122.935          24.723          24.723 
        1.12903         121.913         24.4031         24.4031 
        1.13518         121.084         24.0886         24.0886 
        1.14131         120.723         23.7798         23.7798 
        1.14745          119.57         23.4766         23.4766 
        1.15359         118.782         23.1786         23.1786 
        1.15973         118.328         22.8856         22.8856 
        1.16584         117.439         22.5991         22.5991 
        1.17197         116.939          22.317          22.317 
        1.17811         115.891         22.0389         22.0389 
        1.18424         115.165         21.7664         21.7664 
        1.19038         114.569         21.4977         21.4977 
        1.19652         113.704         21.2336         21.2336 
        1.20267         112.932         20.9739         20.9739 
        1.20881         112.088         20.7187         20.7187 
        1.21495         111.878         20.4681         20.4681 
        1.22108         110.919         20.2217         20.2217 
         1.2272         110.393         19.9799         19.9799 
        1.23334         109.704         19.7415         19.7415 
        1.23949         109.107         19.5064         19.5064 
        1.24562         108.178         19.2758         19.2758 
        1.25174         108.042         19.0493         19.0493 
        1.25789         106.955         18.8257         18.8257 
        1.26402         106.563         18.6061         18.6061 
        1.27014         105.699         18.3905         18.3905 
        1.27628         105.259         18.1777         18.1777 
        1.28244         104.644         17.9679         17.9679 
        1.28858         103.952         17.7616         17.7616 
        1.29471         103.243         17.5591         17.5591 
        1.30084         102.483         17.3598         17.3598 
        1.30697         101.887         17.1634         17.1634 
        1.31312         101.351         16.9697         16.9697 
        1.31925         100.485         16.7796         16.7796 
        1.32537         100.054         16.5926         16.5926 
        1.33151         99.7789         16.4078         16.4078 
        1.33765         98.9271          16.226          16.226 
        1.34378         98.6665         16.0472         16.0472 
        1.34992         97.9545          15.871          15.871 
        1.35606         97.4752         15.6971         15.6971 
         1.3622         97.0467          15.526          15.526 
        1.36833         96.1447          15.358          15.358 
        1.37445         95.8942         15.1925         15.1925 
        1.38059         95.2063         15.0289         15.0289 
        1.38675         94.6137         14.8674         14.8674 
        1.39288         93.9877         14.7088         14.7088 
        1.39901         93.5165         14.5527         14.5527 
        1.40515         93.0199         14.3984         14.3984 
         1.4113         92.4224         14.2465         14.2465 
        1.41742          92.124         14.0973         14.0973 
        1.42355         91.6416           13.95           13.95 
         1.4297         90.9717         13.8043         13.8043 
        1.43585         90.5199         13.6608         13.6608 
        1.44198         89.7418         13.5198         13.5198 
        1.44809          89.323         13.3812         13.3812 
        1.45423         89.1759         13.2439         13.2439 
        1.46036         88.3006         13.1088         13.1088 
        1.46649         87.8829         12.9756         12.9756 
        1.47263         87.2192         12.8441         12.8441 
        1.47877         86.9145         12.7144         12.7144 
        1.48491         86.4401         12.5864         12.5864 
        1.49104         85.7073         12.4604         12.4604 
        1.49718         85.3387          12.336          12.336 
        1.50333         84.9158         12.2131         12.2131 
        1.50947         84.6288         12.0921         12.0921 
         1.5156         84.0835         11.9729         11.9729 
        1.52172         83.3568         11.8554         11.8554 
        1.52787         83.1789         11.7391         11.7391 
          1.534         82.6616         11.6246         11.6246 
        1.54013         82.1731         11.5117         11.5117 
        1.54627         81.6287         11.4001         11.4001 
        1.55241         81.4919           11.29           11.29 
        1.55855         80.6796         11.1815         11.1815 
        1.56467         80.2881         11.0747         11.0747 
         1.5708         79.5649          10.969          10.969 
        1.57695          79.476         10.8645         10.8645 
        1.58308         79.0005         10.7616         10.7616 
        1.58922         78.7512         10.6599         10.6599 
        1.59535         78.4807         10.5596         10.5596 
         1.6015         77.6873         10.4605         10.4605 
        1.60764         77.3061         10.3627         10.3627 
        1.61376         77.1032         10.2664         10.2664 
        1.61989         76.5768         10.1712         10.1712 
        1.62604          76.173          10.077          10.077 
        1.63218         75.6873         9.98413         9.98413 
        1.63831           75.29         9.89259         9.89259 
        1.64444         74.8261         9.80216         9.80216 
        1.65059         74.4505         9.71264         9.71264 
        1.65673            74.3         9.62434         9.62434 
        1.66285         73.8146         9.53738         9.53738 
        1.66898         73.2022         9.45145         9.45145 
        1.67512         72.7495         9.36642         9.36642 
        1.68127         72.5405         9.28236         9.28236 
         1.6874         72.0604         9.19951         9.19951 
        1.69353          71.693         9.11772         9.11772 
        1.69967         71.2456         9.03673         9.03673 
        1.70581         70.9812         8.95675         8.95675 
        1.71193         70.5023         8.87804         8.87804 
        1.71806         70.2086         8.80011         8.80011 
        1.72421         69.7518         8.72296         8.72296 
        1.73035         69.3477         8.64682         8.64682 
        1.73649          68.993         8.57161         8.57161 
        1.74262         68.7109         8.49734         8.49734 
        1.74876         68.2009         8.42391         8.42391 
        1.75489         67.9701         8.35149         8.35149 
        1.76101         67.7242         8.27994         8.27994 
        1.76715         67.2172         8.20913         8.20913 
        1.77329         66.8115         8.13907         8.13907 
        1.77943         66.6091         8.06978         8.06978 
        1.78557         66.2832         8.00141         8.00141 
        1.79171         65.7425         7.93381         7.93381 
        1.79785         65.4321         7.86697         7.86697 
        1.80399         65.2749         7.80092         7.80092 
        1.81012          64.689         7.73571         7.73571 
        1.81625         64.4244         7.67128         7.67128 
        1.82239         63.9642         7.60748         7.60748 
        1.82853         63.7937         7.54443         7.54443 
        1.83466         63.3172         7.48216         7.48216 
        1.84078         63.0646         7.42065         7.42065 
        1.84692         62.8745         7.35973         7.35973 
        1.85306          62.621         7.29942         7.29942 
         1.8592         62.2036         7.23988         7.23988 
        1.86533         61.7982         7.18103         7.18103 
        1.87147          61.482         7.12277         7.12277 
