# k  (h/Mpc)    Pcb(k)  (Mpc/h)^3    Pcb_linear(k) (Mpc/h)^3    Pcb_NL(k) (Mpc/h)^3   ShotnoiseSubtracted = false
     0.00783031         1947.26         1961.99         1961.99 
       0.013688         2257.06         2284.91         2284.91 
       0.019231         2192.31         2203.81         2203.81 
      0.0249154         1950.19         1945.66         1945.66 
      0.0312784         1612.51         1611.84         1611.84 
      0.0375637         1328.96         1331.51         1331.51 
      0.0433917         1147.06         1143.64         1143.64 
      0.0492413         1017.39         1017.68         1017.68 
      0.0555754         930.681         927.418         927.418 
      0.0619321         848.891         856.229         856.229 
       0.067871         786.594         787.887         787.887 
      0.0738098         710.917         710.508         710.508 
      0.0800417         625.793         623.176         623.176 
      0.0862327         541.522         540.065         540.065 
      0.0921407         474.437         472.912         472.912 
      0.0982031         424.736         420.812         420.812 
       0.104506         384.317         384.037         384.037 
       0.110769         360.972         360.268         360.268 
       0.116806         346.082         343.192         343.192 
       0.122832         326.805         326.299         326.299 
       0.129052         307.203         305.499         305.499 
       0.135211         284.366         281.053         281.053 
       0.141259         257.535         255.328         255.328 
       0.147318         232.005          230.81          230.81 
       0.153489         212.013         209.651         209.651 
       0.159709         196.916         193.406         193.406 
       0.165845          183.12         182.039         182.039 
       0.171974         177.573         173.908         173.908 
       0.178125         170.284         167.147         167.147 
       0.184229         161.921         160.217         160.217 
        0.19034         155.182         152.149         152.149 
       0.196428         146.048         142.939         142.939 
       0.202534          134.63         133.161         133.161 
       0.208729             127         123.621         123.621 
       0.214876         119.572         115.324         115.324 
       0.220989         111.181          108.61          108.61 
       0.227147         107.394         103.339         103.339 
        0.23329         103.198         99.1692         99.1692 
       0.239377         99.8583         95.5645         95.5645 
       0.245482         95.6174         91.9824         91.9824 
       0.251667         91.0992         88.0842         88.0842 
       0.257832         88.1226         83.8748         83.8748 
       0.263955         82.8654          79.543          79.543 
       0.270079         78.6474         75.3257         75.3257 
        0.27624         74.4857         71.4452         71.4452 
       0.282372         71.3451         68.0898         68.0898 
        0.28843         69.5243         65.2736         65.2736 
       0.294538         66.6398         62.8393         62.8393 
       0.300721         63.8057         60.6241         60.6241 
        0.30691         62.2795         58.4965         58.4965 
       0.313033         59.7547         56.3684         56.3684 
       0.319153         58.2581         54.1862         54.1862 
       0.325316         55.3111         51.9636         51.9636 
        0.33145         53.0912          49.801          49.801 
       0.337538         51.1606         47.7744         47.7744 
       0.343633         49.4577         45.9203         45.9203 
       0.349808          47.607         44.2287         44.2287 
       0.355968         45.9877         42.7099         42.7099 
       0.362074         44.9649         41.3222         41.3222 
       0.368217         43.5302         39.9956         39.9956 
       0.374374         42.4369         38.6973         38.6973 
       0.380519         40.6383         37.4108         37.4108 
       0.386598         39.2858         36.1527         36.1527 
       0.392688         37.9213         34.9208         34.9208 
        0.39888         37.0289         33.7186         33.7186 
       0.405048         35.9721         32.5916         32.5916 
       0.411186         34.8389         31.5452         31.5452 
       0.417313         33.7758         30.5714         30.5714 
       0.423458          32.714         29.6561         29.6561 
       0.429607         32.0733         28.7843         28.7843 
       0.435692         31.4003          27.951          27.951 
       0.441815         30.1914         27.1352         27.1352 
       0.447964         29.1365         26.3353         26.3353 
       0.454126         28.5894         25.5545         25.5545 
       0.460267         28.1178         24.8032         24.8032 
       0.466387         27.2449          24.087          24.087 
        0.47254         26.7178         23.4012         23.4012 
       0.478662         25.8265          22.752          22.752 
       0.484765         25.2055         22.1362         22.1362 
       0.490885         24.4369          21.546          21.546 
       0.497035         23.9136         20.9747         20.9747 
       0.503198         23.4005           20.42           20.42 
       0.509342         22.6749         19.8833         19.8833 
       0.515458         22.2916         19.3655         19.3655 
       0.521598         21.7453         18.8625         18.8625 
       0.527764         21.3678         18.3746         18.3746 
       0.533884         20.7598         17.9081         17.9081 
           0.54         20.3256           17.46           17.46 
       0.546137          19.678         17.0282         17.0282 
       0.552299         19.3048         16.6111         16.6111 
       0.558452         18.8387         16.2093         16.2093 
       0.564573         18.5554         15.8222         15.8222 
       0.570708         18.0838         15.4459         15.4459 
       0.576825         17.7714          15.082          15.082 
       0.582926         17.3848         14.7304         14.7304 
       0.589034         17.0097         14.3896         14.3896 
       0.595184         16.7556         14.0575         14.0575 
       0.601379         16.2746         13.7339         13.7339 
       0.607522         15.9592         13.4234         13.4234 
       0.613639         15.6383         13.1241         13.1241 
       0.619772         15.3428         12.8334         12.8334 
       0.625918         15.0047         12.5511         12.5511 
       0.632068         14.8219         12.2773         12.2773 
       0.638161         14.4791         12.0141         12.0141 
         0.6443         14.2077         11.7568         11.7568 
       0.650464          13.842         11.5059         11.5059 
       0.656582         13.7065         11.2641         11.2641 
       0.662703          13.488         11.0291         11.0291 
       0.668861         13.1119         10.7994         10.7994 
       0.675024         12.8873         10.5762         10.5762 
       0.681124         12.8213         10.3615         10.3615 
       0.687237         12.5197         10.1525         10.1525 
       0.693381         12.2069         9.94841         9.94841 
       0.699536         12.1075         9.74962         9.74962 
       0.705665         11.8482         9.55718         9.55718 
       0.711789         11.6081         9.37015         9.37015 
       0.717957         11.3449         9.18687         9.18687 
        0.72409         11.2295         9.00951         9.00951 
       0.730186         11.1361         8.83791         8.83791 
       0.736317          10.864         8.66985         8.66985 
       0.742472         10.7212         8.50554         8.50554 
       0.748622         10.5238         8.34565         8.34565 
        0.75476         10.2381         8.19022         8.19022 
       0.760888          10.169         8.03899         8.03899 
       0.767043         9.95313         7.89099         7.89099 
       0.773185         9.81273         7.74703         7.74703 
       0.779291         9.72657          7.6075          7.6075 
       0.785407         9.53317         7.47121         7.47121 
       0.791564         9.40716         7.33742         7.33742 
       0.797719         9.19652         7.20698         7.20698 
       0.803834         9.13038         7.08056         7.08056 
       0.809972         8.93818         6.95672         6.95672 
       0.816124         8.81667         6.83559         6.83559 
       0.822261         8.69705         6.71768         6.71768 
       0.828378         8.57243         6.60291         6.60291 
       0.834502         8.45399         6.49073         6.49073 
       0.840667         8.35358         6.38045         6.38045 
       0.846816         8.16088         6.27304         6.27304 
       0.852925         8.09468          6.1688          6.1688 
       0.859047         7.96783         6.06671         6.06671 
       0.865192         7.84332          5.9666          5.9666 
       0.871341         7.72867          5.8687          5.8687 
       0.877463         7.61553         5.77344         5.77344 
       0.883569         7.54323         5.68055         5.68055 
       0.889708         7.40752         5.58923         5.58923 
       0.895864         7.30496         5.49969         5.49969 
       0.902008         7.19958          5.4123          5.4123 
       0.908149         7.08768         5.32687         5.32687 
       0.914301         7.02193         5.24315         5.24315 
       0.920448         6.92095         5.16131         5.16131 
       0.926574         6.86017         5.08151         5.08151 
       0.932687         6.73527         5.00357         5.00357 
       0.938823         6.62804         4.92699         4.92699 
       0.944975         6.58098         4.85184         4.85184 
       0.951105         6.46535         4.77853         4.77853 
       0.957225         6.41882         4.70685         4.70685 
       0.963368         6.31282         4.63641         4.63641 
       0.969511         6.23343         4.56741         4.56741 
       0.975621         6.15271         4.50018         4.50018 
       0.981748         6.05483         4.43414         4.43414 
       0.987916         5.99758         4.36901         4.36901 
        0.99406         5.93117         4.30543         4.30543 
        1.00019         5.86754         4.24324         4.24324 
        1.00632          5.8059         4.18234         4.18234 
        1.01246         5.72112         4.12255         4.12255 
        1.01859          5.6458         4.06403         4.06403 
        1.02471         5.55953         4.00671         4.00671 
        1.03085          5.5268          3.9503          3.9503 
        1.03698         5.45815          3.8951          3.8951 
        1.04314          5.3847         3.84072         3.84072 
        1.04929         5.30178         3.78751         3.78751 
        1.05541         5.25235         3.73552         3.73552 
        1.06154         5.19762         3.68437         3.68437 
        1.06769         5.15926         3.63411         3.63411 
        1.07382         5.06291         3.58495         3.58495 
        1.07993         5.00908         3.53681         3.53681 
        1.08607         4.97285         3.48936         3.48936 
        1.09222         4.89725         3.44273         3.44273 
        1.09836         4.87764         3.39701         3.39701 
        1.10449         4.77618         3.35218         3.35218 
        1.11063         4.75399          3.3081          3.3081 
        1.11677         4.70168         3.26484         3.26484 
         1.1229         4.65187         3.22242         3.22242 
        1.12903         4.60442         3.18072         3.18072 
        1.13518         4.53435         3.13973         3.13973 
        1.14131           4.486         3.09948         3.09948 
        1.14745         4.42408         3.05996         3.05996 
        1.15359         4.37844         3.02112         3.02112 
        1.15973         4.33305         2.98294         2.98294 
        1.16584         4.29726         2.94559         2.94559 
        1.17197         4.24279         2.90883         2.90883 
        1.17811         4.19694         2.87258         2.87258 
        1.18424         4.15699         2.83705         2.83705 
        1.19038         4.12271         2.80203         2.80203 
        1.19652         4.08302         2.76761         2.76761 
        1.20267         4.04249         2.73376         2.73376 
        1.20881         3.98779         2.70049         2.70049 
        1.21495         3.95454         2.66783         2.66783 
        1.22108         3.91124         2.63571         2.63571 
         1.2272         3.86537          2.6042          2.6042 
        1.23334         3.85085         2.57313         2.57313 
        1.23949         3.79445         2.54249         2.54249 
        1.24562         3.76252         2.51243         2.51243 
        1.25174         3.73698         2.48291         2.48291 
        1.25789         3.67107         2.45376         2.45376 
        1.26402         3.65027         2.42514         2.42514 
        1.27014         3.62079         2.39704         2.39704 
        1.27628         3.57352          2.3693          2.3693 
        1.28244         3.55051         2.34195         2.34195 
        1.28858         3.52189         2.31507         2.31507 
        1.29471         3.47016         2.28867         2.28867 
        1.30084         3.43582          2.2627          2.2627 
        1.30697         3.41921         2.23709         2.23709 
        1.31312         3.37983         2.21185         2.21185 
        1.31925         3.34601         2.18708         2.18708 
        1.32537         3.31953          2.1627          2.1627 
        1.33151         3.28429         2.13862         2.13862 
        1.33765          3.2531         2.11491         2.11491 
        1.34378         3.24029         2.09161         2.09161 
        1.34992         3.20193         2.06864         2.06864 
        1.35606         3.17542         2.04597         2.04597 
         1.3622         3.14314         2.02368         2.02368 
        1.36833         3.11183         2.00178         2.00178 
        1.37445         3.07927          1.9802          1.9802 
        1.38059         3.04982         1.95889         1.95889 
        1.38675         3.02523         1.93783         1.93783 
        1.39288         3.00656         1.91716         1.91716 
        1.39901         2.96769         1.89681         1.89681 
        1.40515         2.94765         1.87671         1.87671 
         1.4113         2.92202          1.8569          1.8569 
        1.41742         2.89767         1.83746         1.83746 
        1.42355         2.86879         1.81826         1.81826 
         1.4297         2.84648         1.79927         1.79927 
        1.43585         2.82724         1.78056         1.78056 
        1.44198         2.79519         1.76219         1.76219 
        1.44809         2.77767         1.74411         1.74411 
        1.45423         2.75002         1.72622         1.72622 
        1.46036         2.73206         1.70862         1.70862 
        1.46649         2.70429         1.69125         1.69125 
        1.47263         2.68881         1.67411         1.67411 
        1.47877         2.66517         1.65721         1.65721 
        1.48491         2.64132         1.64052         1.64052 
        1.49104         2.61873          1.6241          1.6241 
        1.49718         2.60188         1.60788         1.60788 
        1.50333         2.57537         1.59187         1.59187 
        1.50947          2.5499          1.5761          1.5761 
         1.5156         2.53594         1.56057         1.56057 
        1.52172         2.51408         1.54524         1.54524 
        1.52787         2.49608         1.53009         1.53009 
          1.534         2.47361         1.51517         1.51517 
        1.54013         2.45819         1.50045         1.50045 
        1.54627          2.4336         1.48591         1.48591 
        1.55241         2.41178         1.47155         1.47155 
        1.55855         2.39884         1.45741         1.45741 
        1.56467         2.38233         1.44349         1.44349 
         1.5708         2.35815         1.42971         1.42971 
        1.57695         2.33479         1.41609         1.41609 
        1.58308         2.31425         1.40268         1.40268 
        1.58922         2.30763         1.38943         1.38943 
        1.59535         2.28591         1.37636         1.37636 
         1.6015         2.26366         1.36343         1.36343 
        1.60764         2.25368         1.35068         1.35068 
        1.61376         2.23111         1.33813         1.33813 
        1.61989         2.20938         1.32573         1.32573 
        1.62604         2.19594         1.31345         1.31345 
        1.63218         2.18358         1.30134         1.30134 
        1.63831         2.16979         1.28941         1.28941 
        1.64444         2.14913         1.27762         1.27762 
        1.65059         2.13745         1.26596         1.26596 
        1.65673         2.11723         1.25445         1.25445 
        1.66285         2.10173         1.24311         1.24311 
        1.66898         2.08473         1.23191         1.23191 
        1.67512         2.06992         1.22083         1.22083 
        1.68127         2.05441         1.20987         1.20987 
         1.6874         2.04217         1.19907         1.19907 
        1.69353         2.02157         1.18841         1.18841 
        1.69967         2.00845         1.17786         1.17786 
        1.70581          1.9961         1.16743         1.16743 
        1.71193         1.97693         1.15717         1.15717 
        1.71806         1.96712         1.14702         1.14702 
        1.72421         1.95426         1.13696         1.13696 
        1.73035         1.93693         1.12704         1.12704 
        1.73649         1.92394         1.11723         1.11723 
        1.74262          1.9115         1.10755         1.10755 
        1.74876         1.89957         1.09798         1.09798 
        1.75489         1.88285         1.08854         1.08854 
        1.76101         1.86836         1.07922         1.07922 
        1.76715         1.86299         1.06999         1.06999 
        1.77329         1.84498         1.06086         1.06086 
        1.77943         1.83025         1.05183         1.05183 
        1.78557         1.82049         1.04291         1.04291 
        1.79171          1.8074          1.0341          1.0341 
        1.79785         1.79856         1.02539         1.02539 
        1.80399         1.78132         1.01678         1.01678 
        1.81012         1.77197         1.00828         1.00828 
        1.81625         1.75582        0.999884        0.999884 
        1.82239         1.74804        0.991568        0.991568 
        1.82853         1.73508         0.98335         0.98335 
        1.83466         1.71798        0.975233        0.975233 
        1.84078         1.70726        0.967216        0.967216 
        1.84692         1.69643        0.959276        0.959276 
        1.85306         1.68494        0.951416        0.951416 
         1.8592          1.6758        0.943655        0.943655 
        1.86533         1.66499        0.935985        0.935985 
        1.87147         1.65642        0.928391        0.928391 
