# k  (h/Mpc)    P(k)  (Mpc/h)^3    P_linear(k)  (Mpc/h)^3     P_NL(k)  ShotnoiseSubtracted = false
     0.00783031         8874.62         8928.77         8928.77 
       0.013688         10180.3         10389.8         10389.8 
       0.019231         9913.38         10018.3         10018.3 
      0.0249154         8883.22         8843.62         8843.62 
      0.0312784         7304.02          7325.7          7325.7 
      0.0375637          6002.6         6051.33         6051.33 
      0.0433917         5204.86         5197.34         5197.34 
      0.0492413         4606.47         4624.85         4624.85 
      0.0555754         4226.18         4214.57         4214.57 
      0.0619321         3812.35         3891.01         3891.01 
       0.067871         3553.91         3580.41         3580.41 
      0.0738098         3227.53         3228.75         3228.75 
      0.0800417         2849.62         2831.87         2831.87 
      0.0862327         2467.25         2454.18         2454.18 
      0.0921407         2174.38         2149.02         2149.02 
      0.0982031         1961.01         1912.26         1912.26 
       0.104506         1765.01         1745.14         1745.14 
       0.110769         1661.27         1637.13         1637.13 
       0.116806         1601.43         1559.53         1559.53 
       0.122832         1506.01         1482.76         1482.76 
       0.129052         1414.96         1388.24         1388.24 
       0.135211         1328.31         1277.15         1277.15 
       0.141259          1202.2         1160.25         1160.25 
       0.147318         1085.74         1048.83         1048.83 
       0.153489         1001.19         952.684         952.684 
       0.159709          945.17         878.864         878.864 
       0.165845         870.406         827.212         827.212 
       0.171974         853.806         790.261         790.261 
       0.178125         821.659         759.537         759.537 
       0.184229         768.892         728.046         728.046 
        0.19034          744.79         691.384         691.384 
       0.196428         709.837         649.534         649.534 
       0.202534          652.36         605.101         605.101 
       0.208729         629.927          561.75          561.75 
       0.214876         596.463         524.045         524.045 
       0.220989         555.412         493.537         493.537 
       0.227147         541.421         469.583         469.583 
        0.23329         521.046         450.637         450.637 
       0.239377         511.299         434.256         434.256 
       0.245482         485.502         417.978         417.978 
       0.251667         464.624         400.265         400.265 
       0.257832          456.03         381.137         381.137 
       0.263955         428.183         361.453         361.453 
       0.270079         409.485         342.288         342.288 
        0.27624         390.559         324.654         324.654 
       0.282372         379.385         309.408         309.408 
        0.28843         375.246          296.61          296.61 
       0.294538         356.135         285.548         285.548 
       0.300721         344.039         275.483         275.483 
        0.30691         337.832         265.815         265.815 
       0.313033         321.938         256.144         256.144 
       0.319153         315.677         246.228         246.228 
       0.325316         307.128         236.129         236.129 
        0.33145          297.98         226.301         226.301 
       0.337538         286.566         217.091         217.091 
       0.343633         277.088         208.667         208.667 
       0.349808         269.119         200.979         200.979 
       0.355968         263.079         194.078         194.078 
       0.362074         254.951         187.773         187.773 
       0.368217         251.342         181.744         181.744 
       0.374374         245.094         175.846         175.846 
       0.380519         234.812         169.998         169.998 
       0.386598         230.715         164.282         164.282 
       0.392688         223.938         158.684         158.684 
        0.39888         218.786          153.22          153.22 
       0.405048         213.586           148.1           148.1 
       0.411186          211.31         143.345         143.345 
       0.417313         206.611          138.92          138.92 
       0.423458         201.127         134.761         134.761 
       0.429607         195.645         130.799         130.799 
       0.435692         192.211         127.012         127.012 
       0.441815         187.988         123.305         123.305 
       0.447964         182.175         119.671         119.671 
       0.454126         179.207         116.122         116.122 
       0.460267         176.925         112.708         112.708 
       0.466387          172.65         109.454         109.454 
        0.47254         170.413         106.338         106.338 
       0.478662         165.051         103.387         103.387 
       0.484765         162.642         100.589         100.589 
       0.490885         159.846         97.9069         97.9069 
       0.497035         157.679         95.3112         95.3112 
       0.503198         155.351         92.7906         92.7906 
       0.509342         151.201         90.3516         90.3516 
       0.515458         148.825         87.9988         87.9988 
       0.521598         145.164          85.713          85.713 
       0.527764          143.79         83.4962         83.4962 
       0.533884         142.667         81.3763         81.3763 
           0.54         139.012         79.3399         79.3399 
       0.546137         135.745         77.3778         77.3778 
       0.552299         133.982         75.4826         75.4826 
       0.558452         131.595         73.6568         73.6568 
       0.564573         130.782         71.8979         71.8979 
       0.570708           127.3         70.1876         70.1876 
       0.576825         125.628         68.5342         68.5342 
       0.582926         124.237         66.9364         66.9364 
       0.589034         122.057         65.3875         65.3875 
       0.595184         120.662         63.8786         63.8786 
       0.601379         118.226         62.4084         62.4084 
       0.607522         115.714         60.9975         60.9975 
       0.613639         114.798         59.6371         59.6371 
       0.619772         113.136          58.316          58.316 
       0.625918         112.134         57.0334         57.0334 
       0.632068         109.495         55.7892         55.7892 
       0.638161         108.285         54.5934         54.5934 
         0.6443         107.524          53.424          53.424 
       0.650464         105.143         52.2841         52.2841 
       0.656582         104.591         51.1852         51.1852 
       0.662703         103.241         50.1173         50.1173 
       0.668861         101.029         49.0737         49.0737 
       0.675024          100.92         48.0592         48.0592 
       0.681124         99.1705         47.0839         47.0839 
       0.687237         97.7159         46.1341         46.1341 
       0.693381         96.6139         45.2066         45.2066 
       0.699536         95.5172         44.3033         44.3033 
       0.705665         94.2668         43.4288         43.4288 
       0.711789         92.8626         42.5789         42.5789 
       0.717957         91.7364          41.746          41.746 
        0.72409         90.7665         40.9401         40.9401 
       0.730186         90.4711         40.1604         40.1604 
       0.736317          89.022         39.3967         39.3967 
       0.742472          87.494           38.65           38.65 
       0.748622          86.151         37.9235         37.9235 
        0.75476         86.2235         37.2172         37.2172 
       0.760888         85.3169           36.53           36.53 
       0.767043         83.5996         35.8574         35.8574 
       0.773185         82.5176         35.2033         35.2033 
       0.779291         81.6464         34.5692         34.5692 
       0.785407         80.8491         33.9499         33.9499 
       0.791564         80.3227          33.342          33.342 
       0.797719         79.0567         32.7492         32.7492 
       0.803834         78.7505         32.1747         32.1747 
       0.809972         78.0096          31.612          31.612 
       0.816124         76.7849         31.0616         31.0616 
       0.822261         75.9286         30.5258         30.5258 
       0.828378         75.7162         30.0043         30.0043 
       0.834502         74.6975         29.4945         29.4945 
       0.840667         74.1108         28.9934         28.9934 
       0.846816         73.2971         28.5053         28.5053 
       0.852925         72.4362         28.0316         28.0316 
       0.859047         71.9914         27.5677         27.5677 
       0.865192         71.1168         27.1128         27.1128 
       0.871341         70.4006         26.6679         26.6679 
       0.877463         69.7789         26.2351         26.2351 
       0.883569          69.621          25.813          25.813 
       0.889708         68.8701          25.398          25.398 
       0.895864         68.2792         24.9911         24.9911 
       0.902008         67.4229          24.594          24.594 
       0.908149         66.5742         24.2058         24.2058 
       0.914301          66.346         23.8254         23.8254 
       0.920448         66.2162         23.4535         23.4535 
       0.926574         64.7388         23.0909         23.0909 
       0.932687         64.5419         22.7367         22.7367 
       0.938823         64.0319         22.3887         22.3887 
       0.944975         63.2423         22.0472         22.0472 
       0.951105         62.6899         21.7141         21.7141 
       0.957225         62.4845         21.3884         21.3884 
       0.963368         61.7884         21.0683         21.0683 
       0.969511         61.3579         20.7547         20.7547 
       0.975621         60.6551         20.4493         20.4493 
       0.981748         60.1824         20.1492         20.1492 
       0.987916         59.6831         19.8532         19.8532 
        0.99406         59.4732         19.5643         19.5643 
        1.00019         58.6734         19.2817         19.2817 
        1.00632         58.1916          19.005          19.005 
        1.01246         57.8515         18.7333         18.7333 
        1.01859         57.5541         18.4673         18.4673 
        1.02471         56.9943         18.2069         18.2069 
        1.03085         56.4606         17.9506         17.9506 
        1.03698         56.0739         17.6997         17.6997 
        1.04314         55.6196         17.4526         17.4526 
        1.04929         55.1826         17.2108         17.2108 
        1.05541         54.8137         16.9745         16.9745 
        1.06154         54.4014         16.7421         16.7421 
        1.06769         53.9434         16.5137         16.5137 
        1.07382         53.4096         16.2904         16.2904 
        1.07993         53.2346         16.0716         16.0716 
        1.08607         52.7908          15.856          15.856 
        1.09222         52.5269         15.6441         15.6441 
        1.09836         52.0596         15.4363         15.4363 
        1.10449          51.718         15.2326         15.2326 
        1.11063         51.2745         15.0323         15.0323 
        1.11677          51.058         14.8357         14.8357 
         1.1229         50.5124          14.643          14.643 
        1.12903         50.3036         14.4535         14.4535 
        1.13518         50.0283         14.2672         14.2672 
        1.14131         49.5726         14.0843         14.0843 
        1.14745         49.2814         13.9047         13.9047 
        1.15359         48.6468         13.7283         13.7283 
        1.15973         48.6459         13.5548         13.5548 
        1.16584         48.2519          13.385          13.385 
        1.17197         47.8384          13.218          13.218 
        1.17811         47.5388         13.0533         13.0533 
        1.18424         46.9387         12.8918         12.8918 
        1.19038         46.8431         12.7327         12.7327 
        1.19652         46.5919         12.5763         12.5763 
        1.20267         46.1901         12.4225         12.4225 
        1.20881         45.9026         12.2713         12.2713 
        1.21495          45.646         12.1229         12.1229 
        1.22108         45.5361         11.9769         11.9769 
         1.2272         44.9954         11.8337         11.8337 
        1.23334         44.8281         11.6925         11.6925 
        1.23949         44.5148         11.5533         11.5533 
        1.24562         44.1701         11.4167         11.4167 
        1.25174         43.9246         11.2826         11.2826 
        1.25789         43.7691         11.1501         11.1501 
        1.26402         43.4364         11.0201         11.0201 
        1.27014         43.2662         10.8924         10.8924 
        1.27628         42.8205         10.7663         10.7663 
        1.28244         42.7999         10.6421         10.6421 
        1.28858          42.376         10.5199         10.5199 
        1.29471         42.0284         10.3999         10.3999 
        1.30084         41.6457         10.2819         10.2819 
        1.30697         41.7189         10.1656         10.1656 
        1.31312         41.3703         10.0509         10.0509 
        1.31925         41.0136         9.93828         9.93828 
        1.32537         40.7934         9.82753         9.82753 
        1.33151          40.532         9.71807         9.71807 
        1.33765         40.3562         9.61035         9.61035 
        1.34378         40.1208         9.50447         9.50447 
        1.34992          39.867         9.40011         9.40011 
        1.35606         39.5237         9.29709         9.29709 
         1.3622         39.4102          9.1958          9.1958 
        1.36833         39.2381         9.09626         9.09626 
        1.37445         38.8255         8.99824         8.99824 
        1.38059         38.7087         8.90136         8.90136 
        1.38675         38.3686         8.80567         8.80567 
        1.39288         38.2858         8.71177         8.71177 
        1.39901         37.9409         8.61929         8.61929 
        1.40515         37.8237         8.52793         8.52793 
         1.4113         37.6951         8.43793         8.43793 
        1.41742         37.3901         8.34958         8.34958 
        1.42355         37.1759         8.26232         8.26232 
         1.4297         37.0489         8.17605         8.17605 
        1.43585         36.7811         8.09104         8.09104 
        1.44198         36.5133         8.00756         8.00756 
        1.44809          36.243         7.92542         7.92542 
        1.45423         36.1412         7.84413         7.84413 
        1.46036         35.9957         7.76412         7.76412 
        1.46649          35.708         7.68519         7.68519 
        1.47263         35.5351         7.60731         7.60731 
        1.47877         35.3612         7.53053         7.53053 
        1.48491         35.1399         7.45469         7.45469 
        1.49104         34.9034         7.38005         7.38005 
        1.49718          34.792         7.30637         7.30637 
        1.50333         34.6351         7.23358         7.23358 
        1.50947         34.3609         7.16193         7.16193 
         1.5156         34.2656         7.09135         7.09135 
        1.52172         33.9816         7.02172         7.02172 
        1.52787         33.8847         6.95289         6.95289 
          1.534         33.6135         6.88505         6.88505 
        1.54013         33.6385         6.81819         6.81819 
        1.54627         33.2892          6.7521          6.7521 
        1.55241          33.134         6.68687         6.68687 
        1.55855         32.9828         6.62259         6.62259 
        1.56467         32.7218         6.55933         6.55933 
         1.5708         32.7016         6.49672         6.49672 
        1.57695         32.5003         6.43483         6.43483 
        1.58308          32.263         6.37388         6.37388 
        1.58922         32.0877         6.31369         6.31369 
        1.59535          32.024         6.25429         6.25429 
         1.6015         31.9324         6.19557         6.19557 
        1.60764         31.6284         6.13763         6.13763 
        1.61376         31.4688         6.08059         6.08059 
        1.61989         31.2418         6.02423         6.02423 
        1.62604         31.1256         5.96846         5.96846 
        1.63218         30.8784         5.91342         5.91342 
        1.63831         30.8314          5.8592          5.8592 
        1.64444         30.6934         5.80564         5.80564 
        1.65059         30.4687         5.75263         5.75263 
        1.65673          30.348         5.70032         5.70032 
        1.66285         30.2449         5.64882         5.64882 
        1.66898         30.0306         5.59793         5.59793 
        1.67512         29.8779         5.54757         5.54757 
        1.68127         29.7556         5.49778         5.49778 
         1.6874         29.6384         5.44871         5.44871 
        1.69353         29.4814         5.40026         5.40026 
        1.69967         29.3594         5.35229         5.35229 
        1.70581         29.1569         5.30492         5.30492 
        1.71193         29.0277         5.25831         5.25831 
        1.71806         28.9232         5.21215         5.21215 
        1.72421         28.7273         5.16646         5.16646 
        1.73035         28.6049         5.12136         5.12136 
        1.73649         28.4146         5.07681         5.07681 
        1.74262         28.2283         5.03283         5.03283 
        1.74876         28.2863         4.98933         4.98933 
        1.75489         28.0137         4.94644         4.94644 
        1.76101          27.941         4.90406         4.90406 
        1.76715         27.7597         4.86212         4.86212 
        1.77329         27.5469         4.82062         4.82062 
        1.77943         27.5698         4.77959         4.77959 
        1.78557         27.4384         4.73909         4.73909 
        1.79171         27.2522         4.69905         4.69905 
        1.79785         27.1595         4.65947         4.65947 
        1.80399         26.9781         4.62035         4.62035 
        1.81012         26.8849         4.58173         4.58173 
        1.81625          26.666         4.54356         4.54356 
        1.82239         26.5727         4.50577         4.50577 
        1.82853         26.4834         4.46843         4.46843 
        1.83466         26.3368         4.43155         4.43155 
        1.84078         26.2039         4.39512         4.39512 
        1.84692         26.0687         4.35904         4.35904 
        1.85306         25.9341         4.32332         4.32332 
         1.8592         25.8433         4.28805         4.28805 
        1.86533         25.7311          4.2532          4.2532 
        1.87147         25.6064         4.21869         4.21869 
        1.87761         25.4527         4.18455         4.18455 
