# k  (h/Mpc)    P(k)  (Mpc/h)^3    P_linear(k)  (Mpc/h)^3     P_NL(k)  ShotnoiseSubtracted = false
     0.00783031         8273.45         8324.63         8324.63 
       0.013688          9497.2         9687.32         9687.32 
       0.019231         9246.83         9341.15         9341.15 
      0.0249154         8282.21         8245.91         8245.91 
      0.0312784         6812.47         6830.62         6830.62 
      0.0375637         5599.58         5642.39         5642.39 
      0.0433917          4854.1         4846.12         4846.12 
      0.0492413         4296.55         4312.32         4312.32 
      0.0555754         3941.42         3929.77         3929.77 
      0.0619321         3557.82         3628.08         3628.08 
       0.067871         3315.66         3338.47         3338.47 
      0.0738098         3010.01         3010.57         3010.57 
      0.0800417         2657.17         2640.52         2640.52 
      0.0862327         2300.32         2288.35         2288.35 
      0.0921407         2026.22          2003.8          2003.8 
      0.0982031          1826.5         1783.05         1783.05 
       0.104506         1644.31         1627.22         1627.22 
       0.110769         1547.49          1526.5          1526.5 
       0.116806         1491.48         1454.15         1454.15 
       0.122832         1402.73         1382.57         1382.57 
       0.129052         1318.26         1294.43         1294.43 
       0.135211         1236.21         1190.85         1190.85 
       0.141259         1118.83         1081.85         1081.85 
       0.147318         1009.99         977.964         977.964 
       0.153489         930.773          888.31          888.31 
       0.159709         877.717         819.479         819.479 
       0.165845         808.572         771.317         771.317 
       0.171974         792.916         736.862         736.862 
       0.178125          762.73         708.215         708.215 
       0.184229         714.571         678.851         678.851 
        0.19034         691.648         644.667         644.667 
       0.196428         658.605         605.645         605.645 
       0.202534         605.124         564.214         564.214 
       0.208729         583.579         523.792         523.792 
       0.214876         552.533         488.635         488.635 
       0.220989         514.097         460.189         460.189 
       0.227147         501.089         437.853         437.853 
        0.23329         482.244         420.187         420.187 
       0.239377         472.718         404.913         404.913 
       0.245482         449.008         389.735         389.735 
       0.251667         429.495         373.219         373.219 
       0.257832         421.411         355.383         355.383 
       0.263955         395.468         337.029         337.029 
       0.270079         377.951          319.16          319.16 
        0.27624         360.349         302.717         302.717 
       0.282372         349.676         288.501         288.501 
        0.28843         345.796         276.568         276.568 
       0.294538         328.324         266.254         266.254 
       0.300721         316.825         256.868         256.868 
        0.30691         311.142         247.854         247.854 
       0.313033         296.553         238.836         238.836 
       0.319153         290.703          229.59          229.59 
       0.325316         282.357         220.173         220.173 
        0.33145         273.739          211.01          211.01 
       0.337538         263.288         202.422         202.422 
       0.343633         254.502         194.568         194.568 
       0.349808         247.035         187.399         187.399 
       0.355968         241.345         180.964         180.964 
       0.362074         234.168         175.085         175.085 
       0.368217         230.526         169.463         169.463 
       0.374374         224.669         163.964         163.964 
       0.380519         215.213         158.512         158.512 
       0.386598         211.262         153.181         153.181 
       0.392688         204.945         147.962         147.962 
        0.39888         200.352         142.867         142.867 
       0.405048         195.524         138.093         138.093 
       0.411186         193.161         133.659         133.659 
       0.417313         188.694         129.533         129.533 
       0.423458         183.714         125.655         125.655 
       0.429607         178.823         121.961         121.961 
       0.435692         175.673          118.43          118.43 
       0.441815         171.592         114.973         114.973 
       0.447964         166.186         111.585         111.585 
       0.454126         163.364         108.276         108.276 
       0.460267         161.389         105.092         105.092 
       0.466387         157.428         102.058         102.058 
        0.47254         155.396         99.1524         99.1524 
       0.478662         150.335         96.4014         96.4014 
       0.484765         148.118         93.7924         93.7924 
       0.490885         145.401         91.2913         91.2913 
       0.497035         143.569          88.871          88.871 
       0.503198         141.201         86.5207         86.5207 
       0.509342         137.418         84.2465         84.2465 
       0.515458         135.254         82.0527         82.0527 
       0.521598         131.875         79.9214         79.9214 
       0.527764         130.617         77.8544         77.8544 
       0.533884         129.566         75.8777         75.8777 
           0.54          126.11         73.9789         73.9789 
       0.546137         123.136         72.1494         72.1494 
       0.552299         121.405         70.3822         70.3822 
       0.558452         119.225         68.6798         68.6798 
       0.564573         118.493         67.0398         67.0398 
       0.570708         115.254          65.445          65.445 
       0.576825         113.793         63.9033         63.9033 
       0.582926         112.506         62.4135         62.4135 
       0.589034         110.488         60.9693         60.9693 
       0.595184         109.152         59.5624         59.5624 
       0.601379         106.867         58.1915         58.1915 
       0.607522         104.639         56.8759         56.8759 
       0.613639         103.774         55.6074         55.6074 
       0.619772          102.14         54.3756         54.3756 
       0.625918         101.253         53.1796         53.1796 
       0.632068         98.9072         52.0195         52.0195 
       0.638161         97.6788         50.9045         50.9045 
         0.6443          97.034         49.8141         49.8141 
       0.650464         94.8365         48.7513         48.7513 
       0.656582         94.3795         47.7266         47.7266 
       0.662703         93.0786         46.7309         46.7309 
       0.668861         91.0676         45.7578         45.7578 
       0.675024          90.946         44.8118         44.8118 
       0.681124         89.3601         43.9024         43.9024 
       0.687237         87.9428         43.0168         43.0168 
       0.693381         87.0213          42.152          42.152 
       0.699536         85.9816         41.3097         41.3097 
       0.705665         84.8188         40.4943         40.4943 
       0.711789         83.5407         39.7018         39.7018 
       0.717957           82.49         38.9253         38.9253 
        0.72409         81.6389         38.1738         38.1738 
       0.730186         81.2831         37.4467         37.4467 
       0.736317         79.9499         36.7346         36.7346 
       0.742472         78.6015         36.0384         36.0384 
       0.748622         77.3944          35.361          35.361 
        0.75476         77.3193         34.7024         34.7024 
       0.760888         76.6029         34.0616         34.0616 
       0.767043         75.0222         33.4345         33.4345 
       0.773185         74.0155         32.8246         32.8246 
       0.779291         73.2302         32.2334         32.2334 
       0.785407         72.4605         31.6559         31.6559 
       0.791564         72.0642          31.089          31.089 
       0.797719         70.9002         30.5364         30.5364 
       0.803834         70.5414         30.0007         30.0007 
       0.809972         69.8793          29.476          29.476 
       0.816124         68.8251         28.9628         28.9628 
       0.822261         67.9746         28.4632         28.4632 
       0.828378         67.7977         27.9769         27.9769 
       0.834502         66.8593         27.5016         27.5016 
       0.840667         66.3154         27.0343         27.0343 
       0.846816         65.6029         26.5792         26.5792 
       0.852925         64.8008         26.1375         26.1375 
       0.859047         64.4615          25.705          25.705 
       0.865192         63.5804         25.2808         25.2808 
       0.871341         62.9227          24.866          24.866 
       0.877463         62.3614         24.4624         24.4624 
       0.883569         62.2107         24.0688         24.0688 
       0.889708         61.5214         23.6819         23.6819 
       0.895864         61.0062         23.3025         23.3025 
       0.902008         60.2517         22.9322         22.9322 
       0.908149          59.491         22.5702         22.5702 
       0.914301         59.2291         22.2155         22.2155 
       0.920448         59.0993         21.8687         21.8687 
       0.926574         57.7943         21.5306         21.5306 
       0.932687         57.5644         21.2004         21.2004 
       0.938823         57.0825         20.8759         20.8759 
       0.944975          56.362         20.5575         20.5575 
       0.951105         55.9002         20.2469         20.2469 
       0.957225         55.6812         19.9432         19.9432 
       0.963368         55.0792         19.6447         19.6447 
       0.969511          54.661         19.3523         19.3523 
       0.975621         54.0823         19.0675         19.0675 
       0.981748         53.6207         18.7877         18.7877 
       0.987916         53.1637         18.5117         18.5117 
        0.99406         52.9432         18.2423         18.2423 
        1.00019         52.2398         17.9788         17.9788 
        1.00632          51.824         17.7208         17.7208 
        1.01246         51.4942         17.4675         17.4675 
        1.01859          51.218         17.2195         17.2195 
        1.02471         50.6829         16.9766         16.9766 
        1.03085         50.2373         16.7376         16.7376 
        1.03698         49.9107         16.5038         16.5038 
        1.04314         49.4897         16.2733         16.2733 
        1.04929         49.0382         16.0479         16.0479 
        1.05541         48.7711         15.8276         15.8276 
        1.06154         48.3884         15.6109         15.6109 
        1.06769         47.9182         15.3979         15.3979 
        1.07382         47.4682         15.1896         15.1896 
        1.07993         47.3016         14.9856         14.9856 
        1.08607         46.8961         14.7846         14.7846 
        1.09222         46.6602          14.587          14.587 
        1.09836         46.2555         14.3933         14.3933 
        1.10449         45.9572         14.2033         14.2033 
        1.11063         45.5322         14.0166         14.0166 
        1.11677         45.3649         13.8333         13.8333 
         1.1229         44.8709         13.6536         13.6536 
        1.12903         44.6687         13.4769         13.4769 
        1.13518         44.4553         13.3032         13.3032 
        1.14131         44.0215         13.1326         13.1326 
        1.14745         43.7228         12.9652         12.9652 
        1.15359         43.1788         12.8006         12.8006 
        1.15973          43.183         12.6389         12.6389 
        1.16584         42.8172         12.4806         12.4806 
        1.17197         42.4053         12.3248         12.3248 
        1.17811         42.1712         12.1713         12.1713 
        1.18424         41.5938         12.0207         12.0207 
        1.19038         41.4971         11.8723         11.8723 
        1.19652         41.2957         11.7265         11.7265 
        1.20267          40.944         11.5831         11.5831 
        1.20881         40.6818         11.4421         11.4421 
        1.21495         40.4912         11.3037         11.3037 
        1.22108         40.3755         11.1676         11.1676 
         1.2272         39.8846         11.0341         11.0341 
        1.23334         39.7138         10.9025         10.9025 
        1.23949         39.4488         10.7726         10.7726 
        1.24562         39.1521         10.6453         10.6453 
        1.25174         38.9042         10.5202         10.5202 
        1.25789         38.7682         10.3967         10.3967 
        1.26402         38.4758         10.2754         10.2754 
        1.27014         38.3362         10.1564         10.1564 
        1.27628         37.9123         10.0389         10.0389 
        1.28244         37.9037         9.92297         9.92297 
        1.28858         37.5136         9.80906         9.80906 
        1.29471         37.2015         9.69719         9.69719 
        1.30084         36.8825         9.58716         9.58716 
        1.30697         36.9342         9.47868         9.47868 
        1.31312          36.602         9.37172         9.37172 
        1.31925         36.2906         9.26675         9.26675 
        1.32537         36.0878         9.16348         9.16348 
        1.33151         35.8401         9.06142         9.06142 
        1.33765         35.7137         8.96098         8.96098 
        1.34378         35.5243         8.86225         8.86225 
        1.34992         35.2487         8.76494         8.76494 
        1.35606         34.9508         8.66889         8.66889 
         1.3622         34.8481         8.57444         8.57444 
        1.36833         34.7208         8.48162         8.48162 
        1.37445         34.3407         8.39023         8.39023 
        1.38059          34.225         8.29989         8.29989 
        1.38675         33.9386         8.21067         8.21067 
        1.39288         33.8551         8.12312         8.12312 
        1.39901          33.557         8.03688         8.03688 
        1.40515         33.4443          7.9517          7.9517 
         1.4113         33.3487         7.86778         7.86778 
        1.41742         33.0776          7.7854          7.7854 
        1.42355         32.8328         7.70404         7.70404 
         1.4297         32.7504         7.62359         7.62359 
        1.43585         32.5124         7.54433         7.54433 
        1.44198         32.2743         7.46649         7.46649 
        1.44809         32.0376          7.3899          7.3899 
        1.45423         31.9451          7.3141          7.3141 
        1.46036         31.8268         7.23949         7.23949 
        1.46649         31.5675         7.16591         7.16591 
        1.47263         31.4047         7.09328         7.09328 
        1.47877         31.2461         7.02169         7.02169 
        1.48491         31.0662         6.95097         6.95097 
        1.49104          30.839         6.88138         6.88138 
        1.49718         30.7668         6.81268         6.81268 
        1.50333         30.6232         6.74481         6.74481 
        1.50947         30.3578           6.678           6.678 
         1.5156         30.2768         6.61219         6.61219 
        1.52172         30.0344         6.54726         6.54726 
        1.52787         29.9668         6.48308         6.48308 
          1.534         29.7023         6.41983         6.41983 
        1.54013         29.7359         6.35749         6.35749 
        1.54627         29.4298         6.29586         6.29586 
        1.55241         29.2779         6.23504         6.23504 
        1.55855         29.1569          6.1751          6.1751 
        1.56467         28.9357         6.11612         6.11612 
         1.5708         28.8917         6.05773         6.05773 
        1.57695          28.739         6.00003         6.00003 
        1.58308         28.4957          5.9432          5.9432 
        1.58922         28.3535         5.88707         5.88707 
        1.59535         28.2742         5.83169         5.83169 
         1.6015         28.2103         5.77694         5.77694 
        1.60764         27.9322         5.72291         5.72291 
        1.61376         27.7891         5.66973         5.66973 
        1.61989         27.6037         5.61717         5.61717 
        1.62604         27.4851         5.56517         5.56517 
        1.63218         27.2884         5.51385         5.51385 
        1.63831          27.236          5.4633          5.4633 
        1.64444         27.1028         5.41336         5.41336 
        1.65059          26.922         5.36392         5.36392 
        1.65673         26.8213         5.31515         5.31515 
        1.66285         26.7249         5.26713         5.26713 
        1.66898         26.5348         5.21968         5.21968 
        1.67512         26.4286         5.17272         5.17272 
        1.68127         26.2848         5.12629         5.12629 
         1.6874         26.1787         5.08054         5.08054 
        1.69353         26.0548         5.03537         5.03537 
        1.69967         25.9437         4.99064         4.99064 
        1.70581         25.7672         4.94647         4.94647 
        1.71193          25.648           4.903           4.903 
        1.71806         25.5652         4.85997         4.85997 
        1.72421         25.3968         4.81736         4.81736 
        1.73035         25.2737         4.77531         4.77531 
        1.73649         25.1095         4.73377         4.73377 
        1.74262         24.9512         4.69276         4.69276 
        1.74876         24.9871          4.6522          4.6522 
        1.75489         24.7582         4.61221         4.61221 
        1.76101         24.6929          4.5727          4.5727 
        1.76715         24.5324         4.53359         4.53359 
        1.77329         24.3482         4.49489         4.49489 
        1.77943         24.3481         4.45663         4.45663 
        1.78557         24.2571         4.41887         4.41887 
        1.79171         24.1001         4.38154         4.38154 
        1.79785         23.9981         4.34463         4.34463 
        1.80399          23.844         4.30815         4.30815 
        1.81012         23.7826         4.27214         4.27214 
        1.81625         23.5599         4.23655         4.23655 
        1.82239         23.4911         4.20132         4.20132 
        1.82853         23.4024          4.1665          4.1665 
        1.83466         23.2796         4.13211         4.13211 
        1.84078         23.1558         4.09814         4.09814 
        1.84692         23.0479          4.0645          4.0645 
        1.85306         22.9227         4.03119         4.03119 
         1.8592         22.8738         3.99831         3.99831 
        1.86533         22.7474         3.96581         3.96581 
        1.87147          22.628         3.93363         3.93363 
        1.87761          22.494          3.9018          3.9018 
