# k  (h/Mpc)    Pcb(k)  (Mpc/h)^3    Pcb_linear(k) (Mpc/h)^3    Pcb_NL(k) (Mpc/h)^3   ShotnoiseSubtracted = false
     0.00783031         21642.3           21748           21748 
       0.013688         24540.8         25277.8         25277.8 
       0.019231         23946.1           24366           24366 
      0.0249154         21605.6         21505.5         21505.5 
      0.0312784         17647.5         17812.6         17812.6 
      0.0375637         14469.5         14713.1         14713.1 
      0.0433917         12592.8         12636.3         12636.3 
      0.0492413         11129.4         11244.1         11244.1 
      0.0555754         10212.4         10246.4         10246.4 
      0.0619321          9127.4         9459.67         9459.67 
       0.067871         8532.82         8704.46         8704.46 
      0.0738098         7808.63         7849.47         7849.47 
      0.0800417            6905         6884.57         6884.57 
      0.0862327         6000.92         5966.34         5966.34 
      0.0921407         5342.71         5224.43         5224.43 
      0.0982031         4856.16         4648.84         4648.84 
       0.104506         4363.97         4242.54         4242.54 
       0.110769         4114.39         3979.94         3979.94 
       0.116806         3962.39         3791.29         3791.29 
       0.122832         3736.58         3604.65         3604.65 
       0.129052          3484.8         3374.87         3374.87 
       0.135211          3329.5         3104.81         3104.81 
       0.141259         3017.78         2820.61         2820.61 
       0.147318         2761.14         2549.75         2549.75 
       0.153489         2569.95            2316            2316 
       0.159709          2465.8         2136.54         2136.54 
       0.165845          2272.4         2010.97         2010.97 
       0.171974         2220.88         1921.14         1921.14 
       0.178125         2156.64         1846.45         1846.45 
       0.184229         1987.46          1769.9          1769.9 
        0.19034         1950.58         1680.77         1680.77 
       0.196428         1880.77         1579.03         1579.03 
       0.202534         1753.31         1471.01         1471.01 
       0.208729         1708.62         1365.62         1365.62 
       0.214876         1618.03         1273.96         1273.96 
       0.220989         1539.95          1199.8          1199.8 
       0.227147         1495.17         1141.57         1141.57 
        0.23329         1437.08          1095.5          1095.5 
       0.239377         1430.15         1055.68         1055.68 
       0.245482         1361.53         1016.11         1016.11 
       0.251667         1311.12         973.048         973.048 
       0.257832         1284.14         926.548         926.548 
       0.263955         1223.27         878.695         878.695 
       0.270079         1186.69         832.107         832.107 
        0.27624         1136.84         789.239         789.239 
       0.282372         1121.92         752.173         752.173 
        0.28843         1097.55         721.063         721.063 
       0.294538         1048.45         694.171         694.171 
       0.300721         1028.71           669.7           669.7 
        0.30691         1000.31         646.197         646.197 
       0.313033          961.76         622.689         622.689 
       0.319153         951.212         598.582         598.582 
       0.325316         937.127          574.03          574.03 
        0.33145          913.34         550.139         550.139 
       0.337538         882.652         527.752         527.752 
       0.343633         862.142          507.27          507.27 
       0.349808         845.367         488.584         488.584 
       0.355968         827.733         471.805         471.805 
       0.362074         800.477         456.476         456.476 
       0.368217         796.614         441.821         441.821 
       0.374374         784.513          427.48          427.48 
       0.380519         755.969         413.267         413.267 
       0.386598         750.582          399.37          399.37 
       0.392688         730.658         385.761         385.761 
        0.39888         716.625          372.48          372.48 
       0.405048         699.709         360.031         360.031 
       0.411186         699.181         348.472         348.472 
       0.417313         690.675         337.714         337.714 
       0.423458         672.431         327.604         327.604 
       0.429607         653.758         317.973         317.973 
       0.435692         646.259         308.767         308.767 
       0.441815         634.078         299.755         299.755 
       0.447964         625.022         290.919         290.919 
       0.454126         617.064         282.293         282.293 
       0.460267         608.991         273.994         273.994 
       0.466387         595.621         266.083         266.083 
        0.47254         589.415         258.507         258.507 
       0.478662         578.412         251.336         251.336 
       0.484765         570.562         244.532         244.532 
       0.490885         566.588         238.012         238.012 
       0.497035         553.294         231.702         231.702 
       0.503198         552.279         225.574         225.574 
       0.509342         541.721         219.645         219.645 
       0.515458         531.222         213.925         213.925 
       0.521598         529.485         208.368         208.368 
       0.527764         517.356          202.98          202.98 
       0.533884         510.904         197.826         197.826 
           0.54         507.517         192.875         192.875 
       0.546137         499.149         188.106         188.106 
       0.552299         495.749         183.498         183.498 
       0.558452         488.589          179.06          179.06 
       0.564573         486.661         174.784         174.784 
       0.570708         479.344         170.626         170.626 
       0.576825         470.584         166.607         166.607 
       0.582926         469.223         162.723         162.723 
       0.589034         461.165         158.957         158.957 
       0.595184         457.113         155.289         155.289 
       0.601379          449.75         151.715         151.715 
       0.607522         442.412         148.285         148.285 
       0.613639          441.38         144.978         144.978 
       0.619772         438.239         141.766         141.766 
       0.625918         430.386         138.648         138.648 
       0.632068          429.15         135.624         135.624 
       0.638161         423.363         132.717         132.717 
         0.6443         417.908         129.874         129.874 
       0.650464         414.555         127.103         127.103 
       0.656582         410.427         124.431         124.431 
       0.662703           407.4         121.835         121.835 
       0.668861         401.212         119.298         119.298 
       0.675024         399.866         116.832         116.832 
       0.681124         391.007         114.461         114.461 
       0.687237          391.01         112.152         112.152 
       0.693381         385.131         109.897         109.897 
       0.699536         385.252         107.701         107.701 
       0.705665         378.926         105.575         105.575 
       0.711789         377.305         103.509         103.509 
       0.717957         373.288         101.485         101.485 
        0.72409         369.182         99.5255         99.5255 
       0.730186         369.187         97.6299         97.6299 
       0.736317         363.204         95.7733         95.7733 
       0.742472         360.173         93.9582         93.9582 
       0.748622         359.086          92.192          92.192 
        0.75476         353.932         90.4749         90.4749 
       0.760888         352.463         88.8043         88.8043 
       0.767043         349.002         87.1694         87.1694 
       0.773185         345.857         85.5792         85.5792 
       0.779291         342.962         84.0378         84.0378 
       0.785407         340.298         82.5323         82.5323 
       0.791564         338.743         81.0543         81.0543 
       0.797719         333.443         79.6134         79.6134 
       0.803834          333.46         78.2168         78.2168 
       0.809972         328.255         76.8488         76.8488 
       0.816124         326.179         75.5107         75.5107 
       0.822261         323.821         74.2082         74.2082 
       0.828378         322.099         72.9404         72.9404 
       0.834502         317.339         71.7012         71.7012 
       0.840667         316.488         70.4829         70.4829 
       0.846816         312.945         69.2964         69.2964 
       0.852925         313.254         68.1448         68.1448 
       0.859047         308.866         67.0171         67.0171 
       0.865192         307.429         65.9113         65.9113 
       0.871341         304.139         64.8298         64.8298 
       0.877463         302.922         63.7775         63.7775 
       0.883569          300.89         62.7513         62.7513 
       0.889708         297.721         61.7425         61.7425 
       0.895864         294.054         60.7534         60.7534 
       0.902008         293.175         59.7881         59.7881 
       0.908149         289.972         58.8443         58.8443 
       0.914301         289.265         57.9195         57.9195 
       0.920448         285.704         57.0155         57.0155 
       0.926574         283.948         56.1339         56.1339 
       0.932687         283.347         55.2729         55.2729 
       0.938823         280.365          54.427          54.427 
       0.944975         280.002         53.5968         53.5968 
       0.951105         277.258         52.7869         52.7869 
       0.957225         274.167         51.9952         51.9952 
       0.963368         274.252          51.217          51.217 
       0.969511         270.399         50.4548         50.4548 
       0.975621         267.815         49.7122         49.7122 
       0.981748         267.433         48.9826         48.9826 
       0.987916         265.708         48.2631         48.2631 
        0.99406         262.822         47.5608         47.5608 
        1.00019         260.637         46.8738         46.8738 
        1.00632         259.959         46.2011         46.2011 
        1.01246         258.065         45.5406         45.5406 
        1.01859         255.721         44.8941         44.8941 
        1.02471         253.972         44.2609         44.2609 
        1.03085         252.805         43.6378         43.6378 
        1.03698         251.203          43.028          43.028 
        1.04314         249.898         42.4273         42.4273 
        1.04929         248.176         41.8394         41.8394 
        1.05541         247.007         41.2651         41.2651 
        1.06154         244.293         40.7001         40.7001 
        1.06769         242.809         40.1449         40.1449 
        1.07382         240.534         39.6018         39.6018 
        1.07993         240.157         39.0701         39.0701 
        1.08607         238.542         38.5459         38.5459 
        1.09222         236.397         38.0308         38.0308 
        1.09836         235.018         37.5257         37.5257 
        1.10449         233.853         37.0305         37.0305 
        1.11063         232.449         36.5436         36.5436 
        1.11677         229.993         36.0656         36.0656 
         1.1229         229.825         35.5971         35.5971 
        1.12903         227.205         35.1365         35.1365 
        1.13518         225.845         34.6836         34.6836 
        1.14131         224.609          34.239          34.239 
        1.14745         222.847         33.8024         33.8024 
        1.15359         221.419         33.3734         33.3734 
        1.15973         220.397         32.9516         32.9516 
        1.16584         219.038          32.539          32.539 
        1.17197         217.861         32.1329         32.1329 
        1.17811         215.356         31.7325         31.7325 
        1.18424         214.432         31.3401         31.3401 
        1.19038         213.606         30.9531         30.9531 
        1.19652         211.254         30.5729         30.5729 
        1.20267         210.445          30.199          30.199 
        1.20881         209.186         29.8315         29.8315 
        1.21495         207.827         29.4707         29.4707 
        1.22108         206.626         29.1159         29.1159 
         1.2272         205.017         28.7678         28.7678 
        1.23334         203.452         28.4245         28.4245 
        1.23949         202.715         28.0861         28.0861 
        1.24562         201.101         27.7541         27.7541 
        1.25174         200.664         27.4279         27.4279 
        1.25789         198.622          27.106          27.106 
        1.26402          197.86         26.7898         26.7898 
        1.27014         196.623         26.4794         26.4794 
        1.27628         195.609          26.173          26.173 
        1.28244          193.65         25.8708         25.8708 
        1.28858         193.003         25.5738         25.5738 
        1.29471         191.493         25.2822         25.2822 
        1.30084          191.16         24.9953         24.9953 
        1.30697         189.435         24.7125         24.7125 
        1.31312         188.642         24.4336         24.4336 
        1.31925         187.389         24.1599         24.1599 
        1.32537         186.709         23.8907         23.8907 
        1.33151         184.668         23.6246         23.6246 
        1.33765         184.072         23.3627         23.3627 
        1.34378         183.153         23.1053         23.1053 
        1.34992         181.446         22.8517         22.8517 
        1.35606         180.715         22.6012         22.6012 
         1.3622         179.038          22.355          22.355 
        1.36833         178.917          22.113          22.113 
        1.37445         177.935         21.8747         21.8747 
        1.38059         175.927         21.6392         21.6392 
        1.38675         174.636         21.4066         21.4066 
        1.39288         174.224         21.1783         21.1783 
        1.39901         172.907         20.9535         20.9535 
        1.40515          171.85         20.7314         20.7314 
         1.4113         171.202         20.5126         20.5126 
        1.41742         169.932         20.2978         20.2978 
        1.42355         168.537         20.0857         20.0857 
         1.4297         167.796          19.876          19.876 
        1.43585         167.172         19.6693         19.6693 
        1.44198         165.828         19.4664         19.4664 
        1.44809         165.268         19.2667         19.2667 
        1.45423         164.201         19.0691         19.0691 
        1.46036         163.486         18.8746         18.8746 
        1.46649         161.999         18.6827         18.6827 
        1.47263         161.377         18.4933         18.4933 
        1.47877         160.289         18.3067         18.3067 
        1.48491         159.224         18.1223         18.1223 
        1.49104         157.913         17.9409         17.9409 
        1.49718         157.198         17.7618         17.7618 
        1.50333         156.123         17.5848         17.5848 
        1.50947         155.307         17.4106         17.4106 
         1.5156         154.382         17.2391         17.2391 
        1.52172           153.5         17.0698         17.0698 
        1.52787         152.723         16.9025         16.9025 
          1.534         152.121         16.7376         16.7376 
        1.54013         151.077          16.575          16.575 
        1.54627         150.204         16.4143         16.4143 
        1.55241         149.421         16.2558         16.2558 
        1.55855         148.391         16.0995         16.0995 
        1.56467          147.47         15.9457         15.9457 
         1.5708         146.783         15.7935         15.7935 
        1.57695         145.991         15.6431         15.6431 
        1.58308         144.926         15.4949         15.4949 
        1.58922         143.955         15.3486         15.3486 
        1.59535         143.147         15.2042         15.2042 
         1.6015         142.348         15.0614         15.0614 
        1.60764         141.425         14.9206         14.9206 
        1.61376          140.78         14.7819         14.7819 
        1.61989         139.838         14.6449         14.6449 
        1.62604          139.43         14.5093         14.5093 
        1.63218         138.198         14.3755         14.3755 
        1.63831         137.587         14.2437         14.2437 
        1.64444         136.652         14.1135         14.1135 
        1.65059         135.856         13.9846         13.9846 
        1.65673         135.005         13.8575         13.8575 
        1.66285         134.379         13.7323         13.7323 
        1.66898         133.633         13.6086         13.6086 
        1.67512         132.503         13.4861         13.4861 
        1.68127         132.041         13.3651         13.3651 
         1.6874         131.214         13.2458         13.2458 
        1.69353         130.576          13.128          13.128 
        1.69967          129.79         13.0114         13.0114 
        1.70581         129.011         12.8963         12.8963 
        1.71193         128.461         12.7829         12.7829 
        1.71806         127.468         12.6707         12.6707 
        1.72421         126.605         12.5596         12.5596 
        1.73035         126.218           12.45           12.45 
        1.73649         125.403         12.3417         12.3417 
        1.74262         124.454         12.2348         12.2348 
        1.74876          123.72         12.1291         12.1291 
        1.75489         123.449         12.0248         12.0248 
        1.76101         122.495         11.9218         11.9218 
        1.76715          121.85         11.8198         11.8198 
        1.77329         121.182         11.7189         11.7189 
        1.77943         120.198         11.6192         11.6192 
        1.78557         119.412         11.5207         11.5207 
        1.79171         118.775         11.4234         11.4234 
        1.79785         118.084         11.3272         11.3272 
        1.80399         117.461         11.2321         11.2321 
        1.81012         117.124         11.1382         11.1382 
        1.81625         116.048         11.0454         11.0454 
        1.82239         115.751         10.9535         10.9535 
        1.82853         114.862         10.8627         10.8627 
        1.83466          114.09         10.7731         10.7731 
        1.84078          113.64         10.6845         10.6845 
        1.84692          112.86         10.5968         10.5968 
        1.85306         112.214           10.51           10.51 
         1.8592         111.607         10.4242         10.4242 
        1.86533         110.861         10.3395         10.3395 
        1.87147         110.147         10.2556         10.2556 
