# k  (h/Mpc)    P(k)  (Mpc/h)^3    P_linear(k)  (Mpc/h)^3     P_NL(k)  ShotnoiseSubtracted = false
     0.00783031         5957.57         5996.66         5996.66 
       0.013688         6858.54         6979.87         6979.87 
       0.019231         6673.37         6730.94         6730.94 
      0.0249154         5965.61         5941.96         5941.96 
      0.0312784         4914.82         4922.22         4922.22 
      0.0375637         4042.75         4066.02         4066.02 
      0.0433917         3500.42         3492.24         3492.24 
      0.0492413         3100.01         3107.59         3107.59 
      0.0555754         2842.14         2831.92         2831.92 
      0.0619321         2572.94         2614.52         2614.52 
       0.067871         2394.47         2405.82         2405.82 
      0.0738098         2170.45         2169.53         2169.53 
      0.0800417         1914.64         1902.86         1902.86 
      0.0862327         1656.83         1649.08         1649.08 
      0.0921407         1456.48         1444.02         1444.02 
      0.0982031         1310.24         1284.94         1284.94 
       0.104506         1180.87         1172.64         1172.64 
       0.110769         1110.76         1100.06         1100.06 
       0.116806         1069.44         1047.92         1047.92 
       0.122832         1006.49         996.337         996.337 
       0.129052         946.544         932.825         932.825 
       0.135211          883.82         858.181         858.181 
       0.141259         799.899         779.629         779.629 
       0.147318         721.039         704.764         704.764 
       0.153489         662.777         640.155         640.155 
       0.159709         622.051         590.553         590.553 
       0.165845         574.187         555.845         555.845 
       0.171974         561.935         531.016         531.016 
       0.178125         539.711         510.371         510.371 
       0.184229         508.085         489.211         489.211 
        0.19034         490.265         464.576         464.576 
       0.196428         465.085         436.455         436.455 
       0.202534         427.182         406.598         406.598 
       0.208729         409.521         377.468         377.468 
       0.214876          387.45         352.133         352.133 
       0.220989         359.669         331.633         331.633 
       0.227147         350.133         315.537         315.537 
        0.23329         336.938         302.806         302.806 
       0.239377         328.845         291.799         291.799 
       0.245482         312.907         280.861         280.861 
       0.251667         298.747         268.959         268.959 
       0.257832         292.428         256.105         256.105 
       0.263955         274.071         242.878         242.878 
       0.270079         261.294         230.001         230.001 
        0.27624         248.668         218.152         218.152 
       0.282372         240.264         207.907         207.907 
        0.28843         237.084         199.308         199.308 
       0.294538         225.652         191.875         191.875 
       0.300721         216.852         185.111         185.111 
        0.30691         212.882         178.615         178.615 
       0.313033         203.185         172.116         172.116 
       0.319153         198.969         165.453         165.453 
       0.325316         191.771         158.667         158.667 
        0.33145         185.269         152.063         152.063 
       0.337538         178.337         145.875         145.875 
       0.343633         172.313         140.214         140.214 
       0.349808         166.815         135.048         135.048 
       0.355968          162.46         130.411         130.411 
       0.362074         158.394         126.174         126.174 
       0.368217         154.962         122.123         122.123 
       0.374374         150.847          118.16          118.16 
       0.380519          144.39         114.231         114.231 
       0.386598         141.113         110.389         110.389 
       0.392688         136.604         106.628         106.628 
        0.39888         133.824         102.957         102.957 
       0.405048         130.412         99.5162         99.5162 
       0.411186         127.966         96.3207         96.3207 
       0.417313          124.58         93.3472         93.3472 
       0.423458         121.304         90.5526         90.5526 
       0.429607         118.429         87.8908         87.8908 
       0.435692         116.358          85.346          85.346 
       0.441815          112.88          82.855          82.855 
       0.447964         109.139          80.413          80.413 
       0.454126         107.089         78.0285         78.0285 
       0.460267         105.964         75.7345         75.7345 
       0.466387         103.174         73.5479         73.5479 
        0.47254           101.8         71.4538         71.4538 
       0.478662         98.1537         69.4713         69.4713 
       0.484765         96.5498         67.5911         67.5911 
       0.490885         94.2834         65.7887         65.7887 
       0.497035         93.2826         64.0445         64.0445 
       0.503198         91.2125         62.3508         62.3508 
       0.509342         88.7476         60.7119         60.7119 
       0.515458         87.3188         59.1309         59.1309 
       0.521598         85.0885          57.595          57.595 
       0.527764         84.1284         56.1054         56.1054 
       0.533884         83.2407         54.6809         54.6809 
           0.54         80.8698         53.3126         53.3126 
       0.546137         78.8154         51.9942         51.9942 
       0.552299         77.4513         50.7207         50.7207 
       0.558452          75.954         49.4938         49.4938 
       0.564573         75.4588         48.3119         48.3119 
       0.570708         73.2243         47.1627         47.1627 
       0.576825         72.4071         46.0517         46.0517 
       0.582926         71.4725         44.9781         44.9781 
       0.589034         70.0423         43.9373         43.9373 
       0.595184         69.0323         42.9234         42.9234 
       0.601379         67.3823         41.9355         41.9355 
       0.607522         66.0722         40.9874         40.9874 
       0.613639         65.4393         40.0732         40.0732 
       0.619772         64.1336         39.1856         39.1856 
       0.625918         63.4105         38.3237         38.3237 
       0.632068         62.2812         37.4876         37.4876 
       0.638161         61.1462         36.6841         36.6841 
         0.6443         60.6697         35.8983         35.8983 
       0.650464         59.1991         35.1324         35.1324 
       0.656582         58.9211          34.394          34.394 
       0.662703         57.9817         33.6764         33.6764 
       0.668861          56.652         32.9752         32.9752 
       0.675024         56.3875         32.2935         32.2935 
       0.681124          55.536         31.6381         31.6381 
       0.687237         54.4319         30.9999         30.9999 
       0.693381         53.8489         30.3766         30.3766 
       0.699536          53.204         29.7697         29.7697 
       0.705665         52.3573         29.1821         29.1821 
       0.711789         51.5107          28.611          28.611 
       0.717957         50.7427         28.0513         28.0513 
        0.72409         50.1998         27.5098         27.5098 
       0.730186         49.8512         26.9858         26.9858 
       0.736317         48.9311         26.4727         26.4727 
       0.742472         48.2407          25.971          25.971 
       0.748622         47.4681         25.4827         25.4827 
        0.75476         46.9149         25.0081         25.0081 
       0.760888           46.73         24.5464         24.5464 
       0.767043         45.7078         24.0945         24.0945 
       0.773185         45.0865         23.6549         23.6549 
       0.779291          44.548         23.2289         23.2289 
       0.785407         43.9615         22.8127         22.8127 
       0.791564         43.8643         22.4042         22.4042 
       0.797719         42.9992         22.0059         22.0059 
       0.803834         42.6894         21.6199         21.6199 
       0.809972         42.1591         21.2418         21.2418 
       0.816124         41.6417         20.8719         20.8719 
       0.822261         41.0219         20.5119         20.5119 
       0.828378         40.8549         20.1614         20.1614 
       0.834502         40.2734         19.8189         19.8189 
       0.840667         39.9074         19.4822         19.4822 
       0.846816         39.3536         19.1542         19.1542 
       0.852925          38.946         18.8359         18.8359 
       0.859047         38.7661         18.5242         18.5242 
       0.865192           38.08         18.2185         18.2185 
       0.871341         37.6518         17.9196         17.9196 
       0.877463          37.279         17.6287         17.6287 
       0.883569         37.1232         17.3451         17.3451 
       0.889708         36.6563         17.0662         17.0662 
       0.895864         36.2795         16.7928         16.7928 
       0.902008         35.8761          16.526          16.526 
       0.908149         35.4595         16.2651         16.2651 
       0.914301         35.1481         16.0095         16.0095 
       0.920448          34.944         15.7596         15.7596 
       0.926574         34.3256          15.516          15.516 
       0.932687         34.0394          15.278          15.278 
       0.938823         33.6345         15.0441         15.0441 
       0.944975         33.2767         14.8147         14.8147 
       0.951105         33.0387         14.5908         14.5908 
       0.957225         32.7844          14.372          14.372 
       0.963368         32.4235         14.1569         14.1569 
       0.969511         32.1256         13.9462         13.9462 
       0.975621         31.8639         13.7409         13.7409 
       0.981748         31.5028         13.5393         13.5393 
       0.987916         31.2337         13.3404         13.3404 
        0.99406         30.9373         13.1463         13.1463 
        1.00019         30.6621         12.9564         12.9564 
        1.00632         30.4093         12.7704         12.7704 
        1.01246         30.1234         12.5879         12.5879 
        1.01859         29.8719         12.4092         12.4092 
        1.02471         29.5458         12.2342         12.2342 
        1.03085         29.3603         12.0619         12.0619 
        1.03698         29.1613         11.8934         11.8934 
        1.04314         28.8768         11.7273         11.7273 
        1.04929         28.4877         11.5648         11.5648 
        1.05541         28.4299         11.4061         11.4061 
        1.06154         28.1811         11.2499         11.2499 
        1.06769         27.7584         11.0964         11.0964 
        1.07382         27.6268         10.9463         10.9463 
        1.07993         27.4153         10.7994         10.7994 
        1.08607         27.1635         10.6545         10.6545 
        1.09222         26.9832         10.5121         10.5121 
        1.09836         26.7124         10.3725         10.3725 
        1.10449         26.5878         10.2356         10.2356 
        1.11063         26.2956          10.101          10.101 
        1.11677         26.2272          9.9689          9.9689 
         1.1229          25.934         9.83939         9.83939 
        1.12903         25.7154         9.71207         9.71207 
        1.13518         25.6458         9.58689         9.58689 
        1.14131         25.3677         9.46399         9.46399 
        1.14745         25.1077         9.34332         9.34332 
        1.15359         24.8369         9.22473         9.22473 
        1.15973         24.7593         9.10815         9.10815 
        1.16584         24.5568         8.99411         8.99411 
        1.17197          24.261         8.88185         8.88185 
        1.17811         24.1457         8.77117         8.77117 
        1.18424         23.8196          8.6627          8.6627 
        1.19038         23.7473         8.55575         8.55575 
        1.19652         23.5524         8.45065         8.45065 
        1.20267         23.4372         8.34732         8.34732 
        1.20881         23.2312         8.24573         8.24573 
        1.21495         23.1409         8.14599         8.14599 
        1.22108         23.0232         8.04792         8.04792 
         1.2272         22.7857          7.9517          7.9517 
        1.23334         22.6527         7.85682         7.85682 
        1.23949         22.4665         7.76327         7.76327 
        1.24562         22.2609          7.6715          7.6715 
        1.25174         22.1344         7.58134         7.58134 
        1.25789         22.0307         7.49236         7.49236 
        1.26402         21.8718         7.40496         7.40496 
        1.27014         21.7331         7.31916         7.31916 
        1.27628         21.5073         7.23447         7.23447 
        1.28244         21.5023         7.15095         7.15095 
        1.28858         21.2557         7.06886         7.06886 
        1.29471         21.0761         6.98824         6.98824 
        1.30084          20.935         6.90896         6.90896 
        1.30697         20.8428         6.83078         6.83078 
        1.31312         20.6615          6.7537          6.7537 
        1.31925         20.5125         6.67805         6.67805 
        1.32537         20.3632         6.60363         6.60363 
        1.33151         20.2057         6.53008         6.53008 
        1.33765          20.179         6.45769         6.45769 
        1.34378         20.0546         6.38655         6.38655 
        1.34992         19.8598         6.31642         6.31642 
        1.35606         19.7137          6.2472          6.2472 
         1.3622         19.6157         6.17914         6.17914 
        1.36833         19.5372         6.11225         6.11225 
        1.37445         19.3624         6.04639         6.04639 
        1.38059         19.2384         5.98129         5.98129 
        1.38675         19.1221         5.91699         5.91699 
        1.39288         18.9844          5.8539          5.8539 
        1.39901         18.8546         5.79175         5.79175 
        1.40515         18.7697         5.73036         5.73036 
         1.4113         18.6928         5.66989         5.66989 
        1.41742         18.5747         5.61052         5.61052 
        1.42355         18.3943         5.55189         5.55189 
         1.4297         18.3039         5.49391         5.49391 
        1.43585          18.185         5.43679         5.43679 
        1.44198         18.1159          5.3807          5.3807 
        1.44809         17.9798          5.3255          5.3255 
        1.45423         17.8803         5.27088         5.27088 
        1.46036          17.796         5.21712         5.21712 
        1.46649         17.6656         5.16408         5.16408 
        1.47263         17.5413         5.11175         5.11175 
        1.47877         17.4466         5.06015         5.06015 
        1.48491           17.36         5.00919         5.00919 
        1.49104         17.2361         4.95904         4.95904 
        1.49718         17.2135         4.90953         4.90953 
        1.50333         17.1045         4.86062         4.86062 
        1.50947         16.9542         4.81248         4.81248 
         1.5156         16.8914         4.76505         4.76505 
        1.52172         16.7748         4.71826         4.71826 
        1.52787         16.7182         4.67201         4.67201 
          1.534         16.5988         4.62643         4.62643 
        1.54013         16.5583          4.5815          4.5815 
        1.54627         16.3954         4.53709         4.53709 
        1.55241         16.3025         4.49326         4.49326 
        1.55855         16.2363         4.45006         4.45006 
        1.56467         16.1504         4.40756         4.40756 
         1.5708         16.0612         4.36548         4.36548 
        1.57695         16.0011          4.3239          4.3239 
        1.58308         15.8454         4.28295         4.28295 
        1.58922         15.7768          4.2425          4.2425 
        1.59535         15.6968         4.20258         4.20258 
         1.6015         15.6232         4.16313         4.16313 
        1.60764         15.5359          4.1242          4.1242 
        1.61376         15.4573         4.08587         4.08587 
        1.61989         15.3157           4.048           4.048 
        1.62604         15.2643         4.01052         4.01052 
        1.63218         15.1983         3.97354         3.97354 
        1.63831         15.1042         3.93711         3.93711 
        1.64444         15.0294         3.90112         3.90112 
        1.65059         14.9537         3.86549         3.86549 
        1.65673         14.8775         3.83035         3.83035 
        1.66285          14.794         3.79574         3.79574 
        1.66898         14.7194         3.76154         3.76154 
        1.67512         14.6946          3.7277          3.7277 
        1.68127         14.5929         3.69424         3.69424 
         1.6874          14.522         3.66127         3.66127 
        1.69353         14.4113         3.62872         3.62872 
        1.69967         14.3386         3.59649         3.59649 
        1.70581         14.2807         3.56466         3.56466 
        1.71193         14.1962         3.53333         3.53333 
        1.71806         14.1371         3.50232         3.50232 
        1.72421         14.0688         3.47161         3.47161 
        1.73035         13.9891         3.44131         3.44131 
        1.73649         13.9146         3.41137         3.41137 
        1.74262         13.8468         3.38182         3.38182 
        1.74876          13.783         3.35259         3.35259 
        1.75489         13.7083         3.32377         3.32377 
        1.76101         13.6254          3.2953          3.2953 
        1.76715         13.5869         3.26712         3.26712 
        1.77329         13.4952         3.23923         3.23923 
        1.77943          13.448         3.21166         3.21166 
        1.78557         13.4053         3.18444         3.18444 
        1.79171         13.3062         3.15754         3.15754 
        1.79785         13.2344         3.13094         3.13094 
        1.80399         13.1574         3.10465         3.10465 
        1.81012         13.1292          3.0787          3.0787 
        1.81625         13.0473         3.05306         3.05306 
        1.82239         12.9801         3.02767         3.02767 
        1.82853         12.9254         3.00257         3.00257 
        1.83466         12.8474         2.97779         2.97779 
        1.84078         12.7952         2.95331         2.95331 
        1.84692         12.7675         2.92907         2.92907 
        1.85306          12.689         2.90506         2.90506 
         1.8592          12.651         2.88137         2.88137 
        1.86533         12.5535         2.85795         2.85795 
        1.87147         12.4858         2.83476         2.83476 
        1.87761         12.4439         2.81182         2.81182 
