# k  (h/Mpc)    Pcb(k)  (Mpc/h)^3    Pcb_linear(k) (Mpc/h)^3    Pcb_NL(k) (Mpc/h)^3   ShotnoiseSubtracted = false
     0.00783031         18755.5         18851.2         18851.2 
       0.013688         21317.1         21916.9         21916.9 
       0.019231         20793.4         21127.9         21127.9 
      0.0249154           18737         18648.2         18648.2 
      0.0312784         15324.9         15446.3         15446.3 
      0.0375637         12570.1         12758.7         12758.7 
      0.0433917         10932.9         10957.8         10957.8 
      0.0492413         9664.21         9750.65         9750.65 
      0.0555754         8869.54         8885.51         8885.51 
      0.0619321         7939.73         8203.27         8203.27 
       0.067871         7420.43         7548.38         7548.38 
      0.0738098         6779.08         6806.96         6806.96 
      0.0800417         5993.69         5970.22         5970.22 
      0.0862327         5203.79         5173.94         5173.94 
      0.0921407         4622.86         4530.57         4530.57 
      0.0982031         4195.48         4031.43         4031.43 
       0.104506         3770.44          3679.1          3679.1 
       0.110769          3553.6         3451.38         3451.38 
       0.116806         3424.74         3287.77         3287.77 
       0.122832          3225.9         3125.93         3125.93 
       0.129052          3014.1         2926.66         2926.66 
       0.135211         2870.21         2692.47         2692.47 
       0.141259         2600.09         2446.02         2446.02 
       0.147318         2371.19         2211.13         2211.13 
       0.153489         2203.23         2008.42         2008.42 
       0.159709         2108.02          1852.8          1852.8 
       0.165845         1940.63          1743.9          1743.9 
       0.171974         1900.08            1666            1666 
       0.178125         1841.62         1601.23         1601.23 
       0.184229         1700.87         1534.84         1534.84 
        0.19034         1664.95         1457.56         1457.56 
       0.196428         1602.61         1369.33         1369.33 
       0.202534          1487.8         1275.65         1275.65 
       0.208729          1449.7         1184.26         1184.26 
       0.214876         1372.47         1104.77         1104.77 
       0.220989         1299.64         1040.46         1040.46 
       0.227147         1263.37         989.963         989.963 
        0.23329         1214.45         950.016         950.016 
       0.239377         1206.53         915.483         915.483 
       0.245482         1146.78         881.167         881.167 
       0.251667         1103.44         843.823         843.823 
       0.257832         1081.55         803.498         803.498 
       0.263955          1027.2             762             762 
       0.270079         993.385         721.599         721.599 
        0.27624         950.798         684.425         684.425 
       0.282372         935.751         652.281         652.281 
        0.28843          918.75         625.303         625.303 
       0.294538         874.772         601.982         601.982 
       0.300721         856.355         580.761         580.761 
        0.30691         834.948          560.38          560.38 
       0.313033         799.892         539.993         539.993 
       0.319153         789.684         519.088         519.088 
       0.325316          777.76         497.796         497.796 
        0.33145         757.933         477.078         477.078 
       0.337538         730.917         457.664         457.664 
       0.343633           712.7         439.903         439.903 
       0.349808         697.361         423.698         423.698 
       0.355968         683.347         409.148         409.148 
       0.362074         658.789         395.854         395.854 
       0.368217         655.901         383.145         383.145 
       0.374374          645.78         370.709         370.709 
       0.380519         620.699         358.384         358.384 
       0.386598         615.426         346.332         346.332 
       0.392688         599.283          334.53          334.53 
        0.39888         585.762         323.014         323.014 
       0.405048         572.283         312.218         312.218 
       0.411186         571.681         302.193         302.193 
       0.417313         564.676         292.864         292.864 
       0.423458         549.212         284.096         284.096 
       0.429607         532.929         275.745         275.745 
       0.435692          526.31         267.762         267.762 
       0.441815         516.556         259.946         259.946 
       0.447964          507.37         252.284         252.284 
       0.454126         501.442         244.804         244.804 
       0.460267           493.6         237.607         237.607 
       0.466387         483.151         230.746         230.746 
        0.47254         477.369         224.176         224.176 
       0.478662          468.16         217.957         217.957 
       0.484765         461.538         212.058         212.058 
       0.490885         457.881         206.403         206.403 
       0.497035         446.957         200.931         200.931 
       0.503198         446.237         195.617         195.617 
       0.509342         437.226         190.475         190.475 
       0.515458         428.452         185.515         185.515 
       0.521598         425.239         180.696         180.696 
       0.527764         416.576         176.023         176.023 
       0.533884         412.192         171.554         171.554 
           0.54         408.167         167.261         167.261 
       0.546137         400.479         163.125         163.125 
       0.552299         398.528         159.129         159.129 
       0.558452         392.039          155.28          155.28 
       0.564573         389.663         151.572         151.572 
       0.570708          383.73         147.966         147.966 
       0.576825         376.588         144.481         144.481 
       0.582926         375.438         141.112         141.112 
       0.589034         368.358         137.847         137.847 
       0.595184         365.634         134.666         134.666 
       0.601379         359.542         131.567         131.567 
       0.607522         352.762         128.592         128.592 
       0.613639         351.775         125.724         125.724 
       0.619772         350.075         122.939         122.939 
       0.625918          342.76         120.235         120.235 
       0.632068         341.361         117.612         117.612 
       0.638161         337.634         115.091         115.091 
         0.6443         332.685         112.626         112.626 
       0.650464         329.601         110.223         110.223 
       0.656582         326.108         107.906         107.906 
       0.662703         324.177         105.655         105.655 
       0.668861         318.279         103.455         103.455 
       0.675024         317.171         101.316         101.316 
       0.681124         311.106         99.2601         99.2601 
       0.687237         310.389         97.2579         97.2579 
       0.693381         305.448         95.3024         95.3024 
       0.699536         305.062         93.3981         93.3981 
       0.705665         300.582         91.5546         91.5546 
       0.711789          298.23         89.7629         89.7629 
       0.717957         295.539         88.0071         88.0071 
        0.72409         291.651         86.3081         86.3081 
       0.730186         292.441         84.6642         84.6642 
       0.736317         287.317         83.0543         83.0543 
       0.742472         285.087         81.4802         81.4802 
       0.748622         283.068         79.9485         79.9485 
        0.75476         280.747         78.4595         78.4595 
       0.760888         278.122         77.0108         77.0108 
       0.767043         274.938          75.593          75.593 
       0.773185         272.622         74.2139         74.2139 
       0.779291         270.167         72.8772         72.8772 
       0.785407         268.176         71.5717         71.5717 
       0.791564         266.594           70.29           70.29 
       0.797719         262.284         69.0404         69.0404 
       0.803834          262.86         67.8293         67.8293 
       0.809972         258.701          66.643          66.643 
       0.816124         256.188         65.4826         65.4826 
       0.822261         254.278         64.3531         64.3531 
       0.828378         253.076         63.2536         63.2536 
       0.834502         249.423          62.179          62.179 
       0.840667          249.42         61.1225         61.1225 
       0.846816         245.242         60.0936         60.0936 
       0.852925         245.464          59.095          59.095 
       0.859047         242.621          58.117          58.117 
       0.865192         241.542          57.158          57.158 
       0.871341         238.691         56.2201         56.2201 
       0.877463          237.32         55.3076         55.3076 
       0.883569         235.935         54.4177         54.4177 
       0.889708         233.827         53.5429         53.5429 
       0.895864         230.656         52.6851         52.6851 
       0.902008         229.554          51.848          51.848 
       0.908149         227.352         51.0296         51.0296 
       0.914301         226.236         50.2276         50.2276 
       0.920448         224.516         49.4436         49.4436 
       0.926574         222.548         48.6791         48.6791 
       0.932687         222.336         47.9325         47.9325 
       0.938823         219.704         47.1989         47.1989 
       0.944975         219.368         46.4789         46.4789 
       0.951105          216.81         45.7766         45.7766 
       0.957225         214.789           45.09           45.09 
       0.963368         214.902         44.4152         44.4152 
       0.969511         211.378         43.7542         43.7542 
       0.975621         209.263         43.1102         43.1102 
       0.981748         209.193         42.4775         42.4775 
       0.987916         207.926         41.8536         41.8536 
        0.99406         205.778         41.2445         41.2445 
        1.00019         204.507         40.6488         40.6488 
        1.00632         203.595         40.0654         40.0654 
        1.01246         202.037         39.4926         39.4926 
        1.01859         199.812          38.932          38.932 
        1.02471         198.385         38.3829         38.3829 
        1.03085         197.241         37.8425         37.8425 
        1.03698         196.684         37.3137         37.3137 
        1.04314         195.581         36.7928         36.7928 
        1.04929         194.069          36.283          36.283 
        1.05541         193.263         35.7849         35.7849 
        1.06154         191.296          35.295          35.295 
        1.06769         190.028         34.8135         34.8135 
        1.07382         188.303         34.3426         34.3426 
        1.07993         187.398         33.8814         33.8814 
        1.08607         186.598         33.4268         33.4268 
        1.09222         184.718         32.9802         32.9802 
        1.09836         183.891         32.5422         32.5422 
        1.10449         182.866         32.1127         32.1127 
        1.11063          181.35         31.6905         31.6905 
        1.11677         179.888          31.276          31.276 
         1.1229         179.735         30.8697         30.8697 
        1.12903         177.465         30.4702         30.4702 
        1.13518         176.627         30.0775         30.0775 
        1.14131         175.832         29.6919         29.6919 
        1.14745         174.021         29.3133         29.3133 
        1.15359         173.113         28.9413         28.9413 
        1.15973         172.431         28.5755         28.5755 
        1.16584         171.214         28.2177         28.2177 
        1.17197          170.48         27.8655         27.8655 
        1.17811         168.731         27.5183         27.5183 
        1.18424         167.824          27.178          27.178 
        1.19038         167.194         26.8424         26.8424 
        1.19652         165.149         26.5127         26.5127 
        1.20267         164.577         26.1885         26.1885 
        1.20881         163.412         25.8698         25.8698 
        1.21495         163.035         25.5569         25.5569 
        1.22108         161.695         25.2492         25.2492 
         1.2272         160.742         24.9473         24.9473 
        1.23334         159.524         24.6497         24.6497 
        1.23949         158.772         24.3561         24.3561 
        1.24562         157.647         24.0682         24.0682 
        1.25174         157.137         23.7854         23.7854 
        1.25789         155.665         23.5062         23.5062 
        1.26402         155.055          23.232          23.232 
        1.27014         154.221         22.9628         22.9628 
        1.27628         153.501         22.6971         22.6971 
        1.28244         151.977         22.4351         22.4351 
        1.28858         151.211         22.1775         22.1775 
        1.29471         150.009         21.9246         21.9246 
        1.30084         149.536         21.6759         21.6759 
        1.30697         148.428         21.4306         21.4306 
        1.31312         147.725         21.1887         21.1887 
        1.31925         146.541         20.9514         20.9514 
        1.32537          146.14         20.7179         20.7179 
        1.33151         144.766         20.4872         20.4872 
        1.33765         144.219         20.2601         20.2601 
        1.34378         143.648         20.0369         20.0369 
        1.34992          142.33         19.8169         19.8169 
        1.35606         141.776         19.5997         19.5997 
         1.3622         140.654         19.3862         19.3862 
        1.36833         140.019         19.1763         19.1763 
        1.37445         139.446         18.9697         18.9697 
        1.38059         138.136         18.7654         18.7654 
        1.38675         137.402         18.5637         18.5637 
        1.39288         136.585         18.3658         18.3658 
        1.39901         135.542         18.1708         18.1708 
        1.40515         134.981         17.9782         17.9782 
         1.4113         134.334         17.7885         17.7885 
        1.41742         133.509         17.6022         17.6022 
        1.42355          132.62         17.4182         17.4182 
         1.4297         131.859         17.2364         17.2364 
        1.43585         131.414         17.0571         17.0571 
        1.44198         130.164         16.8812         16.8812 
        1.44809         129.731          16.708          16.708 
        1.45423         129.052         16.5366         16.5366 
        1.46036         128.239         16.3679         16.3679 
        1.46649         127.189         16.2016         16.2016 
        1.47263         126.792         16.0374         16.0374 
        1.47877         125.968         15.8755         15.8755 
        1.48491         125.008         15.7156         15.7156 
        1.49104         124.113         15.5583         15.5583 
        1.49718         123.672         15.4029         15.4029 
        1.50333         122.575         15.2495         15.2495 
        1.50947         122.309         15.0984         15.0984 
         1.5156         121.348         14.9497         14.9497 
        1.52172          120.67         14.8029         14.8029 
        1.52787         120.272         14.6577         14.6577 
          1.534         119.567         14.5147         14.5147 
        1.54013         118.635         14.3738         14.3738 
        1.54627         118.078         14.2345         14.2345 
        1.55241         117.476         14.0969         14.0969 
        1.55855         116.706         13.9614         13.9614 
        1.56467         116.129         13.8281         13.8281 
         1.5708         115.269         13.6961         13.6961 
        1.57695         114.899         13.5656         13.5656 
        1.58308         113.908         13.4371         13.4371 
        1.58922         113.377         13.3102         13.3102 
        1.59535         112.848          13.185          13.185 
         1.6015         111.995         13.0612         13.0612 
        1.60764         111.349         12.9391         12.9391 
        1.61376         110.893         12.8188         12.8188 
        1.61989         110.317            12.7            12.7 
        1.62604         109.555         12.5824         12.5824 
        1.63218         109.009         12.4664         12.4664 
        1.63831         108.317         12.3521         12.3521 
        1.64444         107.462         12.2392         12.2392 
        1.65059         107.117         12.1274         12.1274 
        1.65673         106.599         12.0172         12.0172 
        1.66285         106.212         11.9086         11.9086 
        1.66898         105.364         11.8013         11.8013 
        1.67512         104.382         11.6951         11.6951 
        1.68127         104.307         11.5901         11.5901 
         1.6874         103.662         11.4867         11.4867 
        1.69353         102.999         11.3846         11.3846 
        1.69967         102.413         11.2834         11.2834 
        1.70581         101.857         11.1836         11.1836 
        1.71193         101.354         11.0853         11.0853 
        1.71806         100.364          10.988          10.988 
        1.72421         99.9462         10.8917         10.8917 
        1.73035         99.5332         10.7966         10.7966 
        1.73649         99.0371         10.7027         10.7027 
        1.74262         98.3256           10.61           10.61 
        1.74876         97.6639         10.5183         10.5183 
        1.75489         97.6358         10.4278         10.4278 
        1.76101         96.8178         10.3385         10.3385 
        1.76715         96.1169         10.2501         10.2501 
        1.77329         95.6143         10.1626         10.1626 
        1.77943         95.0575         10.0761         10.0761 
        1.78557         94.6258         9.99073         9.99073 
        1.79171         93.9789         9.90632         9.90632 
        1.79785         93.4179         9.82287         9.82287 
        1.80399         92.8741          9.7404          9.7404 
        1.81012         92.4039         9.65898         9.65898 
        1.81625         91.8116         9.57852         9.57852 
        1.82239         91.5176         9.49886         9.49886 
        1.82853         90.7123         9.42013         9.42013 
        1.83466         90.0609         9.34238         9.34238 
        1.84078         89.9532         9.26558         9.26558 
        1.84692         89.5158         9.18952         9.18952 
        1.85306         88.9149         9.11421         9.11421 
         1.8592         88.5011         9.03986         9.03986 
        1.86533         87.9415         8.96639         8.96639 
        1.87147         87.3903         8.89364         8.89364 
