# k  (h/Mpc)    Pcb(k)  (Mpc/h)^3    Pcb_linear(k) (Mpc/h)^3    Pcb_NL(k) (Mpc/h)^3   ShotnoiseSubtracted = false
     0.00783031         8957.03         9011.68         9011.68 
       0.013688         10274.8         10486.2         10486.2 
       0.019231         10005.4         10111.3         10111.3 
      0.0249154         8965.71         8925.73         8925.73 
      0.0312784         7371.84         7393.72         7393.72 
      0.0375637         6058.34         6107.52         6107.52 
      0.0433917         5253.19          5245.6          5245.6 
      0.0492413         4649.25         4667.79         4667.79 
      0.0555754         4265.42          4253.7          4253.7 
      0.0619321         3847.75         3927.14         3927.14 
       0.067871          3586.9         3613.65         3613.65 
      0.0738098          3257.5         3258.73         3258.73 
      0.0800417         2876.08         2858.17         2858.17 
      0.0862327         2490.16         2476.97         2476.97 
      0.0921407         2194.57         2168.97         2168.97 
      0.0982031         1979.22         1930.02         1930.02 
       0.104506          1781.4         1761.34         1761.34 
       0.110769          1676.7         1652.33         1652.33 
       0.116806          1616.3         1574.01         1574.01 
       0.122832         1519.99         1496.53         1496.53 
       0.129052          1428.1         1401.13         1401.13 
       0.135211         1340.64         1289.01         1289.01 
       0.141259         1213.36         1171.02         1171.02 
       0.147318         1095.83         1058.57         1058.57 
       0.153489         1010.49         961.529         961.529 
       0.159709         953.946         887.024         887.024 
       0.165845         878.487         834.892         834.892 
       0.171974         861.734         797.598         797.598 
       0.178125         829.288         766.589         766.589 
       0.184229         776.031         734.806         734.806 
        0.19034         751.706         697.804         697.804 
       0.196428         716.428         655.565         655.565 
       0.202534         658.417          610.72          610.72 
       0.208729         635.776         566.966         566.966 
       0.214876         602.001          528.91          528.91 
       0.220989         560.569         498.121         498.121 
       0.227147         546.449         473.945         473.945 
        0.23329         525.884         454.821         454.821 
       0.239377         516.047         438.289         438.289 
       0.245482          490.01          421.86          421.86 
       0.251667         468.938         403.981         403.981 
       0.257832         460.264         384.676         384.676 
       0.263955         432.159         364.809         364.809 
       0.270079         413.287         345.467         345.467 
        0.27624         394.185         327.669         327.669 
       0.282372         382.908         312.281         312.281 
        0.28843          378.73         299.365         299.365 
       0.294538         359.442           288.2           288.2 
       0.300721         347.233         278.041         278.041 
        0.30691         340.969         268.283         268.283 
       0.313033         324.927         258.523         258.523 
       0.319153         318.609         248.514         248.514 
       0.325316          309.98         238.321         238.321 
        0.33145         300.747         228.402         228.402 
       0.337538         289.226         219.108         219.108 
       0.343633         279.661         210.604         210.604 
       0.349808         271.618         202.846         202.846 
       0.355968         265.522          195.88          195.88 
       0.362074         257.318         189.516         189.516 
       0.368217         253.676         183.432         183.432 
       0.374374          247.37         177.478         177.478 
       0.380519         236.992         171.577         171.577 
       0.386598         232.857         165.807         165.807 
       0.392688         226.018         160.157         160.157 
        0.39888         220.818         154.643         154.643 
       0.405048         215.569         149.475         149.475 
       0.411186         213.272         144.676         144.676 
       0.417313         208.529         140.209         140.209 
       0.423458         202.995         136.012         136.012 
       0.429607         197.462         132.013         132.013 
       0.435692         193.996         128.192         128.192 
       0.441815         189.734          124.45          124.45 
       0.447964         183.866         120.782         120.782 
       0.454126         180.871           117.2           117.2 
       0.460267         178.567         113.755         113.755 
       0.466387         174.253          110.47          110.47 
        0.47254         171.995         107.325         107.325 
       0.478662         166.583         104.348         104.348 
       0.484765         164.152         101.523         101.523 
       0.490885          161.33         98.8161         98.8161 
       0.497035         159.143         96.1961         96.1961 
       0.503198         156.793         93.6521         93.6521 
       0.509342         152.605         91.1905         91.1905 
       0.515458         150.206         88.8158         88.8158 
       0.521598         146.512         86.5088         86.5088 
       0.527764         145.125         84.2715         84.2715 
       0.533884         143.991         82.1319         82.1319 
           0.54         140.303         80.0766         80.0766 
       0.546137         137.006         78.0963         78.0963 
       0.552299         135.226         76.1834         76.1834 
       0.558452         132.817         74.3407         74.3407 
       0.564573         131.997         72.5654         72.5654 
       0.570708         128.482         70.8393         70.8393 
       0.576825         126.794         69.1705         69.1705 
       0.582926          125.39         67.5579         67.5579 
       0.589034         123.191         65.9947         65.9947 
       0.595184         121.782         64.4718         64.4718 
       0.601379         119.323         62.9879         62.9879 
       0.607522         116.788         61.5638         61.5638 
       0.613639         115.864         60.1908         60.1908 
       0.619772         114.187         58.8575         58.8575 
       0.625918         113.175         57.5629         57.5629 
       0.632068         110.512         56.3072         56.3072 
       0.638161         109.291         55.1003         55.1003 
         0.6443         108.522           53.92           53.92 
       0.650464         106.119         52.7696         52.7696 
       0.656582         105.562         51.6605         51.6605 
       0.662703           104.2         50.5827         50.5827 
       0.668861         101.967         49.5294         49.5294 
       0.675024         101.857         48.5054         48.5054 
       0.681124         100.091         47.5211         47.5211 
       0.687237         98.6232         46.5625         46.5625 
       0.693381          97.511         45.6263         45.6263 
       0.699536         96.4041         44.7146         44.7146 
       0.705665         95.1421          43.832          43.832 
       0.711789         93.7248         42.9742         42.9742 
       0.717957         92.5882         42.1337         42.1337 
        0.72409         91.6093         41.3203         41.3203 
       0.730186         91.3111         40.5333         40.5333 
       0.736317         89.8486         39.7625         39.7625 
       0.742472         88.3064         39.0089         39.0089 
       0.748622          86.951         38.2756         38.2756 
        0.75476         87.0241         37.5627         37.5627 
       0.760888         86.1091         36.8691         36.8691 
       0.767043         84.3759         36.1904         36.1904 
       0.773185         83.2838         35.5301         35.5301 
       0.779291         82.4045         34.8902         34.8902 
       0.785407         81.5998         34.2651         34.2651 
       0.791564         81.0686         33.6515         33.6515 
       0.797719         79.7908         33.0533         33.0533 
       0.803834         79.4817         32.4735         32.4735 
       0.809972          78.734         31.9056         31.9056 
       0.816124         77.4979           31.35           31.35 
       0.822261         76.6336         30.8092         30.8092 
       0.828378         76.4192         30.2829         30.2829 
       0.834502         75.3911         29.7684         29.7684 
       0.840667         74.7989         29.2626         29.2626 
       0.846816         73.9776           28.77           28.77 
       0.852925         73.1088         28.2919         28.2919 
       0.859047         72.6599         27.8237         27.8237 
       0.865192         71.7771         27.3646         27.3646 
       0.871341         71.0543         26.9156         26.9156 
       0.877463         70.4268         26.4787         26.4787 
       0.883569         70.2674         26.0526         26.0526 
       0.889708         69.5095         25.6338         25.6338 
       0.895864         68.9132         25.2232         25.2232 
       0.902008         68.0489         24.8224         24.8224 
       0.908149         67.1924         24.4306         24.4306 
       0.914301          66.962         24.0466         24.0466 
       0.920448          66.831         23.6713         23.6713 
       0.926574         65.3399         23.3053         23.3053 
       0.932687         65.1412         22.9478         22.9478 
       0.938823         64.6264         22.5966         22.5966 
       0.944975         63.8295         22.2519         22.2519 
       0.951105          63.272         21.9157         21.9157 
       0.957225         63.0646          21.587          21.587 
       0.963368         62.3621         21.2639         21.2639 
       0.969511         61.9276         20.9475         20.9475 
       0.975621         61.2183         20.6391         20.6391 
       0.981748         60.7412         20.3362         20.3362 
       0.987916         60.2372         20.0375         20.0375 
        0.99406         60.0254         19.7459         19.7459 
        1.00019         59.2182         19.4607         19.4607 
        1.00632         58.7319         19.1814         19.1814 
        1.01246         58.3886         18.9072         18.9072 
        1.01859         58.0885         18.6388         18.6388 
        1.02471         57.5235         18.3759         18.3759 
        1.03085         56.9849         18.1172         18.1172 
        1.03698         56.5945         17.8641         17.8641 
        1.04314         56.1361         17.6147         17.6147 
        1.04929          55.695         17.3706         17.3706 
        1.05541         55.3227         17.1322         17.1322 
        1.06154         54.9066         16.8976         16.8976 
        1.06769         54.4442         16.6671         16.6671 
        1.07382         53.9055         16.4416         16.4416 
        1.07993         53.7289         16.2208         16.2208 
        1.08607          53.281         16.0032         16.0032 
        1.09222         53.0146         15.7894         15.7894 
        1.09836         52.5429         15.5797         15.5797 
        1.10449         52.1982          15.374          15.374 
        1.11063         51.7506         15.1719         15.1719 
        1.11677         51.5321         14.9735         14.9735 
         1.1229         50.9814          14.779          14.779 
        1.12903         50.7707         14.5877         14.5877 
        1.13518         50.4928         14.3997         14.3997 
        1.14131         50.0329         14.2151         14.2151 
        1.14745          49.739         14.0338         14.0338 
        1.15359         49.0985         13.8557         13.8557 
        1.15973         49.0975         13.6806         13.6806 
        1.16584         48.6999         13.5093         13.5093 
        1.17197         48.2826         13.3407         13.3407 
        1.17811         47.9802         13.1745         13.1745 
        1.18424         47.3745         13.0115         13.0115 
        1.19038          47.278         12.8509         12.8509 
        1.19652         47.0245          12.693          12.693 
        1.20267          46.619         12.5378         12.5378 
        1.20881         46.3288         12.3852         12.3852 
        1.21495         46.0699         12.2354         12.2354 
        1.22108          45.959         12.0881         12.0881 
         1.2272         45.4132         11.9436         11.9436 
        1.23334         45.2444         11.8011         11.8011 
        1.23949         44.9281         11.6606         11.6606 
        1.24562         44.5802         11.5227         11.5227 
        1.25174         44.3324         11.3873         11.3873 
        1.25789         44.1755         11.2537         11.2537 
        1.26402         43.8397         11.1224         11.1224 
        1.27014         43.6679         10.9935         10.9935 
        1.27628         43.2181         10.8663         10.8663 
        1.28244         43.1973         10.7409         10.7409 
        1.28858         42.7695         10.6176         10.6176 
        1.29471         42.4186         10.4965         10.4965 
        1.30084         42.0324         10.3774         10.3774 
        1.30697         42.1062           10.26           10.26 
        1.31312         41.7544         10.1442         10.1442 
        1.31925         41.3945         10.0306         10.0306 
        1.32537         41.1722         9.91878         9.91878 
        1.33151         40.9083         9.80831         9.80831 
        1.33765          40.731         9.69958         9.69958 
        1.34378         40.4933         9.59272         9.59272 
        1.34992         40.2371         9.48739         9.48739 
        1.35606         39.8907         9.38342         9.38342 
         1.3622         39.7761         9.28118         9.28118 
        1.36833         39.6024         9.18072         9.18072 
        1.37445          39.186         9.08179         9.08179 
        1.38059         39.0682         8.98401         8.98401 
        1.38675         38.7249         8.88744         8.88744 
        1.39288         38.6413         8.79266         8.79266 
        1.39901         38.2932         8.69932         8.69932 
        1.40515         38.1749         8.60711         8.60711 
         1.4113         38.0451         8.51628         8.51628 
        1.41742         37.7372         8.42711         8.42711 
        1.42355          37.521         8.33904         8.33904 
         1.4297         37.3929         8.25196         8.25196 
        1.43585         37.1226         8.16617         8.16617 
        1.44198         36.8524         8.08191         8.08191 
        1.44809         36.5795         7.99901         7.99901 
        1.45423         36.4767         7.91696         7.91696 
        1.46036         36.3299         7.83621         7.83621 
        1.46649         36.0396         7.75655         7.75655 
        1.47263         35.8651         7.67794         7.67794 
        1.47877         35.6896         7.60045         7.60045 
        1.48491         35.4662          7.5239          7.5239 
        1.49104         35.2275         7.44857         7.44857 
        1.49718         35.1151         7.37421         7.37421 
        1.50333         34.9567         7.30075         7.30075 
        1.50947           34.68         7.22843         7.22843 
         1.5156         34.5837          7.1572          7.1572 
        1.52172         34.2971         7.08692         7.08692 
        1.52787         34.1993         7.01745         7.01745 
          1.534         33.9256         6.94898         6.94898 
        1.54013         33.9509          6.8815          6.8815 
        1.54627         33.5983         6.81479         6.81479 
        1.55241         33.4416         6.74896         6.74896 
        1.55855         33.2891         6.68408         6.68408 
        1.56467         33.0257         6.62023         6.62023 
         1.5708         33.0052         6.55704         6.55704 
        1.57695         32.8021         6.49458         6.49458 
        1.58308         32.5626         6.43307         6.43307 
        1.58922         32.3856         6.37231         6.37231 
        1.59535         32.3214         6.31236         6.31236 
         1.6015         32.2289          6.2531          6.2531 
        1.60764         31.9221         6.19462         6.19462 
        1.61376          31.761         6.13705         6.13705 
        1.61989         31.5319         6.08017         6.08017 
        1.62604         31.4146         6.02387         6.02387 
        1.63218         31.1651         5.96833         5.96833 
        1.63831         31.1177         5.91361         5.91361 
        1.64444         30.9784         5.85955         5.85955 
        1.65059         30.7516         5.80604         5.80604 
        1.65673         30.6298         5.75325         5.75325 
        1.66285         30.5257         5.70127         5.70127 
        1.66898         30.3094         5.64991         5.64991 
        1.67512         30.1553         5.59908         5.59908 
        1.68127         30.0318         5.54882         5.54882 
         1.6874         29.9136          5.4993          5.4993 
        1.69353         29.7551         5.45041         5.45041 
        1.69967          29.632         5.40199         5.40199 
        1.70581         29.4276         5.35418         5.35418 
        1.71193         29.2972         5.30713         5.30713 
        1.71806         29.1917         5.26055         5.26055 
        1.72421          28.994         5.21443         5.21443 
        1.73035         28.8705         5.16891         5.16891 
        1.73649         28.6784         5.12395         5.12395 
        1.74262         28.4904         5.07956         5.07956 
        1.74876          28.549         5.03566         5.03566 
        1.75489         28.2738         4.99237         4.99237 
        1.76101         28.2005          4.9496          4.9496 
        1.76715         28.0175         4.90727         4.90727 
        1.77329         27.8027         4.86538         4.86538 
        1.77943         27.8257         4.82397         4.82397 
        1.78557         27.6932         4.78309         4.78309 
        1.79171         27.5052         4.74268         4.74268 
        1.79785         27.4116         4.70273         4.70273 
        1.80399         27.2286         4.66325         4.66325 
        1.81012         27.1346         4.62427         4.62427 
        1.81625         26.9136         4.58575         4.58575 
        1.82239         26.8194         4.54761         4.54761 
        1.82853         26.7293         4.50992         4.50992 
        1.83466         26.5813          4.4727          4.4727 
        1.84078         26.4472         4.43593         4.43593 
        1.84692         26.3107         4.39951         4.39951 
        1.85306         26.1749         4.36346         4.36346 
         1.8592         26.0832         4.32787         4.32787 
        1.86533           25.97         4.29269         4.29269 
        1.87147         25.8442         4.25786         4.25786 
