# k  (h/Mpc)    P(k)  (Mpc/h)^3    P_linear(k)  (Mpc/h)^3     P_NL(k)  ShotnoiseSubtracted = false
     0.00783031         12132.3         12201.5         12201.5 
       0.013688         13869.8         14193.9         14193.9 
       0.019231         13515.4         13685.2         13685.2 
      0.0249154         12137.3           12080           12080 
      0.0312784         9960.24         10006.3         10006.3 
      0.0375637         8179.12         8265.52         8265.52 
      0.0433917         7100.93         7098.99         7098.99 
      0.0492413         6281.22         6316.99         6316.99 
      0.0555754         5764.72         5756.56         5756.56 
      0.0619321         5184.11          5314.6          5314.6 
       0.067871         4838.66         4890.35         4890.35 
      0.0738098         4403.24         4410.02         4410.02 
      0.0800417         3890.23         3867.94         3867.94 
      0.0862327         3370.96         3352.06         3352.06 
      0.0921407         2979.05         2935.24         2935.24 
      0.0982031         2693.09         2611.87         2611.87 
       0.104506         2421.84          2383.6          2383.6 
       0.110769         2280.72         2236.07         2236.07 
       0.116806         2199.55         2130.08         2130.08 
       0.122832         2068.52         2025.22         2025.22 
       0.129052         1940.31         1896.12         1896.12 
       0.135211         1831.28          1744.4          1744.4 
       0.141259         1657.71         1584.73         1584.73 
       0.147318         1501.41         1432.55         1432.55 
       0.153489         1388.61         1301.22         1301.22 
       0.159709         1317.92         1200.39         1200.39 
       0.165845         1212.38         1129.84         1129.84 
       0.171974         1189.87         1079.37         1079.37 
       0.178125         1147.86         1037.41         1037.41 
       0.184229         1068.25         994.398         994.398 
        0.19034         1038.74         944.323         944.323 
       0.196428         994.145         887.163         887.163 
       0.202534         915.792         826.474         826.474 
       0.208729         888.807         767.263         767.263 
       0.214876         841.612         715.764         715.764 
       0.220989         787.744         674.095         674.095 
       0.227147         767.673         641.377         641.377 
        0.23329         738.532           615.5           615.5 
       0.239377         728.537         593.126         593.126 
       0.245482         691.211         570.893         570.893 
       0.251667         663.051           546.7           546.7 
       0.257832         651.097         520.573         520.573 
       0.263955         613.531         493.688         493.688 
       0.270079         588.952         467.513         467.513 
        0.27624         562.545         443.426         443.426 
       0.282372         549.263         422.603         422.603 
        0.28843         542.832         405.123         405.123 
       0.294538         514.757         390.014         390.014 
       0.300721         500.018         376.266         376.266 
        0.30691         490.224         363.061         363.061 
       0.313033         467.314         349.852         349.852 
       0.319153          459.15         336.308         336.308 
       0.325316          449.76         322.515         322.515 
        0.33145         437.604         309.091         309.091 
       0.337538          420.81         296.513         296.513 
       0.343633         407.974         285.007         285.007 
       0.349808         397.348         274.506         274.506 
       0.355968         389.225          265.08          265.08 
       0.362074         375.373         256.468         256.468 
       0.368217         372.228         248.233         248.233 
       0.374374         364.445         240.178         240.178 
       0.380519         349.306         232.191         232.191 
       0.386598         344.613         224.383         224.383 
       0.392688         335.288         216.737         216.737 
        0.39888          326.77         209.275         209.275 
       0.405048         319.386         202.282         202.282 
       0.411186         317.813         195.786         195.786 
       0.417313         312.174         189.742         189.742 
       0.423458          303.66         184.062         184.062 
       0.429607         294.638         178.651         178.651 
       0.435692         289.795         173.479         173.479 
       0.441815         284.504         168.415         168.415 
       0.447964         276.911         163.451         163.451 
       0.454126          273.35         158.605         158.605 
       0.460267         268.956         153.942         153.942 
       0.466387         262.946         149.497         149.497 
        0.47254         259.432          145.24          145.24 
       0.478662         252.792         141.211         141.211 
       0.484765         249.136         137.389         137.389 
       0.490885         246.026         133.725         133.725 
       0.497035         241.313          130.18          130.18 
       0.503198          239.72         126.737         126.737 
       0.509342         233.712         123.406         123.406 
       0.515458         229.758         120.192         120.192 
       0.521598          225.04          117.07          117.07 
       0.527764         222.489         114.043         114.043 
       0.533884         220.793         111.147         111.147 
           0.54         216.576         108.366         108.366 
       0.546137          211.52         105.686         105.686 
       0.552299         209.934         103.097         103.097 
       0.558452         206.244         100.604         100.604 
       0.564573         204.851         98.2012         98.2012 
       0.570708         200.304         95.8652         95.8652 
       0.576825         197.139         93.6069         93.6069 
       0.582926         195.381         91.4246         91.4246 
       0.589034         192.021         89.3091         89.3091 
       0.595184         190.393         87.2482         87.2482 
       0.601379         187.178         85.2401         85.2401 
       0.607522         182.877         83.3129         83.3129 
       0.613639         181.877         81.4548         81.4548 
       0.619772         180.446         79.6505         79.6505 
       0.625918         177.881         77.8986         77.8986 
       0.632068         174.572         76.1992         76.1992 
       0.638161         173.368         74.5659         74.5659 
         0.6443         171.375         72.9687         72.9687 
       0.650464         168.269         71.4119         71.4119 
       0.656582         166.851         69.9109         69.9109 
       0.662703         165.497         68.4523         68.4523 
       0.668861         162.009          67.027          67.027 
       0.675024         161.652         65.6413         65.6413 
       0.681124         159.306         64.3092         64.3092 
       0.687237          157.78         63.0119         63.0119 
       0.693381         155.248          61.745          61.745 
       0.699536         154.189         60.5113         60.5113 
       0.705665          152.38         59.3169         59.3169 
       0.711789         150.181          58.156          58.156 
       0.717957         148.807         57.0185         57.0185 
        0.72409         146.822         55.9178         55.9178 
       0.730186         147.277         54.8527         54.8527 
       0.736317         144.944         53.8096         53.8096 
       0.742472         142.738         52.7898         52.7898 
       0.748622         140.655         51.7975         51.7975 
        0.75476         141.104         50.8328         50.8328 
       0.760888          139.13         49.8941         49.8941 
       0.767043         136.706         48.9756         48.9756 
       0.773185         135.346         48.0821         48.0821 
       0.779291          133.96         47.2161         47.2161 
       0.785407         132.996         46.3702         46.3702 
       0.791564         131.792         45.5398         45.5398 
       0.797719         129.647         44.7303         44.7303 
       0.803834         129.953         43.9456         43.9456 
       0.809972          128.43          43.177          43.177 
       0.816124         126.185         42.4252         42.4252 
       0.822261         125.432         41.6934         41.6934 
       0.828378         124.922         40.9811         40.9811 
       0.834502          123.45         40.2849         40.2849 
       0.840667         122.933         39.6004         39.6004 
       0.846816          120.97         38.9338         38.9338 
       0.852925         120.185         38.2868         38.2868 
       0.859047         118.993         37.6531         37.6531 
       0.865192         118.325         37.0318         37.0318 
       0.871341         117.116         36.4242         36.4242 
       0.877463         116.041          35.833          35.833 
       0.883569         115.863         35.2564         35.2564 
       0.889708         114.682         34.6897         34.6897 
       0.895864         113.475         34.1339         34.1339 
       0.902008         112.143         33.5915         33.5915 
       0.908149         110.985         33.0613         33.0613 
       0.914301          110.46         32.5417         32.5417 
       0.920448          110.43         32.0338         32.0338 
       0.926574         108.346         31.5385         31.5385 
       0.932687          108.22         31.0548         31.0548 
       0.938823         107.353         30.5795         30.5795 
       0.944975         106.466          30.113          30.113 
       0.951105          105.38          29.658          29.658 
       0.957225         104.875         29.2132         29.2132 
       0.963368         103.902          28.776          28.776 
       0.969511         103.037         28.3477         28.3477 
       0.975621         101.724         27.9305         27.9305 
       0.981748         101.295         27.5206         27.5206 
       0.987916         100.662         27.1163         27.1163 
        0.99406         100.105         26.7217         26.7217 
        1.00019         99.2656         26.3358         26.3358 
        1.00632         98.3495         25.9578         25.9578 
        1.01246         97.7014         25.5867         25.5867 
        1.01859         97.1122         25.2235         25.2235 
        1.02471         96.4352         24.8677         24.8677 
        1.03085         95.5516         24.5176         24.5176 
        1.03698         94.7758          24.175          24.175 
        1.04314         94.3514         23.8375         23.8375 
        1.04929         93.7959         23.5072         23.5072 
        1.05541         93.0513         23.1845         23.1845 
        1.06154         92.1596         22.8671         22.8671 
        1.06769          91.705         22.5552         22.5552 
        1.07382         91.1345           22.25           22.25 
        1.07993         90.5089         21.9513         21.9513 
        1.08607         89.9998         21.6568         21.6568 
        1.09222         89.2579         21.3674         21.3674 
        1.09836         88.5947         21.0836         21.0836 
        1.10449          88.061         20.8053         20.8053 
        1.11063         87.3446         20.5318         20.5318 
        1.11677         86.9192         20.2633         20.2633 
         1.1229         86.0417              20              20 
        1.12903          85.537         19.7412         19.7412 
        1.13518         84.8861         19.4868         19.4868 
        1.14131         84.5106          19.237          19.237 
        1.14745         84.0497         18.9917         18.9917 
        1.15359         83.1586         18.7506         18.7506 
        1.15973         82.9036         18.5137         18.5137 
        1.16584         82.2907         18.2818         18.2818 
        1.17197         81.8944         18.0537         18.0537 
        1.17811         81.1783         17.8287         17.8287 
        1.18424         80.6332         17.6082         17.6082 
        1.19038         80.2798         17.3908         17.3908 
        1.19652         79.7976         17.1772         17.1772 
        1.20267         79.2007         16.9672         16.9672 
        1.20881         78.5836         16.7607         16.7607 
        1.21495         78.2056         16.5579         16.5579 
        1.22108         77.8021         16.3586         16.3586 
         1.2272          77.259          16.163          16.163 
        1.23334         76.9836         15.9701         15.9701 
        1.23949         76.4094           15.78           15.78 
        1.24562         75.7056         15.5934         15.5934 
        1.25174         75.5628         15.4102         15.4102 
        1.25789         74.9483         15.2293         15.2293 
        1.26402         74.6372         15.0517         15.0517 
        1.27014         73.9682         14.8773         14.8773 
        1.27628         73.5989         14.7051         14.7051 
        1.28244         73.4548         14.5354         14.5354 
        1.28858         72.7453         14.3685         14.3685 
        1.29471         72.3156         14.2046         14.2046 
        1.30084         71.6965         14.0435         14.0435 
        1.30697         71.5294         13.8846         13.8846 
        1.31312         71.0886         13.7279         13.7279 
        1.31925         70.4748         13.5741         13.5741 
        1.32537         70.1853         13.4228         13.4228 
        1.33151          70.036         13.2734         13.2734 
        1.33765         69.4027         13.1262         13.1262 
        1.34378         69.0354         12.9816         12.9816 
        1.34992         68.7671         12.8391         12.8391 
        1.35606         68.2935         12.6984         12.6984 
         1.3622         68.0874           12.56           12.56 
        1.36833         67.5009          12.424          12.424 
        1.37445         67.1643         12.2902         12.2902 
        1.38059         66.8113         12.1578         12.1578 
        1.38675         66.2489         12.0272         12.0272 
        1.39288         65.9193         11.8989         11.8989 
        1.39901         65.5568         11.7726         11.7726 
        1.40515         65.1671         11.6478         11.6478 
         1.4113          64.846         11.5249         11.5249 
        1.41742          64.475         11.4042         11.4042 
        1.42355         64.2615          11.285          11.285 
         1.4297         63.8206         11.1672         11.1672 
        1.43585         63.5048         11.0511         11.0511 
        1.44198         62.9893         10.9371         10.9371 
        1.44809         62.4936         10.8249         10.8249 
        1.45423         62.5543         10.7138         10.7138 
        1.46036         62.0764         10.6046         10.6046 
        1.46649         61.5961         10.4968         10.4968 
        1.47263         61.2514         10.3904         10.3904 
        1.47877         60.9882         10.2855         10.2855 
        1.48491         60.5648         10.1819         10.1819 
        1.49104         60.1902           10.08           10.08 
        1.49718         59.9418         9.97935         9.97935 
        1.50333          59.715         9.87993         9.87993 
        1.50947          59.403         9.78206         9.78206 
         1.5156          59.209         9.68567         9.68567 
        1.52172          58.615         9.59056         9.59056 
        1.52787         58.3532         9.49654         9.49654 
          1.534         57.9983         9.40389         9.40389 
        1.54013         57.8892         9.31257         9.31257 
        1.54627          57.323          9.2223          9.2223 
        1.55241         57.2963          9.1332          9.1332 
        1.55855          56.663         9.04541         9.04541 
        1.56467          56.286         8.95901         8.95901 
         1.5708          56.165         8.87349         8.87349 
        1.57695         55.8375         8.78896         8.78896 
        1.58308          55.602         8.70572         8.70572 
        1.58922         55.3608          8.6235          8.6235 
        1.59535         55.2258         8.54237         8.54237 
         1.6015         54.8086         8.46217         8.46217 
        1.60764         54.4918         8.38303         8.38303 
        1.61376         54.2606         8.30513         8.30513 
        1.61989         53.7595         8.22815         8.22815 
        1.62604          53.678         8.15197         8.15197 
        1.63218         53.3618          8.0768          8.0768 
        1.63831         53.1116         8.00275         8.00275 
        1.64444         52.8839         7.92959         7.92959 
        1.65059         52.5172         7.85718         7.85718 
        1.65673         52.2721         7.78574         7.78574 
        1.66285         51.9184         7.71539         7.71539 
        1.66898         51.5904         7.64588         7.64588 
        1.67512          51.319          7.5771          7.5771 
        1.68127         51.2331         7.50909         7.50909 
         1.6874         50.8851         7.44207         7.44207 
        1.69353         50.5807          7.3759          7.3759 
        1.69967         50.3892         7.31038         7.31038 
        1.70581         50.1087         7.24569         7.24569 
        1.71193          49.772         7.18202         7.18202 
        1.71806         49.6344         7.11897         7.11897 
        1.72421         49.3622         7.05656         7.05656 
        1.73035         49.0978         6.99497         6.99497 
        1.73649         48.8002         6.93412         6.93412 
        1.74262         48.4891         6.87404         6.87404 
        1.74876          48.433         6.81464         6.81464 
        1.75489         48.1034         6.75605         6.75605 
        1.76101          47.901         6.69817         6.69817 
        1.76715         47.5826         6.64089         6.64089 
        1.77329         47.3339         6.58421         6.58421 
        1.77943         47.2574         6.52816         6.52816 
        1.78557         46.9353         6.47285         6.47285 
        1.79171          46.616         6.41816         6.41816 
        1.79785         46.4463          6.3641          6.3641 
        1.80399         46.2414         6.31066         6.31066 
        1.81012         45.9374         6.25791         6.25791 
        1.81625         45.7554         6.20579         6.20579 
        1.82239          45.451         6.15417         6.15417 
        1.82853         45.2961         6.10317         6.10317 
        1.83466         45.0029         6.05279         6.05279 
        1.84078         44.7697         6.00303         6.00303 
        1.84692         44.7202         5.95375         5.95375 
        1.85306          44.435         5.90497         5.90497 
         1.8592         44.1325          5.8568          5.8568 
        1.86533         43.9798          5.8092          5.8092 
        1.87147         43.7055         5.76206         5.76206 
        1.87761         43.4917         5.71543         5.71543 
