# k  (h/Mpc)    P(k)  (Mpc/h)^3    P_linear(k)  (Mpc/h)^3     P_NL(k)  ShotnoiseSubtracted = false
     0.00783031         11588.7         11655.5         11655.5 
       0.013688         13255.4         13559.3         13559.3 
       0.019231         12915.4         13073.6         13073.6 
      0.0249154         11594.6         11540.2         11540.2 
      0.0312784         9517.83         9559.24         9559.24 
      0.0375637         7816.75         7896.22         7896.22 
      0.0433917         6785.06         6781.82         6781.82 
      0.0492413         6002.28         6034.76         6034.76 
      0.0555754         5508.51         5499.38         5499.38 
      0.0619321         4956.04         5077.17         5077.17 
       0.067871            4625         4671.87         4671.87 
      0.0738098         4207.39            4213            4213 
      0.0800417         3716.85         3695.14         3695.14 
      0.0862327         3220.26         3202.31         3202.31 
      0.0921407         2844.57         2804.11         2804.11 
      0.0982031         2570.57         2495.18         2495.18 
       0.104506         2311.91         2277.12         2277.12 
       0.110769         2177.02         2136.18         2136.18 
       0.116806         2099.49         2034.92         2034.92 
       0.122832         1974.32         1934.75         1934.75 
       0.129052          1852.5         1811.42         1811.42 
       0.135211         1746.91         1666.47         1666.47 
       0.141259         1581.28         1513.93         1513.93 
       0.147318         1431.45         1368.55         1368.55 
       0.153489          1323.3         1243.09         1243.09 
       0.159709          1254.9         1146.77         1146.77 
       0.165845         1154.51         1079.37         1079.37 
       0.171974          1133.1         1031.16         1031.16 
       0.178125         1092.65         991.066         991.066 
       0.184229         1017.71         949.975         949.975 
        0.19034         988.997         902.137         902.137 
       0.196428         945.941         847.531         847.531 
       0.202534         870.958         789.553         789.553 
       0.208729         844.733         732.987         732.987 
       0.214876         799.899         683.789         683.789 
       0.220989         748.004         643.981         643.981 
       0.227147          729.04         612.725         612.725 
        0.23329         701.416         588.003         588.003 
       0.239377         691.365         566.629         566.629 
       0.245482          655.97          545.39          545.39 
       0.251667         629.019         522.277         522.277 
       0.257832         617.703         497.318         497.318 
       0.263955         581.684         471.633         471.633 
       0.270079         558.023         446.627         446.627 
        0.27624           532.9         423.617         423.617 
       0.282372         519.903         403.724         403.724 
        0.28843          513.97         387.025         387.025 
       0.294538         487.379         372.591         372.591 
       0.300721         473.022         359.457         359.457 
        0.30691         463.921         346.842         346.842 
       0.313033         442.163         334.223         334.223 
       0.319153         434.269         321.284         321.284 
       0.325316          425.01         308.107         308.107 
        0.33145         413.383         295.283         295.283 
       0.337538         397.491         283.267         283.267 
       0.343633         385.168         272.275         272.275 
       0.349808         374.978         262.243         262.243 
       0.355968          367.23         253.238         253.238 
       0.362074         354.371         245.011         245.011 
       0.368217         351.133         237.144         237.144 
       0.374374         343.545         229.449         229.449 
       0.380519         329.255         221.818         221.818 
       0.386598         324.637         214.359         214.359 
       0.392688         315.759         207.055         207.055 
        0.39888         307.812         199.926         199.926 
       0.405048         300.823         193.245         193.245 
       0.411186         299.121          187.04          187.04 
       0.417313         293.604         181.266         181.266 
       0.423458         285.624         175.839         175.839 
       0.429607         277.221          170.67          170.67 
       0.435692         272.592         165.729         165.729 
       0.441815         267.529         160.892         160.892 
       0.447964         260.177          156.15          156.15 
       0.454126         256.712         151.519         151.519 
       0.460267         252.702         147.065         147.065 
       0.466387         246.983         142.819         142.819 
        0.47254         243.693         138.752         138.752 
       0.478662         237.238         134.903         134.903 
       0.484765         233.812         131.251         131.251 
       0.490885         230.747         127.752         127.752 
       0.497035         226.524         124.365         124.365 
       0.503198         224.782         121.076         121.076 
       0.509342         219.058         117.893         117.893 
       0.515458         215.426         114.823         114.823 
       0.521598         210.808         111.841         111.841 
       0.527764         208.531         108.948         108.948 
       0.533884         206.956         106.182         106.182 
           0.54         202.784         103.525         103.525 
       0.546137         198.033         100.965         100.965 
       0.552299          196.39         98.4917         98.4917 
       0.558452         192.936         96.1093         96.1093 
       0.564573         191.654         93.8143         93.8143 
       0.570708         187.247         91.5826         91.5826 
       0.576825         184.375         89.4252         89.4252 
       0.582926         182.634         87.3404         87.3404 
       0.589034         179.521         85.3194         85.3194 
       0.595184         177.928         83.3505         83.3505 
       0.601379         174.852         81.4322         81.4322 
       0.607522         170.863         79.5911         79.5911 
       0.613639         169.853          77.816          77.816 
       0.619772         168.353         76.0923         76.0923 
       0.625918         166.163         74.4186         74.4186 
       0.632068         162.833         72.7952         72.7952 
       0.638161         161.665         71.2349         71.2349 
         0.6443         159.935          69.709          69.709 
       0.650464         156.909         68.2217         68.2217 
       0.656582         155.671         66.7878         66.7878 
       0.662703         154.296         65.3944         65.3944 
       0.668861         151.039         64.0327         64.0327 
       0.675024         150.755         62.7089         62.7089 
       0.681124         148.496         61.4363         61.4363 
       0.687237         146.982          60.197          60.197 
       0.693381          144.71         58.9867         58.9867 
       0.699536         143.612          57.808          57.808 
       0.705665         141.919          56.667          56.667 
       0.711789         139.851          55.558          55.558 
       0.717957         138.501         54.4713         54.4713 
        0.72409         136.717         53.4198         53.4198 
       0.730186         137.017         52.4023         52.4023 
       0.736317         134.871         51.4058         51.4058 
       0.742472         132.731         50.4316         50.4316 
       0.748622         130.758         49.4835         49.4835 
        0.75476         131.214         48.5619         48.5619 
       0.760888          129.41         47.6652         47.6652 
       0.767043         127.097         46.7877         46.7877 
       0.773185         125.774         45.9341         45.9341 
       0.779291         124.473         45.1068         45.1068 
       0.785407         123.546         44.2987         44.2987 
       0.791564         122.435         43.5054         43.5054 
       0.797719         120.474         42.7321         42.7321 
       0.803834         120.661         41.9824         41.9824 
       0.809972         119.303         41.2482         41.2482 
       0.816124          117.23           40.53           40.53 
       0.822261          116.47         39.8308         39.8308 
       0.828378         116.005         39.1503         39.1503 
       0.834502         114.623         38.4852         38.4852 
       0.840667         114.052         37.8313         37.8313 
       0.846816         112.344         37.1945         37.1945 
       0.852925         111.503         36.5764         36.5764 
       0.859047         110.434         35.9711         35.9711 
       0.865192         109.726         35.3775         35.3775 
       0.871341         108.635          34.797          34.797 
       0.877463         107.651         34.2322         34.2322 
       0.883569         107.473         33.6814         33.6814 
       0.889708         106.373           33.14           33.14 
       0.895864         105.285         32.6091         32.6091 
       0.902008         104.007         32.0909         32.0909 
       0.908149         102.888         31.5844         31.5844 
       0.914301         102.479          31.088          31.088 
       0.920448         102.422         30.6027         30.6027 
       0.926574         100.396         30.1296         30.1296 
       0.932687         100.287         29.6675         29.6675 
       0.938823         99.5034         29.2134         29.2134 
       0.944975         98.6007         28.7678         28.7678 
       0.951105         97.6104         28.3331         28.3331 
       0.957225         97.1925         27.9081         27.9081 
       0.963368         96.2219         27.4905         27.4905 
       0.969511         95.4978         27.0813         27.0813 
       0.975621           94.26         26.6827         26.6827 
       0.981748         93.8198         26.2911         26.2911 
       0.987916         93.1966          25.905          25.905 
        0.99406         92.7491          25.528          25.528 
        1.00019         91.8699         25.1593         25.1593 
        1.00632         91.0261         24.7982         24.7982 
        1.01246         90.4562         24.4437         24.4437 
        1.01859         89.9369         24.0966         24.0966 
        1.02471         89.3063         23.7568         23.7568 
        1.03085         88.4469         23.4224         23.4224 
        1.03698         87.7275         23.0951         23.0951 
        1.04314         87.2753         22.7726         22.7726 
        1.04929         86.7774         22.4571         22.4571 
        1.05541         86.0543         22.1488         22.1488 
        1.06154          85.286         21.8456         21.8456 
        1.06769         84.8448         21.5476         21.5476 
        1.07382         84.2606         21.2561         21.2561 
        1.07993         83.7435         20.9706         20.9706 
        1.08607         83.2092         20.6893         20.6893 
        1.09222         82.5898         20.4128         20.4128 
        1.09836         81.9284         20.1417         20.1417 
        1.10449         81.4295         19.8759         19.8759 
        1.11063          80.794         19.6146         19.6146 
        1.11677         80.3734          19.358          19.358 
         1.1229         79.5585         19.1066         19.1066 
        1.12903         79.1321         18.8593         18.8593 
        1.13518         78.5383         18.6162         18.6162 
        1.14131         78.1307         18.3776         18.3776 
        1.14745         77.7539         18.1433         18.1433 
        1.15359         76.8596          17.913          17.913 
        1.15973         76.6579         17.6866         17.6866 
        1.16584         76.1035         17.4651         17.4651 
        1.17197         75.7114         17.2472         17.2472 
        1.17811         75.0537         17.0322         17.0322 
        1.18424         74.5157         16.8216         16.8216 
        1.19038         74.2327         16.6139         16.6139 
        1.19652          73.776         16.4098         16.4098 
        1.20267         73.2172         16.2092         16.2092 
        1.20881         72.6594         16.0119         16.0119 
        1.21495         72.2646         15.8182         15.8182 
        1.22108         71.9509         15.6278         15.6278 
         1.2272         71.3853         15.4409         15.4409 
        1.23334         71.1565         15.2567         15.2567 
        1.23949         70.6074          15.075          15.075 
        1.24562         69.9566         14.8968         14.8968 
        1.25174         69.7984         14.7218         14.7218 
        1.25789         69.3073          14.549          14.549 
        1.26402         68.9615         14.3793         14.3793 
        1.27014         68.3913         14.2127         14.2127 
        1.27628         68.0102         14.0482         14.0482 
        1.28244         67.9095          13.886          13.886 
        1.28858         67.2444         13.7266         13.7266 
        1.29471         66.8214         13.5701         13.5701 
        1.30084         66.2437         13.4161         13.4161 
        1.30697         66.1401         13.2643         13.2643 
        1.31312         65.7323         13.1146         13.1146 
        1.31925         65.1465         12.9677         12.9677 
        1.32537         64.8828         12.8232         12.8232 
        1.33151         64.6954         12.6804         12.6804 
        1.33765         64.1537         12.5398         12.5398 
        1.34378         63.7767         12.4017         12.4017 
        1.34992         63.5498         12.2655         12.2655 
        1.35606         63.0915         12.1311         12.1311 
         1.3622         62.8939         11.9989         11.9989 
        1.36833          62.385          11.869          11.869 
        1.37445         62.0205         11.7411         11.7411 
        1.38059         61.7291         11.6147         11.6147 
        1.38675         61.1787         11.4899         11.4899 
        1.39288         60.9216         11.3673         11.3673 
        1.39901         60.5411         11.2467         11.2467 
        1.40515          60.216         11.1275         11.1275 
         1.4113         59.9242           11.01           11.01 
        1.41742         59.5456         10.8947         10.8947 
        1.42355         59.3758         10.7809         10.7809 
         1.4297         58.9779         10.6683         10.6683 
        1.43585         58.6656         10.5574         10.5574 
        1.44198         58.2216         10.4485         10.4485 
        1.44809         57.7417         10.3413         10.3413 
        1.45423          57.765         10.2352         10.2352 
        1.46036         57.3651         10.1308         10.1308 
        1.46649         56.9165         10.0278         10.0278 
        1.47263         56.6149         9.92621         9.92621 
        1.47877         56.3594         9.82602         9.82602 
        1.48491         55.9531         9.72707         9.72707 
        1.49104         55.6366         9.62968         9.62968 
        1.49718         55.4048         9.53354         9.53354 
        1.50333         55.1866         9.43857         9.43857 
        1.50947         54.8873         9.34507         9.34507 
         1.5156         54.7163         9.25298         9.25298 
        1.52172         54.1838         9.16212         9.16212 
        1.52787         53.9207         9.07231         9.07231 
          1.534         53.5835         8.98379         8.98379 
        1.54013         53.5235         8.89655         8.89655 
        1.54627          52.981         8.81031         8.81031 
        1.55241         52.9304          8.7252          8.7252 
        1.55855         52.3907         8.64132         8.64132 
        1.56467         52.0188         8.55878         8.55878 
         1.5708         51.9667         8.47708         8.47708 
        1.57695         51.6245         8.39633         8.39633 
        1.58308         51.4077         8.31681         8.31681 
        1.58922          51.154         8.23826         8.23826 
        1.59535         51.0645         8.16076         8.16076 
         1.6015         50.7185         8.08414         8.08414 
        1.60764         50.3999         8.00854         8.00854 
        1.61376         50.1691         7.93411         7.93411 
        1.61989         49.7042         7.86057         7.86057 
        1.62604         49.6259         7.78779         7.78779 
        1.63218         49.3281         7.71598         7.71598 
        1.63831         49.1123         7.64524         7.64524 
        1.64444         48.9221         7.57535         7.57535 
        1.65059         48.5577         7.50617         7.50617 
        1.65673         48.3279         7.43793         7.43793 
        1.66285         48.0274         7.37072         7.37072 
        1.66898         47.7241         7.30432         7.30432 
        1.67512         47.4656         7.23861         7.23861 
        1.68127         47.4068         7.17364         7.17364 
         1.6874         47.0931         7.10961         7.10961 
        1.69353         46.7881          7.0464          7.0464 
        1.69967         46.6258         6.98381         6.98381 
        1.70581         46.3546           6.922           6.922 
        1.71193          46.066         6.86117         6.86117 
        1.71806         45.9237         6.80095         6.80095 
        1.72421         45.6703         6.74132         6.74132 
        1.73035         45.4486         6.68248         6.68248 
        1.73649         45.1527         6.62435         6.62435 
        1.74262         44.8567         6.56696         6.56696 
        1.74876         44.8535         6.51021         6.51021 
        1.75489         44.5194         6.45424         6.45424 
        1.76101         44.3512         6.39895         6.39895 
        1.76715         44.0597         6.34422         6.34422 
        1.77329         43.8065         6.29007         6.29007 
        1.77943          43.756         6.23653         6.23653 
        1.78557         43.4386         6.18369         6.18369 
        1.79171         43.1769         6.13144         6.13144 
        1.79785          43.013         6.07979         6.07979 
        1.80399         42.7925         6.02875         6.02875 
        1.81012         42.5288         5.97835         5.97835 
        1.81625         42.3613         5.92856         5.92856 
        1.82239         42.0935         5.87925         5.87925 
        1.82853         41.9421         5.83052         5.83052 
        1.83466         41.6971          5.7824          5.7824 
        1.84078         41.4712         5.73486         5.73486 
        1.84692         41.4004         5.68778         5.68778 
        1.85306         41.1384         5.64117         5.64117 
         1.8592         40.8555         5.59516         5.59516 
        1.86533          40.733         5.54968         5.54968 
        1.87147         40.4856         5.50466         5.50466 
        1.87761         40.3136         5.46011         5.46011 
