# k  (h/Mpc)    P(k)  (Mpc/h)^3    P_linear(k)  (Mpc/h)^3     P_NL(k)  ShotnoiseSubtracted = false
     0.00783031          3972.2         3999.89         3999.89 
       0.013688          4586.3         4656.77         4656.77 
       0.019231          4459.3         4491.02         4491.02 
      0.0249154         3978.17         3964.75         3964.75 
      0.0312784         3282.64          3284.4          3284.4 
      0.0375637         2702.33         2713.13         2713.13 
      0.0433917          2336.8         2330.28         2330.28 
      0.0492413         2070.75         2073.63         2073.63 
      0.0555754         1896.96         1889.69         1889.69 
      0.0619321         1722.64         1744.63         1744.63 
       0.067871         1600.45         1605.37         1605.37 
      0.0738098         1448.73          1447.7          1447.7 
      0.0800417         1276.89         1269.76         1269.76 
      0.0862327         1104.76         1100.41         1100.41 
      0.0921407         969.505         963.581         963.581 
      0.0982031          870.34         857.425         857.425 
       0.104506          785.56         782.492         782.492 
       0.110769         738.479         734.062         734.062 
       0.116806         709.915         699.268         699.268 
       0.122832          668.91         664.847         664.847 
       0.129052         629.174         622.466         622.466 
       0.135211         585.111         572.657         572.657 
       0.141259         529.636         520.241         520.241 
       0.147318         477.071         470.284         470.284 
       0.153489         437.391         427.171         427.171 
       0.159709         408.573         394.072         394.072 
       0.165845         378.192         370.911         370.911 
       0.171974         368.915         354.343         354.343 
       0.178125         353.958         340.567         340.567 
       0.184229         334.769         326.447         326.447 
        0.19034         322.063         310.008         310.008 
       0.196428         304.386         291.243         291.243 
       0.202534         279.817          271.32          271.32 
       0.208729         266.429         251.882         251.882 
       0.214876          251.68         234.976         234.976 
       0.220989         233.516         221.296         221.296 
       0.227147         226.748         210.556         210.556 
        0.23329         218.108          202.06          202.06 
       0.239377         212.003         194.715         194.715 
       0.245482         202.225         187.417         187.417 
       0.251667         192.796         179.474         179.474 
       0.257832         187.945         170.898         170.898 
       0.263955         176.218         162.071         162.071 
       0.270079          167.65         153.478         153.478 
        0.27624         159.197         145.571         145.571 
       0.282372         153.192         138.735         138.735 
        0.28843         150.506         132.997         132.997 
       0.294538         143.695         128.037         128.037 
       0.300721         137.697         123.523         123.523 
        0.30691         134.948         119.188         119.188 
       0.313033         129.076         114.852         114.852 
       0.319153         126.238         110.406         110.406 
       0.325316          120.72         105.878         105.878 
        0.33145         116.231         101.471         101.471 
       0.337538         111.978         97.3415         97.3415 
       0.343633          108.24         93.5642         93.5642 
       0.349808         104.503         90.1169         90.1169 
       0.355968         101.393         87.0226         87.0226 
       0.362074         99.1698         84.1953         84.1953 
       0.368217         96.4703          81.492          81.492 
       0.374374          93.954         78.8475         78.8475 
       0.380519         89.8849         76.2255         76.2255 
       0.386598         87.3981         73.6622         73.6622 
       0.392688         84.4789         71.1522         71.1522 
        0.39888         82.7743         68.7024         68.7024 
       0.405048         80.5626         66.4066         66.4066 
       0.411186         78.5149         64.2743         64.2743 
       0.417313         76.2381         62.2901         62.2901 
       0.423458         74.1295         60.4252         60.4252 
       0.429607         72.5754         58.6491         58.6491 
       0.435692         71.2844         56.9509         56.9509 
       0.441815          68.693         55.2887         55.2887 
       0.447964         66.3563         53.6592         53.6592 
       0.454126         65.1172          52.068          52.068 
       0.460267          64.366         50.5372         50.5372 
       0.466387         62.5321         49.0781         49.0781 
        0.47254         61.5884         47.6807         47.6807 
       0.478662         59.3585         46.3578         46.3578 
       0.484765         58.1991         45.1032         45.1032 
       0.490885         56.5746         43.9005         43.9005 
       0.497035         55.8426         42.7366         42.7366 
       0.503198         54.5078         41.6063         41.6063 
       0.509342         52.9664         40.5127         40.5127 
       0.515458         52.1168         39.4577         39.4577 
       0.521598         50.7992         38.4328         38.4328 
       0.527764         50.0853         37.4389         37.4389 
       0.533884         49.2414         36.4883         36.4883 
           0.54         47.9734         35.5752         35.5752 
       0.546137         46.5652         34.6954         34.6954 
       0.552299         45.7109         33.8456         33.8456 
       0.558452         44.7199         33.0269         33.0269 
       0.564573         44.3321         32.2383         32.2383 
       0.570708         43.0241         31.4714         31.4714 
       0.576825         42.5162           30.73           30.73 
       0.582926         41.8253         30.0136         30.0136 
       0.589034         40.9185         29.3191         29.3191 
       0.595184         40.3017         28.6425         28.6425 
       0.601379         39.2311         27.9833         27.9833 
       0.607522         38.5032         27.3506         27.3506 
       0.613639         38.0143         26.7407         26.7407 
       0.619772         37.2151         26.1483         26.1483 
       0.625918          36.586         25.5732         25.5732 
       0.632068         36.1556         25.0153         25.0153 
       0.638161         35.3616         24.4791         24.4791 
         0.6443         34.9159         23.9548         23.9548 
       0.650464         34.0167         23.4437         23.4437 
       0.656582         33.7906         22.9509         22.9509 
       0.662703         33.2657         22.4721         22.4721 
       0.668861         32.4286         22.0042         22.0042 
       0.675024          32.085         21.5493         21.5493 
       0.681124          31.761         21.1119         21.1119 
       0.687237         31.0819         20.6861         20.6861 
       0.693381         30.5604         20.2702         20.2702 
       0.699536         30.2856         19.8651         19.8651 
       0.705665         29.7023          19.473          19.473 
       0.711789         29.1949         19.0919         19.0919 
       0.717957         28.6276         18.7185         18.7185 
        0.72409         28.3186         18.3571         18.3571 
       0.730186         28.1303         18.0075         18.0075 
       0.736317         27.5475         17.6651         17.6651 
       0.742472         27.2007         17.3303         17.3303 
       0.748622         26.7204         17.0045         17.0045 
        0.75476         26.1352         16.6878         16.6878 
       0.760888         26.0709         16.3797         16.3797 
       0.767043         25.5397         16.0781         16.0781 
       0.773185         25.2195         15.7848         15.7848 
       0.779291         24.8824         15.5005         15.5005 
       0.785407         24.5197         15.2228         15.2228 
       0.791564         24.4008         14.9502         14.9502 
       0.797719         23.8174         14.6844         14.6844 
       0.803834          23.697         14.4268         14.4268 
       0.809972         23.2619         14.1745         14.1745 
       0.816124         22.9965         13.9277         13.9277 
       0.822261         22.6941         13.6875         13.6875 
       0.828378         22.4931         13.4536         13.4536 
       0.834502         22.2064          13.225          13.225 
       0.840667         21.9648         13.0003         13.0003 
       0.846816         21.5161         12.7815         12.7815 
       0.852925         21.3984         12.5691         12.5691 
       0.859047         21.1797         12.3611         12.3611 
       0.865192         20.8344         12.1571         12.1571 
       0.871341         20.5789         11.9576         11.9576 
       0.877463         20.3267         11.7636         11.7636 
       0.883569         20.1902         11.5743         11.5743 
       0.889708         19.8812         11.3882         11.3882 
       0.895864         19.6182         11.2058         11.2058 
       0.902008         19.3999         11.0277         11.0277 
       0.908149         19.1475         10.8536         10.8536 
       0.914301         19.0023         10.6831         10.6831 
       0.920448         18.7495         10.5163         10.5163 
       0.926574         18.5352         10.3537         10.3537 
       0.932687          18.304         10.1949         10.1949 
       0.938823         18.0429         10.0389         10.0389 
       0.944975         17.9043         9.88576         9.88576 
       0.951105          17.728         9.73638         9.73638 
       0.957225         17.5811         9.59035         9.59035 
       0.963368         17.3007         9.44682         9.44682 
       0.969511         17.1395         9.30622         9.30622 
       0.975621         16.9887         9.16925         9.16925 
       0.981748         16.7558         9.03468         9.03468 
       0.987916         16.6464         8.90197         8.90197 
        0.99406         16.4044         8.77243         8.77243 
        1.00019         16.2954         8.64573         8.64573 
        1.00632          16.147         8.52164         8.52164 
        1.01246         15.9608         8.39981         8.39981 
        1.01859         15.7771         8.28057         8.28057 
        1.02471          15.615         8.16378         8.16378 
        1.03085         15.5243         8.04885         8.04885 
        1.03698         15.3854         7.93638         7.93638 
        1.04314         15.1813         7.82558         7.82558 
        1.04929         14.9816         7.71715         7.71715 
        1.05541         14.9092         7.61122         7.61122 
        1.06154         14.7836         7.50701         7.50701 
        1.06769         14.5781          7.4046          7.4046 
        1.07382         14.4342         7.30443         7.30443 
        1.07993         14.3099         7.20635         7.20635 
        1.08607         14.1995         7.10967         7.10967 
        1.09222         14.0452         7.01466         7.01466 
        1.09836         13.9095          6.9215          6.9215 
        1.10449         13.8158         6.83015         6.83015 
        1.11063         13.7027         6.74035         6.74035 
        1.11677         13.6135         6.65219         6.65219 
         1.1229         13.4588         6.56577         6.56577 
        1.12903         13.3164         6.48081         6.48081 
        1.13518          13.223         6.39728         6.39728 
        1.14131          13.116         6.31527         6.31527 
        1.14745         12.9288         6.23475         6.23475 
        1.15359         12.7961         6.15561         6.15561 
        1.15973          12.718         6.07782         6.07782 
        1.16584         12.5981         6.00172         6.00172 
        1.17197         12.4572         5.92681         5.92681 
        1.17811         12.3848         5.85296         5.85296 
        1.18424         12.2668         5.78058         5.78058 
        1.19038         12.2076         5.70921         5.70921 
        1.19652         12.0519         5.63908         5.63908 
        1.20267         11.9995         5.57012         5.57012 
        1.20881         11.8425         5.50233         5.50233 
        1.21495         11.7781         5.43578         5.43578 
        1.22108         11.7077         5.37034         5.37034 
         1.2272         11.5967         5.30613         5.30613 
        1.23334          11.524         5.24282         5.24282 
        1.23949         11.4117         5.18039         5.18039 
        1.24562          11.279         5.11915         5.11915 
        1.25174         11.2426         5.05899         5.05899 
        1.25789         11.1447         4.99961         4.99961 
        1.26402         11.0573         4.94129         4.94129 
        1.27014          10.994         4.88404         4.88404 
        1.27628         10.8616         4.82752         4.82752 
        1.28244         10.8382         4.77179         4.77179 
        1.28858           10.71         4.71701         4.71701 
        1.29471         10.5919         4.66322         4.66322 
        1.30084         10.5142         4.61031         4.61031 
        1.30697         10.4728         4.55814         4.55814 
        1.31312         10.3805         4.50671         4.50671 
        1.31925         10.3154         4.45623         4.45623 
        1.32537         10.2144         4.40657         4.40657 
        1.33151         10.1422         4.35749         4.35749 
        1.33765         10.0889         4.30919         4.30919 
        1.34378         10.0288         4.26171         4.26171 
        1.34992         9.92571         4.21492         4.21492 
        1.35606          9.8333         4.16872         4.16872 
         1.3622         9.76376         4.12331         4.12331 
        1.36833         9.73368         4.07867         4.07867 
        1.37445         9.65758         4.03472         4.03472 
        1.38059         9.57587         3.99128         3.99128 
        1.38675         9.52176         3.94838         3.94838 
        1.39288          9.4265         3.90627         3.90627 
        1.39901         9.36105          3.8648          3.8648 
        1.40515          9.3022         3.82384         3.82384 
         1.4113         9.23487         3.78349         3.78349 
        1.41742         9.18814         3.74387         3.74387 
        1.42355         9.09765         3.70474         3.70474 
         1.4297         9.04205         3.66606         3.66606 
        1.43585         8.98539         3.62794         3.62794 
        1.44198         8.94523         3.59051         3.59051 
        1.44809         8.86863         3.55368         3.55368 
        1.45423         8.80396         3.51723         3.51723 
        1.46036         8.74165         3.48135         3.48135 
        1.46649         8.68561         3.44597         3.44597 
        1.47263         8.63225         3.41104         3.41104 
        1.47877         8.56656         3.37662         3.37662 
        1.48491         8.51989         3.34261         3.34261 
        1.49104         8.45704         3.30914         3.30914 
        1.49718         8.41776         3.27611         3.27611 
        1.50333         8.36804         3.24347         3.24347 
        1.50947          8.3045         3.21134         3.21134 
         1.5156         8.26424         3.17969         3.17969 
        1.52172         8.18501         3.14847         3.14847 
        1.52787         8.16734         3.11761         3.11761 
          1.534         8.10384         3.08719         3.08719 
        1.54013         8.05898         3.05721         3.05721 
        1.54627         7.98873         3.02758         3.02758 
        1.55241         7.92014         2.99833         2.99833 
        1.55855         7.89907          2.9695          2.9695 
        1.56467         7.85913         2.94114         2.94114 
         1.5708         7.80516         2.91307         2.91307 
        1.57695         7.75494         2.88531         2.88531 
        1.58308         7.69727         2.85799         2.85799 
        1.58922         7.66207           2.831           2.831 
        1.59535          7.6191         2.80436         2.80436 
         1.6015         7.53382         2.77803         2.77803 
        1.60764         7.50108         2.75205         2.75205 
        1.61376         7.47223         2.72648         2.72648 
        1.61989         7.41032         2.70121         2.70121 
        1.62604         7.38914          2.6762          2.6762 
        1.63218         7.34582         2.65152         2.65152 
        1.63831         7.28666         2.62721         2.62721 
        1.64444         7.23355          2.6032          2.6032 
        1.65059         7.18922         2.57942         2.57942 
        1.65673          7.1702         2.55597         2.55597 
        1.66285         7.10698         2.53288         2.53288 
        1.66898         7.09042         2.51006         2.51006 
        1.67512         7.05771         2.48748         2.48748 
        1.68127         6.98519         2.46515         2.46515 
         1.6874         6.97279         2.44315         2.44315 
        1.69353         6.89388         2.42143         2.42143 
        1.69967         6.87559         2.39992         2.39992 
        1.70581         6.83528         2.37868         2.37868 
        1.71193         6.79867         2.35778         2.35778 
        1.71806         6.76052         2.33708         2.33708 
        1.72421         6.71878         2.31659         2.31659 
        1.73035         6.69108         2.29637         2.29637 
        1.73649          6.6632         2.27639         2.27639 
        1.74262         6.59233         2.25667         2.25667 
        1.74876         6.58334         2.23717         2.23717 
        1.75489         6.54838         2.21794         2.21794 
        1.76101         6.48702         2.19894         2.19894 
        1.76715         6.48333         2.18013         2.18013 
        1.77329         6.43104         2.16152         2.16152 
        1.77943         6.38204         2.14312         2.14312 
        1.78557          6.3845         2.12496         2.12496 
        1.79171         6.33153         2.10701         2.10701 
        1.79785         6.30419         2.08926         2.08926 
        1.80399         6.26487         2.07172         2.07172 
        1.81012         6.22964          2.0544          2.0544 
        1.81625         6.19329         2.03729         2.03729 
        1.82239         6.16315         2.02035         2.02035 
        1.82853         6.11676          2.0036          2.0036 
        1.83466         6.07884         1.98706         1.98706 
        1.84078         6.05435         1.97073         1.97073 
        1.84692         6.04017         1.95455         1.95455 
        1.85306         6.00271         1.93853         1.93853 
         1.8592         5.97966         1.92272         1.92272 
        1.86533         5.93412         1.90709         1.90709 
        1.87147         5.90983         1.89162         1.89162 
        1.87761         5.88584         1.87631         1.87631 
