# k  (h/Mpc)    P(k)  (Mpc/h)^3    P_linear(k)  (Mpc/h)^3     P_NL(k)  ShotnoiseSubtracted = false
     0.00783031         1393.51         1404.35         1404.35 
       0.013688         1617.37         1635.68         1635.68 
       0.019231         1570.39         1577.68         1577.68 
      0.0249154         1395.55          1392.9          1392.9 
      0.0312784         1154.68         1153.93         1153.93 
      0.0375637         952.039         953.247         953.247 
      0.0433917         821.173         818.748         818.748 
      0.0492413         728.592         728.579         728.579 
      0.0555754          666.12         663.957         663.957 
      0.0619321         608.539         612.993         612.993 
       0.067871         563.316         564.066         564.066 
      0.0738098         508.889         508.669         508.669 
      0.0800417          447.75         446.146         446.146 
      0.0862327          387.52         386.645         386.645 
      0.0921407         339.386         338.569         338.569 
      0.0982031         303.553          301.27          301.27 
       0.104506         274.942         274.942         274.942 
       0.110769         258.163         257.925         257.925 
       0.116806         247.257           245.7           245.7 
       0.122832         233.689         233.606         233.606 
       0.129052         219.583         218.715         218.715 
       0.135211         202.987         201.213         201.213 
       0.141259         183.887         182.796         182.796 
       0.147318         165.709         165.243         165.243 
       0.153489         151.272         150.094         150.094 
       0.159709         140.266         138.464         138.464 
       0.165845         130.667         130.327         130.327 
       0.171974         126.417         124.505         124.505 
       0.178125         121.232         119.665         119.665 
       0.184229         115.459         114.703         114.703 
        0.19034         110.511         108.927         108.927 
       0.196428         103.895         102.334         102.334 
       0.202534         95.8961         95.3336         95.3336 
       0.208729         90.1876         88.5037         88.5037 
       0.214876         84.7966         82.5633         82.5633 
       0.220989         78.9559         77.7568         77.7568 
       0.227147         76.1005         73.9828         73.9828 
        0.23329         73.0995         70.9979         70.9979 
       0.239377         70.6475         68.4171         68.4171 
       0.245482         67.7344         65.8526         65.8526 
       0.251667         64.5448         63.0619         63.0619 
       0.257832         62.2527         60.0482         60.0482 
       0.263955         58.6217         56.9469         56.9469 
       0.270079         55.5986         53.9277         53.9277 
        0.27624         52.6267         51.1493         51.1493 
       0.282372         50.3412         48.7473         48.7473 
        0.28843         48.9087          46.731          46.731 
       0.294538         46.9319         44.9883         44.9883 
       0.300721          44.959         43.4024         43.4024 
        0.30691         43.8081         41.8792         41.8792 
       0.313033         42.0733         40.3556         40.3556 
       0.319153          40.954         38.7933         38.7933 
       0.325316         38.8454         37.2022         37.2022 
        0.33145         37.2661         35.6538         35.6538 
       0.337538         35.8986         34.2029         34.2029 
       0.343633         34.6903         32.8757         32.8757 
       0.349808         33.3692         31.6644         31.6644 
       0.355968          32.204         30.5771         30.5771 
       0.362074         31.4476         29.5837         29.5837 
       0.368217         30.4211         28.6338         28.6338 
       0.374374          29.652         27.7046         27.7046 
       0.380519         28.4205         26.7834         26.7834 
       0.386598         27.4418         25.8827         25.8827 
       0.392688         26.4789         25.0007         25.0007 
        0.39888         25.8082           24.14           24.14 
       0.405048         25.0498         23.3333         23.3333 
       0.411186         24.2353         22.5841         22.5841 
       0.417313         23.4947         21.8869         21.8869 
       0.423458         22.7285         21.2316         21.2316 
       0.429607          22.272         20.6075         20.6075 
       0.435692         21.7658         20.0109         20.0109 
       0.441815         20.9549         19.4268         19.4268 
       0.447964         20.2211         18.8542         18.8542 
       0.454126         19.8238         18.2951         18.2951 
       0.460267         19.4509         17.7573         17.7573 
       0.466387         18.8407         17.2446         17.2446 
        0.47254         18.4431         16.7536         16.7536 
       0.478662         17.8508         16.2888         16.2888 
       0.484765         17.4045         15.8479         15.8479 
       0.490885         16.8728         15.4253         15.4253 
       0.497035         16.4614         15.0164         15.0164 
       0.503198         16.1206         14.6192         14.6192 
       0.509342         15.6121          14.235          14.235 
       0.515458         15.3324         13.8643         13.8643 
       0.521598         14.9592         13.5041         13.5041 
       0.527764         14.6835         13.1549         13.1549 
       0.533884         14.2246         12.8209         12.8209 
           0.54         13.9346         12.5001         12.5001 
       0.546137         13.4985         12.1909         12.1909 
       0.552299          13.235         11.8923         11.8923 
       0.558452         12.9113         11.6047         11.6047 
       0.564573         12.6856         11.3276         11.3276 
       0.570708         12.3794         11.0581         11.0581 
       0.576825         12.1396         10.7976         10.7976 
       0.582926         11.8566         10.5459         10.5459 
       0.589034         11.6097         10.3019         10.3019 
       0.595184         11.4272         10.0641         10.0641 
       0.601379         11.0985          9.8325          9.8325 
       0.607522         10.8732          9.6102          9.6102 
       0.613639         10.6312         9.39587         9.39587 
       0.619772         10.4381         9.18774         9.18774 
       0.625918         10.2042         8.98565         8.98565 
       0.632068          10.058         8.78963         8.78963 
       0.638161         9.82557         8.60123         8.60123 
         0.6443         9.62855         8.41699         8.41699 
       0.650464         9.39208         8.23741         8.23741 
       0.656582         9.28566         8.06428         8.06428 
       0.662703         9.12403         7.89603         7.89603 
       0.668861         8.86913         7.73161         7.73161 
       0.675024         8.70896         7.57177         7.57177 
       0.681124          8.6646         7.41811         7.41811 
       0.687237         8.45164         7.26847         7.26847 
       0.693381         8.22992         7.12233         7.12233 
       0.699536         8.15286         6.98002         6.98002 
       0.705665         7.98206         6.84224         6.84224 
       0.711789         7.80695         6.70834         6.70834 
       0.717957         7.63606         6.57713         6.57713 
        0.72409         7.54813         6.45015         6.45015 
       0.730186         7.47487          6.3273          6.3273 
       0.736317         7.28714         6.20698         6.20698 
       0.742472         7.19052         6.08935         6.08935 
       0.748622          7.0605         5.97488         5.97488 
        0.75476          6.8705          5.8636          5.8636 
       0.760888          6.8097         5.75533         5.75533 
       0.767043         6.64967         5.64937         5.64937 
       0.773185         6.55496         5.54631         5.54631 
       0.779291         6.50596         5.44641         5.44641 
       0.785407         6.36571         5.34884         5.34884 
       0.791564         6.26707         5.25306         5.25306 
       0.797719         6.14006         5.15967         5.15967 
       0.803834         6.07642         5.06916         5.06916 
       0.809972         5.95281          4.9805          4.9805 
       0.816124         5.86613         4.89378         4.89378 
       0.822261          5.7822         4.80937         4.80937 
       0.828378         5.69125          4.7272          4.7272 
       0.834502         5.60613         4.64689         4.64689 
       0.840667         5.53893         4.56793         4.56793 
       0.846816          5.4166         4.49104         4.49104 
       0.852925         5.35471         4.41641         4.41641 
       0.859047         5.26961         4.34332         4.34332 
       0.865192         5.18622         4.27165         4.27165 
       0.871341         5.10872         4.20156         4.20156 
       0.877463         5.02838         4.13336         4.13336 
       0.883569         4.97165         4.06686         4.06686 
       0.889708         4.88907         4.00148         4.00148 
       0.895864         4.81911         3.93737         3.93737 
       0.902008         4.73952         3.87481         3.87481 
       0.908149         4.67106         3.81365         3.81365 
       0.914301         4.61754         3.75371         3.75371 
       0.920448         4.55597         3.69512         3.69512 
       0.926574         4.51186         3.63799         3.63799 
       0.932687         4.42795         3.58219         3.58219 
       0.938823          4.3495         3.52736         3.52736 
       0.944975         4.31792         3.47356         3.47356 
       0.951105         4.23105         3.42107         3.42107 
       0.957225         4.20052         3.36976         3.36976 
       0.963368         4.13796         3.31933         3.31933 
       0.969511         4.08278         3.26993         3.26993 
       0.975621         4.02096          3.2218          3.2218 
       0.981748           3.951         3.17452         3.17452 
       0.987916         3.91097         3.12789         3.12789 
        0.99406         3.87204         3.08237         3.08237 
        1.00019          3.8249         3.03785         3.03785 
        1.00632         3.78258         2.99425         2.99425 
        1.01246         3.72407         2.95145         2.95145 
        1.01859         3.67417         2.90955         2.90955 
        1.02471         3.61368         2.86851         2.86851 
        1.03085          3.5864         2.82813         2.82813 
        1.03698         3.54023         2.78861         2.78861 
        1.04314         3.49455         2.74968         2.74968 
        1.04929         3.44277         2.71158         2.71158 
        1.05541         3.40005         2.67436         2.67436 
        1.06154         3.36711         2.63774         2.63774 
        1.06769         3.34072         2.60176         2.60176 
        1.07382         3.27833         2.56656         2.56656 
        1.07993         3.23692          2.5321          2.5321 
        1.08607         3.21278         2.49813         2.49813 
        1.09222         3.16225         2.46474         2.46474 
        1.09836          3.1501         2.43201         2.43201 
        1.10449         3.07834         2.39991         2.39991 
        1.11063         3.05827         2.36836         2.36836 
        1.11677         3.02464         2.33738         2.33738 
         1.1229         2.98794         2.30702         2.30702 
        1.12903         2.96026         2.27717         2.27717 
        1.13518         2.91333         2.24782         2.24782 
        1.14131         2.87923           2.219           2.219 
        1.14745          2.8428         2.19071         2.19071 
        1.15359         2.81149          2.1629          2.1629 
        1.15973         2.77836         2.13557         2.13557 
        1.16584         2.75491         2.10883         2.10883 
        1.17197         2.71672         2.08251         2.08251 
        1.17811         2.68549         2.05656         2.05656 
        1.18424         2.65623         2.03112         2.03112 
        1.19038         2.63171         2.00605         2.00605 
        1.19652         2.60603          1.9814          1.9814 
        1.20267         2.58042         1.95718         1.95718 
        1.20881         2.54592         1.93336         1.93336 
        1.21495         2.52104         1.90997         1.90997 
        1.22108         2.49325         1.88698         1.88698 
         1.2272         2.45861         1.86442         1.86442 
        1.23334         2.44768         1.84217         1.84217 
        1.23949         2.41181         1.82024         1.82024 
        1.24562         2.39054         1.79872         1.79872 
        1.25174         2.37325         1.77758         1.77758 
        1.25789         2.33242         1.75672         1.75672 
        1.26402         2.31339         1.73622         1.73622 
        1.27014         2.28986         1.71611         1.71611 
        1.27628         2.26403         1.69625         1.69625 
        1.28244         2.24399         1.67667         1.67667 
        1.28858         2.22498         1.65742         1.65742 
        1.29471         2.19268         1.63852         1.63852 
        1.30084         2.17094         1.61993         1.61993 
        1.30697         2.15657          1.6016          1.6016 
        1.31312         2.13241         1.58352         1.58352 
        1.31925         2.11007         1.56579         1.56579 
        1.32537         2.09193         1.54834         1.54834 
        1.33151         2.06736         1.53109         1.53109 
        1.33765         2.04834         1.51412         1.51412 
        1.34378         2.03454         1.49744         1.49744 
        1.34992         2.01263           1.481           1.481 
        1.35606         1.99375         1.46477         1.46477 
         1.3622         1.97469         1.44881         1.44881 
        1.36833         1.95016         1.43313         1.43313 
        1.37445         1.92923         1.41768         1.41768 
        1.38059         1.91147         1.40242         1.40242 
        1.38675         1.89447         1.38734         1.38734 
        1.39288         1.88376         1.37255         1.37255 
        1.39901         1.85708         1.35798         1.35798 
        1.40515         1.84233         1.34359         1.34359 
         1.4113         1.82841         1.32941         1.32941 
        1.41742         1.80685         1.31549         1.31549 
        1.42355         1.79002         1.30174         1.30174 
         1.4297          1.7764         1.28815         1.28815 
        1.43585         1.76093         1.27475         1.27475 
        1.44198         1.74204          1.2616          1.2616 
        1.44809         1.73002         1.24866         1.24866 
        1.45423         1.71209         1.23585         1.23585 
        1.46036         1.69907         1.22325         1.22325 
        1.46649         1.67775         1.21081         1.21081 
        1.47263          1.6701         1.19854         1.19854 
        1.47877         1.65678         1.18644         1.18644 
        1.48491         1.63484         1.17449         1.17449 
        1.49104         1.62328         1.16274         1.16274 
        1.49718         1.60974         1.15113         1.15113 
        1.50333         1.59371         1.13966         1.13966 
        1.50947         1.57887         1.12837         1.12837 
         1.5156         1.56684         1.11725         1.11725 
        1.52172         1.55341         1.10628         1.10628 
        1.52787         1.54108         1.09544         1.09544 
          1.534         1.52801         1.08475         1.08475 
        1.54013         1.51429         1.07421         1.07421 
        1.54627         1.50008          1.0638          1.0638 
        1.55241         1.48551         1.05352         1.05352 
        1.55855         1.47555          1.0434          1.0434 
        1.56467         1.46469         1.03343         1.03343 
         1.5708          1.4504         1.02357         1.02357 
        1.57695         1.43539         1.01381         1.01381 
        1.58308         1.42182         1.00421         1.00421 
        1.58922         1.41615        0.994729        0.994729 
        1.59535         1.39991        0.985371        0.985371 
         1.6015         1.38813         0.97612         0.97612 
        1.60764         1.38061        0.966991        0.966991 
        1.61376         1.36445        0.958005        0.958005 
        1.61989         1.35314        0.949125        0.949125 
        1.62604         1.34142        0.940337        0.940337 
        1.63218         1.33478        0.931667        0.931667 
        1.63831         1.32489        0.923125        0.923125 
        1.64444         1.31179        0.914686        0.914686 
        1.65059         1.30432        0.906333        0.906333 
        1.65673         1.28911        0.898093        0.898093 
        1.66285         1.27926        0.889978        0.889978 
        1.66898         1.26967         0.88196         0.88196 
        1.67512          1.2579        0.874026        0.874026 
        1.68127         1.24878        0.866181        0.866181 
         1.6874         1.24263         0.85845         0.85845 
        1.69353         1.22858        0.850818        0.850818 
        1.69967         1.21904         0.84326         0.84326 
        1.70581         1.21359        0.835797        0.835797 
        1.71193         1.19674        0.828453        0.828453 
        1.71806         1.19207        0.821181        0.821181 
        1.72421          1.1844        0.813982        0.813982 
        1.73035         1.17123        0.806877        0.806877 
        1.73649         1.16538        0.799858        0.799858 
        1.74262         1.15568        0.792928        0.792928 
        1.74876         1.14681        0.786075        0.786075 
        1.75489         1.13735        0.779318        0.779318 
        1.76101         1.12694        0.772641        0.772641 
        1.76715         1.12213        0.766034        0.766034 
        1.77329         1.11138        0.759495        0.759495 
        1.77943         1.10387         0.75303         0.75303 
        1.78557         1.09636         0.74665         0.74665 
        1.79171         1.08863        0.740342        0.740342 
        1.79785         1.08105        0.734105        0.734105 
        1.80399         1.07169        0.727942        0.727942 
        1.81012         1.06364        0.721857        0.721857 
        1.81625          1.0533        0.715844        0.715844 
        1.82239         1.04799         0.70989         0.70989 
        1.82853         1.04033        0.704007        0.704007 
        1.83466         1.03041        0.698196        0.698196 
        1.84078         1.02371        0.692457        0.692457 
        1.84692         1.01633        0.686772        0.686772 
        1.85306         1.01041        0.681144        0.681144 
         1.8592         1.00122        0.675588        0.675588 
        1.86533        0.995431        0.670097        0.670097 
        1.87147        0.988438         0.66466         0.66466 
        1.87761        0.981629        0.659281        0.659281 
