# k  (h/Mpc)    Pcb(k)  (Mpc/h)^3    Pcb_linear(k) (Mpc/h)^3    Pcb_NL(k) (Mpc/h)^3   ShotnoiseSubtracted = false
     0.00783031         13876.7         13953.5         13953.5 
       0.013688         15839.4         16229.7         16229.7 
       0.019231         15439.1         15647.4         15647.4 
      0.0249154         13877.9         13811.7         13811.7 
      0.0312784         11378.6         11440.6         11440.6 
      0.0375637         9340.73         9450.23         9450.23 
      0.0433917         8113.64         8116.46         8116.46 
      0.0492413         7175.51         7222.35         7222.35 
      0.0555754         6585.95         6581.59         6581.59 
      0.0619321         5914.86         6076.28         6076.28 
       0.067871         5523.16         5591.21         5591.21 
      0.0738098         5031.12         5042.05         5042.05 
      0.0800417         4446.04         4422.27         4422.27 
      0.0862327         3854.33         3832.46         3832.46 
      0.0921407          3410.8          3355.9          3355.9 
      0.0982031         3086.65         2986.18         2986.18 
       0.104506         2775.04          2725.2          2725.2 
       0.110769         2613.92         2556.52         2556.52 
       0.116806         2520.85         2435.34         2435.34 
       0.122832         2371.25         2315.46         2315.46 
       0.129052          2222.2         2167.86         2167.86 
       0.135211         2102.46         1994.39         1994.39 
       0.141259         1903.46         1811.83         1811.83 
       0.147318         1726.75         1637.85         1637.85 
       0.153489         1599.09          1487.7          1487.7 
       0.159709         1521.16         1372.42         1372.42 
       0.165845         1399.21         1291.76         1291.76 
       0.171974         1372.85         1234.06         1234.06 
       0.178125         1325.99         1186.08         1186.08 
       0.184229          1231.2         1136.91         1136.91 
        0.19034         1199.31         1079.65         1079.65 
       0.196428         1149.81          1014.3          1014.3 
       0.202534         1060.93         944.915         944.915 
       0.208729         1031.33         877.219         877.219 
       0.214876         976.477         818.339         818.339 
       0.220989         916.588         770.701         770.701 
       0.227147         892.786         733.296         733.296 
        0.23329         858.703         703.706         703.706 
       0.239377         848.961         678.127         678.127 
       0.245482         805.537         652.708         652.708 
       0.251667         773.466         625.046         625.046 
       0.257832         759.301         595.176         595.176 
       0.263955         716.928         564.437         564.437 
       0.270079         689.506         534.511         534.511 
        0.27624         658.947         506.975         506.975 
       0.282372          644.83         483.165         483.165 
        0.28843         636.525         463.181         463.181 
       0.294538         603.835         445.907         445.907 
       0.300721         587.919         430.188         430.188 
        0.30691         575.711         415.091         415.091 
       0.313033         549.224          399.99          399.99 
       0.319153         540.294         384.505         384.505 
       0.325316          530.39         368.733         368.733 
        0.33145         516.451         353.387         353.387 
       0.337538         496.813         339.006         339.006 
       0.343633         482.423          325.85          325.85 
       0.349808         470.411         313.846         313.846 
       0.355968         461.006         303.069         303.069 
       0.362074         444.051         293.222         293.222 
       0.368217         441.151         283.808         283.808 
       0.374374         432.795         274.596         274.596 
       0.380519          414.92         265.466         265.466 
       0.386598         410.003         256.539         256.539 
       0.392688         399.157         247.797         247.797 
        0.39888         388.928         239.266         239.266 
       0.405048         380.197          231.27          231.27 
       0.411186         378.976         223.844         223.844 
       0.417313         372.981         216.934         216.934 
       0.423458         362.736         210.439         210.439 
       0.429607         351.737         204.253         204.253 
       0.435692         346.286          198.34          198.34 
       0.441815         340.112         192.551         192.551 
       0.447964         331.836         186.875         186.875 
       0.454126         327.908         181.334         181.334 
       0.460267          322.34         176.003         176.003 
       0.466387         315.385         170.921         170.921 
        0.47254         311.172         166.054         166.054 
       0.478662         303.922         161.448         161.448 
       0.484765         299.513         157.078         157.078 
       0.490885         296.248          152.89          152.89 
       0.497035         289.939         148.836         148.836 
       0.503198         288.756           144.9           144.9 
       0.509342         281.893         141.091         141.091 
       0.515458         276.806         137.417         137.417 
       0.521598         271.978         133.848         133.848 
       0.527764         268.352         130.386         130.386 
       0.533884         266.191         127.075         127.075 
           0.54         261.894         123.895         123.895 
       0.546137          255.92         120.832         120.832 
       0.552299         254.478         117.872         117.872 
       0.558452         250.012         115.021         115.021 
       0.564573         248.264         112.274         112.274 
       0.570708         243.348         109.603         109.603 
       0.576825         239.189         107.021         107.021 
       0.582926         237.485         104.526         104.526 
       0.589034          233.23         102.108         102.108 
       0.595184         231.474         99.7515         99.7515 
       0.601379         227.722         97.4557         97.4557 
       0.607522           222.5         95.2523         95.2523 
       0.613639         221.536          93.128          93.128 
       0.619772          220.29         91.0651         91.0651 
       0.625918         216.407         89.0621         89.0621 
       0.632068         213.417         87.1192         87.1192 
       0.638161         211.936         85.2518         85.2518 
         0.6443         209.074         83.4257         83.4257 
       0.650464         205.821         81.6457         81.6457 
       0.656582         203.817         79.9297         79.9297 
       0.662703         202.504         78.2621         78.2621 
       0.668861         198.264         76.6325         76.6325 
       0.675024         197.663         75.0482         75.0482 
       0.681124          194.91         73.5252         73.5252 
       0.687237         193.364          72.042          72.042 
       0.693381         190.076         70.5936         70.5936 
       0.699536          189.15          69.183          69.183 
       0.705665         186.889         67.8174         67.8174 
       0.711789         184.348         66.4903         66.4903 
       0.717957         182.871         65.1897         65.1897 
        0.72409         180.259         63.9312         63.9312 
       0.730186         181.143         62.7135         62.7135 
       0.736317         178.142          61.521          61.521 
       0.742472         175.827          60.355          60.355 
       0.748622         173.477         59.2205         59.2205 
        0.75476         173.705         58.1175         58.1175 
       0.760888         171.257         57.0444         57.0444 
       0.767043         168.531         55.9942         55.9942 
       0.773185         167.042         54.9727         54.9727 
       0.779291          165.38         53.9825         53.9825 
       0.785407         164.251         53.0154         53.0154 
       0.791564         162.835         52.0661         52.0661 
       0.797719         160.079         51.1405         51.1405 
       0.803834         160.703         50.2434         50.2434 
       0.809972         158.614         49.3646         49.3646 
       0.816124         155.902         48.5051         48.5051 
       0.822261         155.046         47.6684         47.6684 
       0.828378         154.439          46.854          46.854 
       0.834502         152.611          46.058          46.058 
       0.840667         152.312         45.2754         45.2754 
       0.846816          149.48         44.5133         44.5133 
       0.852925         148.964         43.7735         43.7735 
       0.859047         147.429         43.0491         43.0491 
       0.865192         146.815         42.3388         42.3388 
       0.871341         145.177         41.6441         41.6441 
       0.877463         143.832         40.9681         40.9681 
       0.883569         143.606          40.309          40.309 
       0.889708         142.164          39.661          39.661 
       0.895864         140.563         39.0256         39.0256 
       0.902008         139.135         38.4055         38.4055 
       0.908149         137.845         37.7993         37.7993 
       0.914301          136.92         37.2052         37.2052 
       0.920448         136.876         36.6245         36.6245 
       0.926574         134.704         36.0582         36.0582 
       0.932687         134.482         35.5051         35.5051 
       0.938823         133.299         34.9617         34.9617 
       0.944975         132.519         34.4285         34.4285 
       0.951105         131.059         33.9082         33.9082 
       0.957225          130.26         33.3997         33.3997 
       0.963368         129.428         32.8998         32.8998 
       0.969511         127.961         32.4102         32.4102 
       0.975621         126.441         31.9331         31.9331 
       0.981748          126.08         31.4645         31.4645 
       0.987916         125.381         31.0023         31.0023 
        0.99406         124.442         30.5511         30.5511 
        1.00019         123.689         30.1099         30.1099 
        1.00632         122.607         29.6777         29.6777 
        1.01246         121.711         29.2535         29.2535 
        1.01859         120.806         28.8382         28.8382 
        1.02471          119.93         28.4315         28.4315 
        1.03085         119.015         28.0312         28.0312 
        1.03698         118.152         27.6395         27.6395 
        1.04314         117.771         27.2536         27.2536 
        1.04929         116.986          26.876          26.876 
        1.05541         116.236         26.5071         26.5071 
        1.06154         114.944         26.1442         26.1442 
        1.06769         114.429         25.7875         25.7875 
        1.07382         113.772         25.4387         25.4387 
        1.07993         112.815         25.0971         25.0971 
        1.08607         112.462         24.7603         24.7603 
        1.09222           111.3         24.4295         24.4295 
        1.09836         110.659         24.1051         24.1051 
        1.10449         109.983         23.7869         23.7869 
        1.11063         108.972         23.4742         23.4742 
        1.11677         108.559         23.1671         23.1671 
         1.1229         107.557         22.8662         22.8662 
        1.12903         106.772         22.5703         22.5703 
        1.13518         105.993         22.2794         22.2794 
        1.14131         105.663         21.9938         21.9938 
        1.14745         104.814         21.7133         21.7133 
        1.15359         103.989         21.4377         21.4377 
        1.15973         103.597         21.1668         21.1668 
        1.16584         102.796         20.9018         20.9018 
        1.17197         102.356         20.6409         20.6409 
        1.17811         101.461         20.3837         20.3837 
        1.18424         100.818         20.1316         20.1316 
        1.19038         100.289         19.8831         19.8831 
        1.19652         99.6513         19.6388         19.6388 
        1.20267         98.9188         19.3987         19.3987 
        1.20881         98.1547         19.1626         19.1626 
        1.21495         97.8645         18.9308         18.9308 
        1.22108         97.1391         18.7029         18.7029 
         1.2272         96.6342         18.4793         18.4793 
        1.23334         96.1499         18.2588         18.2588 
        1.23949         95.5372         18.0414         18.0414 
        1.24562          94.704         17.8281         17.8281 
        1.25174         94.5803         17.6186         17.6186 
        1.25789         93.6267         17.4118         17.4118 
        1.26402         93.3325         17.2087         17.2087 
        1.27014         92.4704         17.0093         17.0093 
        1.27628         92.0928         16.8125         16.8125 
        1.28244         91.7131         16.6184         16.6184 
        1.28858         90.9706         16.4276         16.4276 
        1.29471         90.4246         16.2403         16.2403 
        1.30084         89.6804          16.056          16.056 
        1.30697         89.2786         15.8743         15.8743 
        1.31312         88.7509         15.6952         15.6952 
        1.31925          88.029         15.5194         15.5194 
        1.32537          87.626         15.3464         15.3464 
        1.33151         87.5008         15.1755         15.1755 
        1.33765         86.6682         15.0073         15.0073 
        1.34378         86.3777          14.842          14.842 
        1.34992         85.8701          14.679          14.679 
        1.35606         85.3802         14.5181         14.5181 
         1.3622         85.1016           14.36           14.36 
        1.36833         84.2772         14.2045         14.2045 
        1.37445         84.0248         14.0514         14.0514 
        1.38059         83.4738         13.9002         13.9002 
        1.38675         82.8996         13.7507         13.7507 
        1.39288         82.3654         13.6041         13.6041 
        1.39901         82.0018         13.4597         13.4597 
        1.40515         81.4776          13.317          13.317 
         1.4113         81.0186         13.1765         13.1765 
        1.41742         80.7153         13.0385         13.0385 
        1.42355         80.3235         12.9023         12.9023 
         1.4297         79.7425         12.7675         12.7675 
        1.43585         79.3753         12.6348         12.6348 
        1.44198         78.6578         12.5044         12.5044 
        1.44809         78.2055         12.3762         12.3762 
        1.45423         78.2119         12.2492         12.2492 
        1.46036         77.4844         12.1243         12.1243 
        1.46649         77.0169          12.001          12.001 
        1.47263         76.4687         11.8794         11.8794 
        1.47877          76.215         11.7595         11.7595 
        1.48491         75.7609         11.6411         11.6411 
        1.49104         75.1513         11.5245         11.5245 
        1.49718         74.8465         11.4095         11.4095 
        1.50333         74.5319         11.2958         11.2958 
        1.50947         74.2182         11.1839         11.1839 
         1.5156         73.8605         11.0737         11.0737 
        1.52172         73.1355          10.965          10.965 
        1.52787           72.95         10.8575         10.8575 
          1.534         72.4922         10.7515         10.7515 
        1.54013         72.1754         10.6471         10.6471 
        1.54627         71.5961         10.5439         10.5439 
        1.55241         71.5588         10.4421         10.4421 
        1.55855         70.7458         10.3417         10.3417 
        1.56467         70.3739         10.2429         10.2429 
         1.5708          69.905         10.1451         10.1451 
        1.57695         69.7135         10.0485         10.0485 
        1.58308         69.3647         9.95331         9.95331 
        1.58922         69.1487         9.85931         9.85931 
        1.59535         68.8933         9.76655         9.76655 
         1.6015         68.2276         9.67486         9.67486 
        1.60764         67.9031         9.58439         9.58439 
        1.61376         67.6953         9.49532         9.49532 
        1.61989         67.1571          9.4073          9.4073 
        1.62604         66.9257         9.32021         9.32021 
        1.63218         66.5072         9.23426         9.23426 
        1.63831         66.1871          9.1496          9.1496 
        1.64444         65.7964         9.06596         9.06596 
        1.65059         65.4426         8.98317         8.98317 
        1.65673         65.2182          8.9015          8.9015 
        1.66285         64.7721         8.82107         8.82107 
        1.66898         64.2934          8.7416          8.7416 
        1.67512         63.9328         8.66295         8.66295 
        1.68127          63.752          8.5852          8.5852 
         1.6874         63.3287         8.50857         8.50857 
        1.69353         63.0123         8.43293         8.43293 
        1.69967         62.6712         8.35802         8.35802 
        1.70581         62.3921         8.28405         8.28405 
        1.71193         61.9451         8.21125         8.21125 
        1.71806         61.7769         8.13918         8.13918 
        1.72421         61.3848         8.06782         8.06782 
        1.73035         61.0118          7.9974          7.9974 
        1.73649          60.694         7.92783         7.92783 
        1.74262          60.404         7.85915         7.85915 
        1.74876          60.093         7.79122         7.79122 
        1.75489          59.794         7.72425         7.72425 
        1.76101         59.5428         7.65807         7.65807 
        1.76715         59.1431         7.59258         7.59258 
        1.77329         58.8172         7.52778         7.52778 
        1.77943         58.6759          7.4637          7.4637 
        1.78557         58.3488         7.40046         7.40046 
        1.79171         57.8495         7.33793         7.33793 
        1.79785         57.6351         7.27612         7.27612 
        1.80399         57.4885         7.21503         7.21503 
        1.81012         57.0094         7.15472         7.15472 
        1.81625         56.7822         7.09512         7.09512 
        1.82239         56.3488         7.03611         7.03611 
        1.82853         56.2263          6.9778          6.9778 
        1.83466         55.7923          6.9202          6.9202 
        1.84078         55.5463         6.86332         6.86332 
        1.84692          55.456         6.80697         6.80697 
        1.85306         55.1712         6.75119         6.75119 
         1.8592         54.8138         6.69612         6.69612 
        1.86533         54.5113          6.6417          6.6417 
        1.87147         54.2027         6.58781         6.58781 
