# k  (h/Mpc)    P(k)  (Mpc/h)^3    P_linear(k)  (Mpc/h)^3     P_NL(k)  ShotnoiseSubtracted = false
     0.00783031         9955.44         10014.8         10014.8 
       0.013688         11406.6         11652.3         11652.3 
       0.019231         11110.3         11235.4         11235.4 
      0.0249154         9963.36         9917.82         9917.82 
      0.0312784         8186.66         8215.45         8215.45 
      0.0375637         6726.08         6786.26         6786.26 
      0.0433917         5834.79         5828.54         5828.54 
      0.0492413         5162.97         5186.51         5186.51 
      0.0555754         4737.48         4726.39         4726.39 
      0.0619321         4268.84         4363.53         4363.53 
       0.067871         3981.33         4015.21         4015.21 
      0.0738098         3618.16         3620.84         3620.84 
      0.0800417         3195.31         3175.77         3175.77 
      0.0862327         2767.25         2752.21         2752.21 
      0.0921407         2441.02         2409.99         2409.99 
      0.0982031         2203.31         2144.48         2144.48 
       0.104506         1982.42         1957.06         1957.06 
       0.110769         1866.26         1835.93         1835.93 
       0.116806         1799.45         1748.91         1748.91 
       0.122832          1692.1         1662.82         1662.82 
       0.129052         1589.03         1556.82         1556.82 
       0.135211         1494.47         1432.24         1432.24 
       0.141259         1352.64         1301.15         1301.15 
       0.147318         1222.69          1176.2          1176.2 
       0.153489         1128.66         1068.37         1068.37 
       0.159709         1067.51         985.589         985.589 
       0.165845         982.584         927.664         927.664 
       0.171974         964.188         886.226         886.226 
       0.178125         928.627         851.771         851.771 
       0.184229         867.285         816.455         816.455 
        0.19034         841.209         775.341         775.341 
       0.196428         802.935          728.41          728.41 
       0.202534         738.367         678.581         678.581 
       0.208729         714.401         629.966         629.966 
       0.214876         676.496         587.682         587.682 
       0.220989         630.933         553.469         553.469 
       0.227147         615.071         526.606         526.606 
        0.23329         591.874         505.359         505.359 
       0.239377         581.878         486.989         486.989 
       0.245482         552.282         468.735         468.735 
       0.251667         528.972         448.871         448.871 
       0.257832         519.383          427.42          427.42 
       0.263955         488.195         405.345         405.345 
       0.270079         467.444         383.854         383.854 
        0.27624         446.095         364.078         364.078 
       0.282372         434.112         346.981         346.981 
        0.28843         429.389         332.629         332.629 
       0.294538         407.301         320.224         320.224 
       0.300721         394.225         308.936         308.936 
        0.30691         386.975         298.094         298.094 
       0.313033         368.731         287.248         287.248 
       0.319153         361.769         276.128         276.128 
       0.325316         352.911         264.803         264.803 
        0.33145         342.802         253.781         253.781 
       0.337538          329.62         243.454         243.454 
       0.343633         318.951         234.007         234.007 
       0.349808          310.09         225.385         225.385 
       0.355968         303.398         217.646         217.646 
       0.362074         293.454         210.575         210.575 
       0.368217         289.961         203.814         203.814 
       0.374374         283.098           197.2           197.2 
       0.380519         271.273         190.642         190.642 
       0.386598         266.939         184.231         184.231 
       0.392688         259.339         177.953         177.953 
        0.39888          253.11         171.826         171.826 
       0.405048         247.226         166.084         166.084 
       0.411186         245.153         160.752         160.752 
       0.417313         240.085         155.789         155.789 
       0.423458         233.646         151.125         151.125 
       0.429607         227.042         146.683         146.683 
       0.435692         223.113         142.436         142.436 
       0.441815         218.606         138.278         138.278 
       0.447964         212.113         134.203         134.203 
       0.454126         208.929         130.223         130.223 
       0.460267         206.013         126.395         126.395 
       0.466387         201.167         122.745         122.745 
        0.47254         198.533         119.251         119.251 
       0.478662         192.689         115.942         115.942 
       0.484765         189.904         112.804         112.804 
       0.490885         186.988         109.796         109.796 
       0.497035         184.099         106.885         106.885 
       0.503198         181.944         104.058         104.058 
       0.509342         177.141         101.323         101.323 
       0.515458         174.332         98.6847         98.6847 
       0.521598         170.216         96.1214         96.1214 
       0.527764         168.565         93.6355         93.6355 
       0.533884         167.287         91.2581         91.2581 
           0.54          163.36         88.9744         88.9744 
       0.546137         159.522         86.7741         86.7741 
       0.552299         157.762         84.6487         84.6487 
       0.558452         154.973         82.6011         82.6011 
       0.564573         153.993         80.6287         80.6287 
       0.570708         150.104         78.7107         78.7107 
       0.576825         148.005         76.8565         76.8565 
       0.582926         146.437         75.0648         75.0648 
       0.589034         143.936         73.3278         73.3278 
       0.595184         142.453         71.6357         71.6357 
       0.601379         139.759         69.9869         69.9869 
       0.607522         136.691         68.4046         68.4046 
       0.613639         135.708          66.879          66.879 
       0.619772         134.059         65.3976         65.3976 
       0.625918         132.724         63.9591         63.9591 
       0.632068         129.665         62.5638         62.5638 
       0.638161         128.496         61.2228         61.2228 
         0.6443          127.43         59.9114         59.9114 
       0.650464         124.749         58.6332         58.6332 
       0.656582         123.973         57.4008         57.4008 
       0.662703         122.581         56.2032         56.2032 
       0.668861         119.977         55.0329         55.0329 
       0.675024         119.844         53.8952         53.8952 
       0.681124         117.853         52.8014         52.8014 
       0.687237         116.365         51.7363         51.7363 
       0.693381          114.85         50.6962         50.6962 
       0.699536         113.706         49.6831         49.6831 
       0.705665         112.294         48.7025         48.7025 
       0.711789         110.638         47.7494         47.7494 
       0.717957         109.396         46.8154         46.8154 
        0.72409         108.153         45.9116         45.9116 
       0.730186          108.04         45.0372         45.0372 
       0.736317         106.356         44.1807         44.1807 
       0.742472         104.532         43.3434         43.3434 
       0.748622         102.935         42.5286         42.5286 
        0.75476         103.233         41.7366         41.7366 
       0.760888         101.966         40.9659         40.9659 
       0.767043         100.008         40.2117         40.2117 
       0.773185         98.8145         39.4781         39.4781 
       0.779291         97.7742         38.7671         38.7671 
       0.785407         96.9303         38.0726         38.0726 
       0.791564         96.1578         37.3908         37.3908 
       0.797719         94.6647         36.7261         36.7261 
       0.803834         94.5156         36.0818         36.0818 
       0.809972         93.5767         35.4508         35.4508 
       0.816124         92.0249         34.8335         34.8335 
       0.822261          91.198         34.2326         34.2326 
       0.828378         90.8936         33.6478         33.6478 
       0.834502         89.7374         33.0761         33.0761 
       0.840667         89.1068         32.5141         32.5141 
       0.846816         88.0222         31.9668         31.9668 
       0.852925         87.1152         31.4356         31.4356 
       0.859047         86.4361         30.9154         30.9154 
       0.865192         85.6094         30.4052         30.4052 
       0.871341         84.7785         29.9063         29.9063 
       0.877463         84.0329         29.4209         29.4209 
       0.883569         83.8593         28.9475         28.9475 
       0.889708         82.9842         28.4822         28.4822 
       0.895864         82.2198         28.0259         28.0259 
       0.902008         81.1788         27.5806         27.5806 
       0.908149         80.1996         27.1452         27.1452 
       0.914301         79.9828         26.7186         26.7186 
       0.920448         79.8584         26.3015         26.3015 
       0.926574         78.1126         25.8949         25.8949 
       0.932687         77.9761         25.4977         25.4977 
       0.938823         77.3864         25.1075         25.1075 
       0.944975          76.513         24.7245         24.7245 
       0.951105         75.7877         24.3509         24.3509 
       0.957225         75.5559         23.9857         23.9857 
       0.963368          74.708         23.6267         23.6267 
       0.969511         74.2279         23.2751         23.2751 
       0.975621         73.2887         22.9325         22.9325 
       0.981748         72.8197         22.5959         22.5959 
       0.987916          72.252          22.264          22.264 
        0.99406          72.013           21.94           21.94 
        1.00019         71.1102         21.6231         21.6231 
        1.00632         70.4923         21.3128         21.3128 
        1.01246         70.0986         21.0081         21.0081 
        1.01859         69.7367         20.7099         20.7099 
        1.02471         69.1602         20.4178         20.4178 
        1.03085         68.4676         20.1304         20.1304 
        1.03698         67.9524         19.8491         19.8491 
        1.04314         67.4636         19.5719         19.5719 
        1.04929         67.0434         19.3008         19.3008 
        1.05541         66.4939         19.0358         19.0358 
        1.06154         65.9953         18.7752         18.7752 
        1.06769         65.5599         18.5191         18.5191 
        1.07382         64.9459         18.2685         18.2685 
        1.07993         64.6928         18.0232         18.0232 
        1.08607         64.1856         17.7814         17.7814 
        1.09222         63.8314         17.5438         17.5438 
        1.09836         63.2514         17.3108         17.3108 
        1.10449         62.8428         17.0824         17.0824 
        1.11063         62.3582         16.8578         16.8578 
        1.11677         62.0404         16.6373         16.6373 
         1.1229         61.4012         16.4211         16.4211 
        1.12903         61.1465         16.2086         16.2086 
        1.13518         60.7453         15.9997         15.9997 
        1.14131         60.2776         15.7946         15.7946 
        1.14745         59.9962         15.5932         15.5932 
        1.15359         59.2132         15.3953         15.3953 
        1.15973         59.1582         15.2008         15.2008 
        1.16584         58.7222         15.0104         15.0104 
        1.17197         58.3194         14.8231         14.8231 
        1.17811         57.8745         14.6384         14.6384 
        1.18424         57.2896         14.4573         14.4573 
        1.19038         57.1679         14.2789         14.2789 
        1.19652         56.8101         14.1034         14.1034 
        1.20267         56.3414          13.931          13.931 
        1.20881         55.9713         13.7615         13.7615 
        1.21495         55.6099          13.595          13.595 
        1.22108         55.4749         13.4313         13.4313 
         1.2272         54.8841         13.2707         13.2707 
        1.23334         54.7207         13.1124         13.1124 
        1.23949         54.3015         12.9563         12.9563 
        1.24562         53.8429         12.8031         12.8031 
        1.25174          53.628         12.6526         12.6526 
        1.25789         53.3975         12.5041         12.5041 
        1.26402          53.016         12.3583         12.3583 
        1.27014         52.7315         12.2151         12.2151 
        1.27628         52.2949         12.0737         12.0737 
        1.28244         52.2524         11.9344         11.9344 
        1.28858         51.7487         11.7974         11.7974 
        1.29471         51.3511         11.6628         11.6628 
        1.30084         50.8765         11.5305         11.5305 
        1.30697          50.922            11.4            11.4 
        1.31312         50.5638         11.2714         11.2714 
        1.31925         50.1123         11.1451         11.1451 
        1.32537         49.8722         11.0209         11.0209 
        1.33151          49.611         10.8982         10.8982 
        1.33765         49.3209         10.7774         10.7774 
        1.34378         48.9991         10.6586         10.6586 
        1.34992         48.7888         10.5416         10.5416 
        1.35606         48.3883         10.4261         10.4261 
         1.3622         48.2379         10.3125         10.3125 
        1.36833          47.945         10.2008         10.2008 
        1.37445         47.5253         10.0909         10.0909 
        1.38059         47.3742         9.98228         9.98228 
        1.38675         46.9353         9.87498         9.87498 
        1.39288         46.8214         9.76967         9.76967 
        1.39901         46.4246         9.66595         9.66595 
        1.40515         46.2584         9.56351         9.56351 
         1.4113         46.0615         9.46258         9.46258 
        1.41742         45.7117         9.36349         9.36349 
        1.42355         45.5625         9.26564         9.26564 
         1.4297         45.3189         9.16889         9.16889 
        1.43585         45.0172         9.07356         9.07356 
        1.44198         44.7085         8.97995         8.97995 
        1.44809         44.3577         8.88783         8.88783 
        1.45423         44.2611         8.79666         8.79666 
        1.46036         44.0428         8.70694         8.70694 
        1.46649         43.7058         8.61843         8.61843 
        1.47263          43.491         8.53108         8.53108 
        1.47877         43.2894         8.44498         8.44498 
        1.48491         42.9822         8.35993         8.35993 
        1.49104         42.7401         8.27623         8.27623 
        1.49718         42.5694         8.19361         8.19361 
        1.50333         42.3766         8.11198         8.11198 
        1.50947         42.0978         8.03163         8.03163 
         1.5156         41.9785         7.95248         7.95248 
        1.52172         41.6077         7.87439         7.87439 
        1.52787         41.4343          7.7972          7.7972 
          1.534         41.1426         7.72113         7.72113 
        1.54013         41.1469         7.64615         7.64615 
        1.54627          40.719         7.57203         7.57203 
        1.55241         40.5917         7.49888         7.49888 
        1.55855         40.3294         7.42679         7.42679 
        1.56467         40.0123         7.35585         7.35585 
         1.5708         40.0124         7.28564         7.28564 
        1.57695         39.7261         7.21623         7.21623 
        1.58308         39.5136         7.14789         7.14789 
        1.58922         39.2808         7.08038         7.08038 
        1.59535         39.2459         7.01377         7.01377 
         1.6015         39.0712         6.94792         6.94792 
        1.60764         38.7539         6.88294         6.88294 
        1.61376         38.5579         6.81898         6.81898 
        1.61989         38.2376         6.75577         6.75577 
        1.62604         38.1312         6.69323         6.69323 
        1.63218         37.8394         6.63151         6.63151 
        1.63831         37.7599         6.57071         6.57071 
        1.64444          37.612         6.51064         6.51064 
        1.65059          37.312         6.45119         6.45119 
        1.65673         37.1479         6.39253         6.39253 
        1.66285         37.0027         6.33477         6.33477 
        1.66898         36.7452          6.2777          6.2777 
        1.67512         36.5276         6.22123         6.22123 
        1.68127         36.4558         6.16539         6.16539 
         1.6874         36.2849         6.11036         6.11036 
        1.69353         36.0508         6.05603         6.05603 
        1.69967         35.9067         6.00224         6.00224 
        1.70581         35.6748         5.94912         5.94912 
        1.71193         35.5092         5.89684         5.89684 
        1.71806         35.3746         5.84508         5.84508 
        1.72421          35.145         5.79384         5.79384 
        1.73035           35.01         5.74326         5.74326 
        1.73649         34.7647          5.6933          5.6933 
        1.74262         34.5379         5.64398         5.64398 
        1.74876         34.6091          5.5952          5.5952 
        1.75489           34.28          5.5471          5.5471 
        1.76101         34.1829         5.49958         5.49958 
        1.76715         33.9751         5.45255         5.45255 
        1.77329         33.7141         5.40601         5.40601 
        1.77943         33.7423         5.35999         5.35999 
        1.78557         33.5148         5.31457         5.31457 
        1.79171         33.3074         5.26967         5.26967 
        1.79785         33.1989         5.22528         5.22528 
        1.80399         32.9765         5.18141         5.18141 
        1.81012         32.8157          5.1381          5.1381 
        1.81625         32.6457          5.0953          5.0953 
        1.82239           32.48         5.05292         5.05292 
        1.82853         32.3739         5.01105         5.01105 
        1.83466         32.2012         4.96968         4.96968 
        1.84078           32.04         4.92883         4.92883 
        1.84692         31.8862         4.88837         4.88837 
        1.85306         31.7182         4.84831         4.84831 
         1.8592         31.5368         4.80876         4.80876 
        1.86533         31.4471         4.76968         4.76968 
        1.87147         31.2877         4.73098         4.73098 
        1.87761         31.1325         4.69269         4.69269 
