# k  (h/Mpc)    P(k)  (Mpc/h)^3    P_linear(k)  (Mpc/h)^3     P_NL(k)  ShotnoiseSubtracted = false
     0.00783031         10499.3         10561.1         10561.1 
       0.013688         12022.8         12287.4         12287.4 
       0.019231         11711.8         11847.6         11847.6 
      0.0249154         10506.7         10458.2         10458.2 
      0.0312784         8630.27         8663.02         8663.02 
      0.0375637         7089.61         7155.95         7155.95 
      0.0433917         6151.44         6146.04         6146.04 
      0.0492413         5442.67         5469.03         5469.03 
      0.0555754         4994.44         4983.85         4983.85 
      0.0619321         4498.02         4601.22         4601.22 
       0.067871         4195.96         4233.92         4233.92 
      0.0738098         3814.51         3818.07         3818.07 
      0.0800417         3369.09         3348.75         3348.75 
      0.0862327         2918.14         2902.13         2902.13 
      0.0921407         2575.32         2541.26         2541.26 
      0.0982031         2325.46         2261.29         2261.29 
       0.104506            2092         2063.66         2063.66 
       0.110769         1969.61         1935.93         1935.93 
       0.116806         1899.26         1844.17         1844.17 
       0.122832         1785.94         1753.39         1753.39 
       0.129052          1676.7         1641.62         1641.62 
       0.135211         1578.35         1510.26         1510.26 
       0.141259         1428.61         1372.02         1372.02 
       0.147318         1291.97         1240.27         1240.27 
       0.153489          1193.2         1126.57         1126.57 
       0.159709         1129.58         1039.27         1039.27 
       0.165845         1039.51         978.192         978.192 
       0.171974         1020.16         934.497         934.497 
       0.178125         982.933         898.166         898.166 
       0.184229         917.145         860.927         860.927 
        0.19034         890.144         817.573         817.573 
       0.196428         850.249         768.085         768.085 
       0.202534         782.168         715.542         715.542 
       0.208729         757.449         664.279         664.279 
       0.214876         717.264         619.692         619.692 
       0.220989         669.527         583.616         583.616 
       0.227147          652.67          555.29          555.29 
        0.23329          628.02         532.885         532.885 
       0.239377         617.965         513.515         513.515 
       0.245482         586.442         494.266         494.266 
       0.251667         561.917          473.32          473.32 
       0.257832         551.784         450.701         450.701 
       0.263955         518.957         427.424         427.424 
       0.270079         497.211         404.762         404.762 
        0.27624          474.62         383.908         383.908 
       0.282372         462.273          365.88          365.88 
        0.28843         457.193         350.746         350.746 
       0.294538         433.601         337.666         337.666 
       0.300721         420.075         325.763         325.763 
        0.30691         412.246          314.33          314.33 
       0.313033         392.824         302.894         302.894 
       0.319153         385.533         291.168         291.168 
       0.325316         376.537         279.226         279.226 
        0.33145         365.933         267.604         267.604 
       0.337538         351.851         256.714         256.714 
       0.343633         340.612         246.753         246.753 
       0.349808         331.306         237.661         237.661 
       0.355968         324.273         229.501         229.501 
       0.362074         313.375         222.044         222.044 
       0.368217          309.96         214.915         214.915 
       0.374374         302.829         207.941         207.941 
       0.380519           290.2         201.026         201.026 
       0.386598         285.762         194.266         194.266 
       0.392688         277.744         187.646         187.646 
        0.39888         270.948         181.186         181.186 
       0.405048         264.709         175.131         175.131 
       0.411186         262.753         169.507         169.507 
       0.417313         257.522         164.275         164.275 
       0.423458         250.582         159.356         159.356 
       0.429607          243.39         154.672         154.672 
       0.435692         239.221         150.194         150.194 
       0.441815         234.548          145.81          145.81 
       0.447964         227.745         141.513         141.513 
       0.454126         224.465         137.316         137.316 
       0.460267           221.2         133.279         133.279 
       0.466387         216.064         129.431         129.431 
        0.47254         213.216         125.746         125.746 
       0.478662         207.157         122.257         122.257 
       0.484765         204.167         118.948         118.948 
       0.490885         201.199         115.777         115.777 
       0.497035         197.893         112.707         112.707 
       0.503198         195.863         109.726         109.726 
       0.509342         190.742         106.842         106.842 
       0.515458         187.683          104.06          104.06 
       0.521598         183.371         101.357         101.357 
       0.527764         181.542         98.7356         98.7356 
       0.533884         180.174         96.2288         96.2288 
           0.54         176.146         93.8207         93.8207 
       0.546137         172.007         91.5005         91.5005 
       0.552299         170.274         89.2594         89.2594 
       0.558452         167.271         87.1003         87.1003 
       0.564573         166.196         85.0204         85.0204 
       0.570708          162.12         82.9979         82.9979 
       0.576825         159.781         81.0427         81.0427 
       0.582926         158.138         79.1534         79.1534 
       0.589034         155.453         77.3218         77.3218 
       0.595184         153.932         75.5375         75.5375 
       0.601379         151.113          73.799          73.799 
       0.607522         147.747         72.1305         72.1305 
       0.613639         146.743         70.5218         70.5218 
       0.619772          145.13         68.9596         68.9596 
       0.625918         143.558         67.4429         67.4429 
       0.632068         140.355         65.9716         65.9716 
       0.638161           139.2         64.5575         64.5575 
         0.6443         137.937         63.1747         63.1747 
       0.650464         135.126         61.8268         61.8268 
       0.656582         134.211         60.5273         60.5273 
       0.662703         132.815         59.2645         59.2645 
       0.668861         130.002         58.0305         58.0305 
       0.675024         129.832         56.8308         56.8308 
       0.681124         127.743         55.6774         55.6774 
       0.687237         126.247         54.5543         54.5543 
       0.693381         124.491         53.4575         53.4575 
       0.699536         123.349         52.3893         52.3893 
       0.705665          121.85         51.3552         51.3552 
       0.711789         120.058         50.3502         50.3502 
       0.717957         118.772         49.3654         49.3654 
        0.72409         117.363         48.4124         48.4124 
       0.730186         117.373         47.4903         47.4903 
       0.736317         115.551         46.5872         46.5872 
       0.742472         113.603         45.7043         45.7043 
       0.748622         111.876         44.8451         44.8451 
        0.75476         112.256         44.0099         44.0099 
       0.760888         110.806         43.1972         43.1972 
       0.767043         108.728          42.402          42.402 
       0.773185         107.488         41.6284         41.6284 
       0.779291         106.359         40.8786         40.8786 
       0.785407         105.491         40.1463         40.1463 
       0.791564         104.598         39.4274         39.4274 
       0.797719         102.966         38.7265         38.7265 
       0.803834          102.92         38.0471         38.0471 
       0.809972         101.856         37.3817         37.3817 
       0.816124         100.132         36.7308         36.7308 
       0.822261         99.3301         36.0972         36.0972 
       0.828378         98.9714         35.4805         35.4805 
       0.834502          97.745         34.8777         34.8777 
       0.840667         97.1157         34.2851         34.2851 
       0.846816          95.851          33.708          33.708 
       0.852925         94.9483         33.1478         33.1478 
       0.859047         94.1395         32.5993         32.5993 
       0.865192         93.3483         32.0613         32.0613 
       0.871341         92.4468         31.5353         31.5353 
       0.877463         91.6287         31.0234         31.0234 
       0.883569         91.4504         30.5242         30.5242 
       0.889708         90.5046         30.0335         30.0335 
       0.895864         89.6396         29.5524         29.5524 
       0.902008         88.5099         29.0828         29.0828 
       0.908149         87.4784         28.6238         28.6238 
       0.914301          87.228         28.1739         28.1739 
       0.920448         87.1175         27.7341         27.7341 
       0.926574         85.2612         27.3053         27.3053 
       0.932687         85.1465         26.8865         26.8865 
       0.938823         84.5014          26.475          26.475 
       0.944975         83.6058         26.0712         26.0712 
       0.951105          82.793         25.6772         25.6772 
       0.957225         82.5165         25.2921         25.2921 
       0.963368         81.6111         24.9136         24.9136 
       0.969511         81.0774         24.5428         24.5428 
       0.975621         80.0265         24.1816         24.1816 
       0.981748         79.5665         23.8267         23.8267 
       0.987916         78.9733         23.4767         23.4767 
        0.99406          78.688         23.1351         23.1351 
        1.00019         77.7709         22.8009         22.8009 
        1.00632         77.0788         22.4737         22.4737 
        1.01246         76.6385         22.1524         22.1524 
        1.01859         76.2315         21.8379         21.8379 
        1.02471         75.6482         21.5299         21.5299 
        1.03085         74.8852         21.2268         21.2268 
        1.03698         74.3004         20.9302         20.9302 
        1.04314         73.8122          20.638          20.638 
        1.04929         73.3831          20.352          20.352 
        1.05541         72.7577         20.0727         20.0727 
        1.06154         72.1891         19.7978         19.7978 
        1.06769         71.7586         19.5278         19.5278 
        1.07382         71.1415         19.2636         19.2636 
        1.07993         70.8166         19.0049         19.0049 
        1.08607         70.2863         18.7499         18.7499 
        1.09222         69.8624         18.4994         18.4994 
        1.09836         69.2403         18.2537         18.2537 
        1.10449         68.8018         18.0128         18.0128 
        1.11063         68.2822          17.776          17.776 
        1.11677          67.918         17.5435         17.5435 
         1.1229         67.2256         17.3156         17.3156 
        1.12903         66.9263         17.0915         17.0915 
        1.13518         66.4601         16.8712         16.8712 
        1.14131         66.0021         16.6549         16.6549 
        1.14745         65.7107         16.4426         16.4426 
        1.15359         64.8711         16.2339         16.2339 
        1.15973         64.7731         16.0287         16.0287 
        1.16584         64.3082          15.828          15.828 
        1.17197         63.9116         15.6305         15.6305 
        1.17811         63.3908         15.4357         15.4357 
        1.18424          62.827         15.2448         15.2448 
        1.19038         62.6671         15.0566         15.0566 
        1.19652         62.2663         14.8716         14.8716 
        1.20267         61.7693         14.6898         14.6898 
        1.20881         61.3403          14.511          14.511 
        1.21495         60.9504         14.3355         14.3355 
        1.22108         60.7746         14.1629         14.1629 
         1.2272         60.1803         13.9936         13.9936 
        1.23334         60.0077         13.8266         13.8266 
        1.23949         59.5368          13.662          13.662 
        1.24562          59.013         13.5005         13.5005 
        1.25174         58.8173         13.3418         13.3418 
        1.25789         58.5223         13.1852         13.1852 
        1.26402         58.1356         13.0314         13.0314 
        1.27014         57.7672         12.8804         12.8804 
        1.27628          57.349         12.7314         12.7314 
        1.28244         57.2943         12.5844         12.5844 
        1.28858         56.7387         12.4399         12.4399 
        1.29471         56.3267         12.2981         12.2981 
        1.30084         55.8175         12.1585         12.1585 
        1.30697         55.8224         12.0209         12.0209 
        1.31312         55.4575         11.8853         11.8853 
        1.31925         54.9545         11.7522         11.7522 
        1.32537         54.7105         11.6212         11.6212 
        1.33151         54.4633         11.4918         11.4918 
        1.33765         54.0995         11.3644         11.3644 
        1.34378         53.7457         11.2392         11.2392 
        1.34992         53.5451         11.1158         11.1158 
        1.35606         53.1243          10.994          10.994 
         1.3622         52.9535         10.8742         10.8742 
        1.36833         52.5904         10.7565         10.7565 
        1.37445         52.1839         10.6406         10.6406 
        1.38059         51.9967          10.526          10.526 
        1.38675         51.5107         10.4128         10.4128 
        1.39288         51.3642         10.3018         10.3018 
        1.39901         50.9618         10.1924         10.1924 
        1.40515         50.7516         10.0844         10.0844 
         1.4113         50.5198         9.97799         9.97799 
        1.41742          50.155         9.87351         9.87351 
        1.42355           50.02         9.77032         9.77032 
         1.4297         49.7185          9.6683          9.6683 
        1.43585         49.4094         9.56778         9.56778 
        1.44198          49.071         9.46907         9.46907 
        1.44809         48.6723         9.37193         9.37193 
        1.45423         48.6032          9.2758          9.2758 
        1.46036         48.3348         9.18119         9.18119 
        1.46649         47.9649         9.08786         9.08786 
        1.47263         47.7233         8.99576         8.99576 
        1.47877         47.5045         8.90497         8.90497 
        1.48491          47.156         8.81528         8.81528 
        1.49104         46.9033         8.72702         8.72702 
        1.49718         46.7105          8.6399          8.6399 
        1.50333         46.5044         8.55383         8.55383 
        1.50947         46.2233         8.46909         8.46909 
         1.5156         46.0883         8.38564         8.38564 
        1.52172         45.6688          8.3033          8.3033 
        1.52787         45.4563          8.2219          8.2219 
          1.534         45.1477         8.14168         8.14168 
        1.54013         45.1401         8.06262         8.06262 
        1.54627         44.6718         7.98446         7.98446 
        1.55241         44.5677         7.90733         7.90733 
        1.55855         44.2221         7.83131         7.83131 
        1.56467         43.8822         7.75651         7.75651 
         1.5708         43.8824         7.68247         7.68247 
        1.57695         43.5639         7.60928         7.60928 
        1.58308         43.3581         7.53722         7.53722 
        1.58922          43.107         7.46603         7.46603 
        1.59535         43.0713         7.39579         7.39579 
         1.6015         42.8441         7.32636         7.32636 
        1.60764          42.527         7.25784         7.25784 
        1.61376         42.3136          7.1904          7.1904 
        1.61989         41.9443         7.12375         7.12375 
        1.62604         41.8454         7.05779         7.05779 
        1.63218         41.5533         6.99271         6.99271 
        1.63831         41.4327          6.9286          6.9286 
        1.64444         41.2777         6.86527         6.86527 
        1.65059         40.9484         6.80257         6.80257 
        1.65673         40.7609         6.74072         6.74072 
        1.66285         40.5732         6.67982         6.67982 
        1.66898         40.2994         6.61964         6.61964 
        1.67512          40.063         6.56008         6.56008 
        1.68127         40.0101         6.50121         6.50121 
         1.6874         39.7931         6.44318         6.44318 
        1.69353          39.523         6.38589         6.38589 
        1.69967         39.3753         6.32917         6.32917 
        1.70581          39.132         6.27316         6.27316 
        1.71193          38.933         6.21803         6.21803 
        1.71806         38.7919         6.16345         6.16345 
        1.72421         38.5526         6.10941         6.10941 
        1.73035         38.3987         6.05609         6.05609 
        1.73649         38.1281         6.00341         6.00341 
        1.74262         37.8802         5.95139         5.95139 
        1.74876         37.9407         5.89996         5.89996 
        1.75489         37.6021         5.84924         5.84924 
        1.76101         37.4869         5.79913         5.79913 
        1.76715         37.2575         5.74954         5.74954 
        1.77329         36.9885         5.70046         5.70046 
        1.77943         36.9957         5.65194         5.65194 
        1.78557         36.7242         5.60405         5.60405 
        1.79171         36.5145          5.5567          5.5567 
        1.79785          36.385         5.50989         5.50989 
        1.80399         36.1544         5.46363         5.46363 
        1.81012         35.9581         5.41796         5.41796 
        1.81625         35.8028         5.37283         5.37283 
        1.82239          35.601         5.32815         5.32815 
        1.82853         35.4786         5.28399         5.28399 
        1.83466         35.2941         5.24037         5.24037 
        1.84078         35.1086          5.1973          5.1973 
        1.84692         34.9732         5.15463         5.15463 
        1.85306         34.7764         5.11239         5.11239 
         1.8592         34.5545         5.07069         5.07069 
        1.86533         34.4634         5.02947         5.02947 
        1.87147          34.276         4.98867         4.98867 
        1.87761         34.1265          4.9483          4.9483 
