# k  (h/Mpc)    P(k)  (Mpc/h)^3    P_linear(k)  (Mpc/h)^3     P_NL(k)  ShotnoiseSubtracted = false
     0.00783031         188.226         189.844         189.844 
       0.013688         219.532          221.24          221.24 
       0.019231         212.872         213.435         213.435 
      0.0249154         188.481         188.454         188.454 
      0.0312784         156.319         156.131         156.131 
      0.0375637         129.094         128.982         128.982 
      0.0433917         111.072         110.785         110.785 
      0.0492413         98.6853         98.5852         98.5852 
      0.0555754         90.0135         89.8419         89.8419 
      0.0619321         82.7182         82.9462         82.9462 
       0.067871         76.2746         76.3261         76.3261 
      0.0738098         68.8201         68.8304         68.8304 
      0.0800417         60.4536         60.3705         60.3705 
      0.0862327         52.3797         52.3193         52.3193 
      0.0921407         45.8563         45.8139         45.8139 
      0.0982031         40.8889         40.7668         40.7668 
       0.104506         37.1927         37.2042         37.2042 
       0.110769         34.8865         34.9016         34.9016 
       0.116806         33.2832         33.2473         33.2473 
       0.122832          31.566         31.6107         31.6107 
       0.129052         29.5979         29.5958         29.5958 
       0.135211         27.2661         27.2276         27.2276 
       0.141259         24.7431         24.7354         24.7354 
       0.147318         22.3415         22.3602         22.3602 
       0.153489         20.3304         20.3104         20.3104 
       0.159709         18.7727         18.7367         18.7367 
       0.165845          17.601         17.6355         17.6355 
       0.171974         16.8847         16.8477         16.8477 
       0.178125         16.2075         16.1927         16.1927 
       0.184229         15.5044         15.5214         15.5214 
        0.19034          14.769         14.7398         14.7398 
       0.196428         13.8638         13.8476         13.8476 
       0.202534         12.8699         12.9003         12.9003 
       0.208729         11.9946         11.9761         11.9761 
       0.214876         11.2203         11.1723         11.1723 
       0.220989         10.5195         10.5219         10.5219 
       0.227147         10.0542         10.0112         10.0112 
        0.23329         9.64825         9.60728         9.60728 
       0.239377         9.29919         9.25805         9.25805 
       0.245482         8.94647         8.91102         8.91102 
       0.251667         8.54545         8.53339         8.53339 
       0.257832         8.16539         8.12559         8.12559 
       0.263955         7.72875         7.70594         7.70594 
       0.270079         7.31916         7.29738         7.29738 
        0.27624         6.92998         6.92142         6.92142 
       0.282372         6.60828         6.59639         6.59639 
        0.28843         6.35931         6.32355         6.32355 
       0.294538         6.11832         6.08772         6.08772 
       0.300721         5.88486         5.87313         5.87313 
        0.30691          5.6972         5.66701         5.66701 
       0.313033         5.48609         5.46083         5.46083 
       0.319153         5.30026         5.24943         5.24943 
       0.325316         5.04885         5.03413         5.03413 
        0.33145         4.84084          4.8246          4.8246 
       0.337538         4.65074         4.62826         4.62826 
       0.343633         4.48041         4.44867         4.44867 
       0.349808         4.30905         4.28476         4.28476 
       0.355968         4.15703         4.13764         4.13764 
       0.362074         4.03338         4.00321         4.00321 
       0.368217         3.90159         3.87467         3.87467 
       0.374374         3.78831         3.74894         3.74894 
       0.380519          3.6497         3.62427         3.62427 
       0.386598         3.52246         3.50239         3.50239 
       0.392688          3.3983         3.38305         3.38305 
        0.39888         3.29033         3.26657         3.26657 
       0.405048           3.183         3.15741         3.15741 
       0.411186         3.07875         3.05603         3.05603 
       0.417313         2.98576         2.96169         2.96169 
       0.423458         2.88872         2.87302         2.87302 
       0.429607          2.8149         2.78857         2.78857 
       0.435692         2.73586         2.70783         2.70783 
       0.441815         2.65182         2.62879         2.62879 
       0.447964         2.56548         2.55132         2.55132 
       0.454126         2.49928         2.47566         2.47566 
       0.460267         2.43207         2.40288         2.40288 
       0.466387         2.35995          2.3335          2.3335 
        0.47254         2.29634         2.26706         2.26706 
       0.478662         2.23015         2.20416         2.20416 
       0.484765          2.1718         2.14451         2.14451 
       0.490885         2.10985         2.08732         2.08732 
       0.497035         2.04911         2.03198         2.03198 
       0.503198         2.00204         1.97825         1.97825 
       0.509342         1.94335         1.92625         1.92625 
       0.515458         1.89846         1.87609         1.87609 
       0.521598         1.85051         1.82736         1.82736 
       0.527764         1.80826          1.7801          1.7801 
       0.533884         1.75298          1.7349          1.7349 
           0.54         1.71284         1.69148         1.69148 
       0.546137          1.6672         1.64966         1.64966 
       0.552299         1.62917         1.60925         1.60925 
       0.558452         1.59013         1.57032         1.57032 
       0.564573         1.55295         1.53283         1.53283 
       0.570708          1.5168         1.49636         1.49636 
       0.576825         1.48181         1.46111         1.46111 
       0.582926          1.4445         1.42705         1.42705 
       0.589034         1.41629         1.39403         1.39403 
       0.595184         1.38563         1.36186         1.36186 
       0.601379         1.35059         1.33052         1.33052 
       0.607522         1.31902         1.30043         1.30043 
       0.613639         1.28726         1.27143         1.27143 
       0.619772         1.26328         1.24327         1.24327 
       0.625918          1.2354         1.21592         1.21592 
       0.632068         1.20895          1.1894          1.1894 
       0.638161          1.1824          1.1639          1.1639 
         0.6443         1.15667         1.13897         1.13897 
       0.650464         1.13358         1.11467         1.11467 
       0.656582         1.11183         1.09124         1.09124 
       0.662703         1.08792         1.06848         1.06848 
       0.668861         1.06141         1.04623         1.04623 
       0.675024         1.04148          1.0246          1.0246 
       0.681124         1.02694          1.0038          1.0038 
       0.687237          1.0026        0.983556        0.983556 
       0.693381        0.979295        0.963781        0.963781 
       0.699536        0.964203        0.944523        0.944523 
       0.705665        0.945297         0.92588         0.92588 
       0.711789        0.923494        0.907761        0.907761 
       0.717957        0.906948        0.890005        0.890005 
        0.72409        0.889442        0.872823        0.872823 
       0.730186         0.87598        0.856199        0.856199 
       0.736317        0.855938        0.839917        0.839917 
       0.742472        0.842297        0.823999        0.823999 
       0.748622        0.827145        0.808509        0.808509 
        0.75476        0.809804        0.793451        0.793451 
       0.760888        0.797382          0.7788          0.7788 
       0.767043        0.776828        0.764462        0.764462 
       0.773185        0.765752        0.750516        0.750516 
       0.779291        0.755213        0.736998        0.736998 
       0.785407        0.740252        0.723795        0.723795 
       0.791564        0.726597        0.710834        0.710834 
       0.797719        0.713723        0.698197        0.698197 
       0.803834        0.701158         0.68595         0.68595 
       0.809972        0.689426        0.673953        0.673953 
       0.816124        0.677236        0.662218        0.662218 
       0.822261        0.666609        0.650795        0.650795 
       0.828378        0.654532        0.639676        0.639676 
       0.834502        0.643243        0.628809        0.628809 
       0.840667        0.633811        0.618124        0.618124 
       0.846816        0.622716        0.607719        0.607719 
       0.852925        0.611284         0.59762         0.59762 
       0.859047        0.601531         0.58773         0.58773 
       0.865192        0.592169        0.578032        0.578032 
       0.871341        0.583632        0.568548        0.568548 
       0.877463        0.572199        0.559319        0.559319 
       0.883569        0.563718         0.55032         0.55032 
       0.889708        0.555634        0.541473        0.541473 
       0.895864        0.546863        0.532798        0.532798 
       0.902008        0.537119        0.524332        0.524332 
       0.908149        0.529774        0.516056        0.516056 
       0.914301        0.522554        0.507946        0.507946 
       0.920448        0.514498        0.500017        0.500017 
       0.926574          0.5074        0.492286        0.492286 
       0.932687        0.499613        0.484736        0.484736 
       0.938823        0.490171        0.477317        0.477317 
       0.944975        0.483963        0.470036        0.470036 
       0.951105        0.475056        0.462934        0.462934 
       0.957225        0.468354         0.45599         0.45599 
       0.963368        0.462502        0.449166        0.449166 
       0.969511        0.456357        0.442481        0.442481 
       0.975621        0.448329        0.435968        0.435968 
       0.981748        0.440626         0.42957         0.42957 
       0.987916        0.435021         0.42326         0.42326 
        0.99406        0.429661        0.417101        0.417101 
        1.00019        0.423229        0.411077        0.411077 
        1.00632        0.418442        0.405177        0.405177 
        1.01246        0.412242        0.399384        0.399384 
        1.01859        0.406411        0.393715        0.393715 
        1.02471        0.399755        0.388162        0.388162 
        1.03085        0.393673        0.382697        0.382697 
        1.03698        0.389375         0.37735         0.37735 
        1.04314        0.383741        0.372081        0.372081 
        1.04929        0.379572        0.366926        0.366926 
        1.05541        0.372929        0.361889        0.361889 
        1.06154        0.368586        0.356934        0.356934 
        1.06769        0.363951        0.352065        0.352065 
        1.07382         0.35899        0.347302        0.347302 
        1.07993        0.354444        0.342639        0.342639 
        1.08607        0.349514        0.338042        0.338042 
        1.09222        0.344717        0.333525        0.333525 
        1.09836        0.340414        0.329096        0.329096 
        1.10449        0.335495        0.324752        0.324752 
        1.11063        0.331132        0.320482        0.320482 
        1.11677        0.327563        0.316291        0.316291 
         1.1229        0.322296        0.312182        0.312182 
        1.12903        0.318879        0.308142        0.308142 
        1.13518        0.314687         0.30417         0.30417 
        1.14131        0.311023        0.300271        0.300271 
        1.14745         0.30816        0.296442        0.296442 
        1.15359        0.303345         0.29268         0.29268 
        1.15973        0.300084        0.288981        0.288981 
        1.16584         0.29594        0.285363        0.285363 
        1.17197        0.291883        0.281801        0.281801 
        1.17811        0.288179         0.27829         0.27829 
        1.18424        0.284854        0.274848        0.274848 
        1.19038        0.280893        0.271455        0.271455 
        1.19652        0.278645         0.26812         0.26812 
        1.20267        0.275259        0.264842        0.264842 
        1.20881        0.270713        0.261618        0.261618 
        1.21495        0.268085        0.258454        0.258454 
        1.22108        0.265169        0.255342        0.255342 
         1.2272        0.261469        0.252289        0.252289 
        1.23334        0.258633        0.249279        0.249279 
        1.23949        0.256133        0.246311        0.246311 
        1.24562        0.252964        0.243399        0.243399 
        1.25174        0.250146        0.240539        0.240539 
        1.25789        0.246391        0.237716        0.237716 
        1.26402        0.244399        0.234943        0.234943 
        1.27014        0.240759        0.232221        0.232221 
        1.27628        0.238658        0.229533        0.229533 
        1.28244        0.235885        0.226884        0.226884 
        1.28858        0.232791        0.224279        0.224279 
        1.29471        0.230407        0.221721        0.221721 
        1.30084        0.227705        0.219206        0.219206 
        1.30697         0.22585        0.216725        0.216725 
        1.31312        0.223241         0.21428         0.21428 
        1.31925        0.220523        0.211879        0.211879 
        1.32537        0.218179        0.209518        0.209518 
        1.33151        0.215772        0.207185        0.207185 
        1.33765        0.213267        0.204888        0.204888 
        1.34378        0.210709        0.202631        0.202631 
        1.34992        0.209163        0.200406        0.200406 
        1.35606        0.206478         0.19821         0.19821 
         1.3622        0.204367         0.19605         0.19605 
        1.36833        0.202576        0.193928        0.193928 
        1.37445        0.200474        0.191838        0.191838 
        1.38059         0.19818        0.189773        0.189773 
        1.38675        0.195735        0.187733        0.187733 
        1.39288        0.193361        0.185731        0.185731 
        1.39901        0.191997        0.183759        0.183759 
        1.40515        0.189762        0.181812        0.181812 
         1.4113        0.188207        0.179893        0.179893 
        1.41742        0.186252        0.178009        0.178009 
        1.42355        0.183491        0.176149        0.176149 
         1.4297        0.182443         0.17431         0.17431 
        1.43585        0.180125        0.172497        0.172497 
        1.44198        0.178629        0.170718        0.170718 
        1.44809        0.176621        0.168966        0.168966 
        1.45423        0.174853        0.167233        0.167233 
        1.46036        0.173114        0.165527        0.165527 
        1.46649        0.171363        0.163845        0.163845 
        1.47263        0.169097        0.162184        0.162184 
        1.47877        0.168525        0.160547        0.160547 
        1.48491        0.165972        0.158931        0.158931 
        1.49104        0.165222        0.157339        0.157339 
        1.49718        0.163129        0.155769        0.155769 
        1.50333        0.161661        0.154217        0.154217 
        1.50947        0.160166        0.152689        0.152689 
         1.5156        0.158494        0.151184        0.151184 
        1.52172        0.157067          0.1497          0.1497 
        1.52787        0.155106        0.148232        0.148232 
          1.534        0.154058        0.146786        0.146786 
        1.54013        0.152443        0.145361        0.145361 
        1.54627        0.151253        0.143952        0.143952 
        1.55241        0.149671        0.142561        0.142561 
        1.55855        0.148285        0.141191        0.141191 
        1.56467        0.146998        0.139842        0.139842 
         1.5708        0.145453        0.138507        0.138507 
        1.57695        0.144126        0.137188        0.137188 
        1.58308        0.142334        0.135888        0.135888 
        1.58922        0.141506        0.134605        0.134605 
        1.59535        0.140012        0.133339        0.133339 
         1.6015        0.138905        0.132087        0.132087 
        1.60764        0.137438        0.130852        0.130852 
        1.61376        0.136293        0.129636        0.129636 
        1.61989         0.13492        0.128434        0.128434 
        1.62604        0.133725        0.127245        0.127245 
        1.63218        0.132707        0.126072        0.126072 
        1.63831        0.131383        0.124916        0.124916 
        1.64444        0.130287        0.123774        0.123774 
        1.65059        0.128766        0.122643        0.122643 
        1.65673        0.127878        0.121528        0.121528 
        1.66285        0.126898         0.12043         0.12043 
        1.66898        0.125477        0.119345        0.119345 
        1.67512         0.12445        0.118272        0.118272 
        1.68127        0.123289         0.11721         0.11721 
         1.6874        0.122395        0.116164        0.116164 
        1.69353          0.1212        0.115131        0.115131 
        1.69967        0.119997        0.114109        0.114109 
        1.70581        0.119328        0.113099        0.113099 
        1.71193        0.118356        0.112105        0.112105 
        1.71806        0.117103        0.111121        0.111121 
        1.72421        0.116026        0.110147        0.110147 
        1.73035        0.115122        0.109185        0.109185 
        1.73649        0.114198        0.108235        0.108235 
        1.74262        0.113097        0.107298        0.107298 
        1.74876        0.112352         0.10637         0.10637 
        1.75489        0.111279        0.105456        0.105456 
        1.76101        0.110386        0.104552        0.104552 
        1.76715        0.109504        0.103658        0.103658 
        1.77329        0.108404        0.102774        0.102774 
        1.77943        0.107503        0.101899        0.101899 
        1.78557        0.106896        0.101035        0.101035 
        1.79171        0.105939        0.100182        0.100182 
        1.79785        0.104857       0.0993379       0.0993379 
        1.80399        0.103881       0.0985038       0.0985038 
        1.81012        0.103295       0.0976804       0.0976804 
        1.81625        0.102493       0.0968668       0.0968668 
        1.82239        0.101833       0.0960611       0.0960611 
        1.82853        0.100746        0.095265        0.095265 
        1.83466       0.0999138       0.0944787       0.0944787 
        1.84078       0.0991984        0.093702        0.093702 
        1.84692       0.0984224       0.0929328       0.0929328 
        1.85306       0.0976455       0.0921713       0.0921713 
         1.8592        0.096905       0.0914194       0.0914194 
        1.86533        0.096175       0.0906764       0.0906764 
        1.87147       0.0952943       0.0899407       0.0899407 
        1.87761       0.0944703       0.0892128       0.0892128 
