# k  (h/Mpc)    Pcb(k)  (Mpc/h)^3    Pcb_linear(k) (Mpc/h)^3    Pcb_NL(k) (Mpc/h)^3   ShotnoiseSubtracted = false
     0.00783031         19258.9         19356.4         19356.4 
       0.013688         21880.1         22503.1         22503.1 
       0.019231         21343.9         21692.8         21692.8 
      0.0249154         19237.6         19146.7         19146.7 
      0.0312784         15730.6         15859.1         15859.1 
      0.0375637         12901.8         13099.7         13099.7 
      0.0433917         11222.7         11250.7         11250.7 
      0.0492413         9920.07         10011.2         10011.2 
      0.0555754         9104.14         9122.95         9122.95 
      0.0619321         8147.36         8422.47         8422.47 
       0.067871         7614.93         7750.07         7750.07 
      0.0738098         6958.84         6988.84         6988.84 
      0.0800417         6152.83         6129.74         6129.74 
      0.0862327         5342.84         5312.19         5312.19 
      0.0921407         4748.23         4651.63         4651.63 
      0.0982031         4310.44         4139.15         4139.15 
       0.104506         3873.69          3777.4          3777.4 
       0.110769         3651.12         3543.59         3543.59 
       0.116806         3518.34         3375.62         3375.62 
       0.122832         3314.68         3209.45         3209.45 
       0.129052         3096.06         3004.86         3004.86 
       0.135211         2950.03         2764.41         2764.41 
       0.141259         2672.63         2511.37         2511.37 
       0.147318         2438.72         2270.21         2270.21 
       0.153489         2266.68         2062.09         2062.09 
       0.159709         2169.86          1902.3          1902.3 
       0.165845         1997.87          1790.5          1790.5 
       0.171974         1955.55         1710.52         1710.52 
       0.178125         1896.03         1644.02         1644.02 
       0.184229         1750.38         1575.85         1575.85 
        0.19034         1714.22          1496.5          1496.5 
       0.196428         1650.57         1405.91         1405.91 
       0.202534          1533.4         1309.74         1309.74 
       0.208729         1494.26          1215.9          1215.9 
       0.214876         1414.69         1134.29         1134.29 
       0.220989         1340.82         1068.26         1068.26 
       0.227147         1303.12         1016.41         1016.41 
        0.23329         1252.62         975.399         975.399 
       0.239377         1244.89         939.943         939.943 
       0.245482         1183.54         904.711         904.711 
       0.251667            1139         866.369         866.369 
       0.257832         1116.23         824.966         824.966 
       0.263955         1060.73         782.359         782.359 
       0.270079         1026.38         740.879         740.879 
        0.27624         982.528         702.711         702.711 
       0.282372         967.473         669.709         669.709 
        0.28843         949.299          642.01          642.01 
       0.294538         904.344         618.066         618.066 
       0.300721         885.692         596.278         596.278 
        0.30691         863.142         575.352         575.352 
       0.313033         827.385         554.421         554.421 
       0.319153           817.1         532.957         532.957 
       0.325316         804.862         511.096         511.096 
        0.33145         784.362         489.825         489.825 
       0.337538         756.664         469.892         469.892 
       0.343633         738.055         451.656         451.656 
       0.349808         722.437         435.018         435.018 
       0.355968         707.843         420.079         420.079 
       0.362074         682.703         406.431         406.431 
       0.368217         679.695         393.382         393.382 
       0.374374         669.299         380.613         380.613 
       0.380519         643.564         367.959         367.959 
       0.386598         638.272         355.585         355.585 
       0.392688         621.498         343.468         343.468 
        0.39888         607.804         331.644         331.644 
       0.405048         593.761          320.56          320.56 
       0.411186         593.188         310.267         310.267 
       0.417313          585.99         300.689         300.689 
       0.423458         570.004         291.687         291.687 
       0.429607         553.255         283.112         283.112 
       0.435692         546.514         274.916         274.916 
       0.441815         536.339         266.892         266.892 
       0.447964          527.14         259.025         259.025 
       0.454126         520.898         251.344         251.344 
       0.460267         512.967         243.955         243.955 
       0.466387         502.043         236.911         236.911 
        0.47254         496.158         230.166         230.166 
       0.478662         486.682         223.781         223.781 
       0.484765          479.84         217.723         217.723 
       0.490885         476.138         211.918         211.918 
       0.497035          464.78         206.299         206.299 
       0.503198         464.025         200.843         200.843 
       0.509342         454.779         195.564         195.564 
       0.515458         445.661         190.472         190.472 
       0.521598          442.71         185.524         185.524 
       0.527764          433.43         180.726         180.726 
       0.533884         428.728         176.137         176.137 
           0.54         424.778          171.73          171.73 
       0.546137         416.975         167.483         167.483 
       0.552299         414.828         163.381         163.381 
       0.558452         408.193         159.429         159.429 
       0.564573         405.842         155.622         155.622 
       0.570708         399.715          151.92          151.92 
       0.576825          392.29         148.341         148.341 
       0.582926         391.146         144.883         144.883 
       0.589034         383.842          141.53          141.53 
       0.595184          380.93         138.264         138.264 
       0.601379         374.593         135.082         135.082 
       0.607522         367.705         132.028         132.028 
       0.613639         366.717         129.083         129.083 
       0.619772         364.829         126.224         126.224 
       0.625918         357.317         123.448         123.448 
       0.632068         356.005         120.755         120.755 
       0.638161         351.949         118.166         118.166 
         0.6443         346.871         115.635         115.635 
       0.650464         343.775         113.168         113.168 
       0.656582          340.17         110.789         110.789 
       0.662703         338.076         108.478         108.478 
       0.668861         332.099         106.219         106.219 
       0.675024         330.957         104.023         104.023 
       0.681124         324.401         101.912         101.912 
       0.687237         323.823         99.8564         99.8564 
       0.693381         318.718         97.8487         97.8487 
       0.699536         318.417         95.8935         95.8935 
       0.705665         313.633         94.0007         94.0007 
       0.711789         311.397         92.1612         92.1612 
       0.717957         308.495         90.3585         90.3585 
        0.72409         304.544         88.6141         88.6141 
       0.730186         305.207         86.9263         86.9263 
       0.736317         299.903         85.2733         85.2733 
       0.742472         297.604         83.6572         83.6572 
       0.748622         295.717         82.0846         82.0846 
        0.75476         292.974         80.5558         80.5558 
       0.760888         290.483         79.0684         79.0684 
       0.767043         287.251         77.6127         77.6127 
       0.773185         284.804         76.1968         76.1968 
       0.779291          282.28         74.8244         74.8244 
       0.785407         280.171         73.4839         73.4839 
       0.791564         278.596          72.168          72.168 
       0.797719         274.125         70.8851         70.8851 
       0.803834         274.614         69.6416         69.6416 
       0.809972         270.248         68.4236         68.4236 
       0.816124          267.85         67.2322         67.2322 
       0.822261         265.832         66.0724         66.0724 
       0.828378         264.528         64.9436         64.9436 
       0.834502         260.657         63.8403         63.8403 
       0.840667         260.585         62.7556         62.7556 
       0.846816         256.457         61.6992         61.6992 
       0.852925         256.696         60.6739         60.6739 
       0.859047         253.637         59.6698         59.6698 
       0.865192          252.48         58.6852         58.6852 
       0.871341         249.534         57.7222         57.7222 
       0.877463         248.207         56.7853         56.7853 
       0.883569         246.665         55.8716         55.8716 
       0.889708         244.437         54.9735         54.9735 
       0.895864         241.123         54.0928         54.0928 
       0.902008         240.081         53.2333         53.2333 
       0.908149         237.708          52.393          52.393 
       0.914301         236.667         51.5696         51.5696 
       0.920448         234.642         50.7646         50.7646 
       0.926574         232.702         49.9797         49.9797 
       0.932687         232.484         49.2132         49.2132 
       0.938823         229.732         48.4599         48.4599 
       0.944975         229.414         47.7208         47.7208 
       0.951105         226.812         46.9997         46.9997 
       0.957225         224.611         46.2948         46.2948 
       0.963368         224.757         45.6019         45.6019 
       0.969511         221.111         44.9232         44.9232 
       0.975621         218.915          44.262          44.262 
       0.981748         218.834         43.6124         43.6124 
       0.987916         217.488         42.9718         42.9718 
        0.99406         215.209         42.3465         42.3465 
        1.00019         213.812         41.7349         41.7349 
        1.00632         212.942         41.1359         41.1359 
        1.01246          211.34         40.5478         40.5478 
        1.01859         209.027         39.9721         39.9721 
        1.02471         207.543         39.4084         39.4084 
        1.03085         206.395         38.8536         38.8536 
        1.03698         205.748         38.3107         38.3107 
        1.04314         204.586         37.7758         37.7758 
        1.04929         203.004         37.2524         37.2524 
        1.05541         202.166          36.741          36.741 
        1.06154         200.111          36.238          36.238 
        1.06769         198.747         35.7436         35.7436 
        1.07382         196.918         35.2601         35.2601 
        1.07993         196.111         34.7867         34.7867 
        1.08607         195.168         34.3199         34.3199 
        1.09222         193.243         33.8613         33.8613 
        1.09836         192.338         33.4116         33.4116 
        1.10449           191.3         32.9707         32.9707 
        1.11063         189.779         32.5372         32.5372 
        1.11677         188.122         32.1116         32.1116 
         1.1229         188.063         31.6944         31.6944 
        1.12903         185.658         31.2843         31.2843 
        1.13518         184.767         30.8811         30.8811 
        1.14131         183.902         30.4852         30.4852 
        1.14745         182.079         30.0965         30.0965 
        1.15359         181.107         29.7145         29.7145 
        1.15973         180.379          29.339          29.339 
        1.16584         179.107         28.9716         28.9716 
        1.17197         178.337         28.6101         28.6101 
        1.17811         176.463         28.2535         28.2535 
        1.18424         175.536         27.9041         27.9041 
        1.19038         174.889         27.5596         27.5596 
        1.19652         172.754         27.2211         27.2211 
        1.20267         172.177         26.8882         26.8882 
        1.20881         170.966          26.561          26.561 
        1.21495         170.473         26.2397         26.2397 
        1.22108         169.137         25.9238         25.9238 
         1.2272           168.1         25.6138         25.6138 
        1.23334         166.821         25.3082         25.3082 
        1.23949         166.054         25.0069         25.0069 
        1.24562         164.888         24.7113         24.7113 
        1.25174         164.348         24.4209         24.4209 
        1.25789         162.786         24.1342         24.1342 
        1.26402         162.171         23.8527         23.8527 
        1.27014         161.275         23.5763         23.5763 
        1.27628         160.524         23.3035         23.3035 
        1.28244         158.915         23.0345         23.0345 
        1.28858         158.139         22.7701         22.7701 
        1.29471         156.878         22.5104         22.5104 
        1.30084         156.456          22.255          22.255 
        1.30697         155.268         22.0032         22.0032 
        1.31312         154.509         21.7549         21.7549 
        1.31925         153.328         21.5112         21.5112 
        1.32537         152.886         21.2715         21.2715 
        1.33151         151.395         21.0346         21.0346 
        1.33765         150.843         20.8014         20.8014 
        1.34378         150.223         20.5722         20.5722 
        1.34992         148.826         20.3463         20.3463 
        1.35606         148.267         20.1234         20.1234 
         1.3622         147.046         19.9041         19.9041 
        1.36833         146.491         19.6887         19.6887 
        1.37445          145.85         19.4765         19.4765 
        1.38059         144.428         19.2668         19.2668 
        1.38675         143.623         19.0597         19.0597 
        1.39288         142.835         18.8564         18.8564 
        1.39901         141.738         18.6563         18.6563 
        1.40515         141.109         18.4585         18.4585 
         1.4113         140.505         18.2637         18.2637 
        1.41742         139.576         18.0725         18.0725 
        1.42355         138.594         17.8836         17.8836 
         1.4297         137.851         17.6969         17.6969 
        1.43585         137.418         17.5129         17.5129 
        1.44198         136.101         17.3322         17.3322 
        1.44809         135.654         17.1544         17.1544 
        1.45423         134.909         16.9784         16.9784 
        1.46036         134.114         16.8053         16.8053 
        1.46649         132.961         16.6344         16.6344 
        1.47263         132.589         16.4658         16.4658 
        1.47877         131.724         16.2997         16.2997 
        1.48491         130.678         16.1355         16.1355 
        1.49104          129.76          15.974          15.974 
        1.49718         129.295         15.8145         15.8145 
        1.50333          128.12         15.6569         15.6569 
        1.50947         127.818         15.5018         15.5018 
         1.5156         126.846         15.3491         15.3491 
        1.52172          126.14         15.1984         15.1984 
        1.52787         125.692         15.0494         15.0494 
          1.534         124.991         14.9025         14.9025 
        1.54013         124.048         14.7578         14.7578 
        1.54627         123.439         14.6148         14.6148 
        1.55241         122.774         14.4736         14.4736 
        1.55855         121.978         14.3344         14.3344 
        1.56467         121.364         14.1975         14.1975 
         1.5708         120.537          14.062          14.062 
        1.57695         120.081          13.928          13.928 
        1.58308         119.043         13.7961         13.7961 
        1.58922         118.482         13.6658         13.6658 
        1.59535         117.887         13.5373         13.5373 
         1.6015         117.032         13.4102         13.4102 
        1.60764         116.343         13.2848         13.2848 
        1.61376         115.854         13.1613         13.1613 
        1.61989         115.237         13.0393         13.0393 
        1.62604         114.498         12.9186         12.9186 
        1.63218         113.877         12.7995         12.7995 
        1.63831         113.185         12.6821         12.6821 
        1.64444         112.275         12.5662         12.5662 
        1.65059         111.886         12.4514         12.4514 
        1.65673         111.306         12.3382         12.3382 
        1.66285         110.898         12.2267         12.2267 
        1.66898         110.071         12.1166         12.1166 
        1.67512         109.027         12.0076         12.0076 
        1.68127         108.929         11.8998         11.8998 
         1.6874         108.247         11.7936         11.7936 
        1.69353         107.584         11.6887         11.6887 
        1.69967         106.976         11.5849         11.5849 
        1.70581         106.361         11.4824         11.4824 
        1.71193         105.875         11.3815         11.3815 
        1.71806         104.832         11.2816         11.2816 
        1.72421         104.369         11.1827         11.1827 
        1.73035          103.98         11.0851         11.0851 
        1.73649         103.437         10.9886         10.9886 
        1.74262         102.645         10.8934         10.8934 
        1.74876         101.993         10.7993         10.7993 
        1.75489          101.97         10.7065         10.7065 
        1.76101         101.062         10.6147         10.6147 
        1.76715         100.381          10.524          10.524 
        1.77329         99.8426         10.4341         10.4341 
        1.77943         99.2332         10.3453         10.3453 
        1.78557         98.7386         10.2577         10.2577 
        1.79171         98.0888          10.171          10.171 
        1.79785         97.5096         10.0853         10.0853 
        1.80399         96.9328         10.0006         10.0006 
        1.81012          96.512         9.91704         9.91704 
        1.81625         95.8233         9.83444         9.83444 
        1.82239          95.533         9.75265         9.75265 
        1.82853         94.7101         9.67182         9.67182 
        1.83466          94.013         9.59199         9.59199 
        1.84078         93.8706         9.51313         9.51313 
        1.84692         93.3827         9.43504         9.43504 
        1.85306         92.7469         9.35772         9.35772 
         1.8592         92.3122         9.28139         9.28139 
        1.86533          91.745         9.20595         9.20595 
        1.87147         91.1562         9.13126         9.13126 
