# k  (h/Mpc)    P(k)  (Mpc/h)^3    P_linear(k)  (Mpc/h)^3     P_NL(k)  ShotnoiseSubtracted = false
     0.00783031         24736.7         24884.2         24643.4 
       0.013688         26951.2         27786.4         27556.2 
       0.019231         25224.5         25666.9           25454 
      0.0249154         21782.2         21612.8         21449.9 
      0.0312784         16867.7         16958.3         16859.5 
      0.0375637         13201.5         13352.2         13310.5 
      0.0433917         11143.9         11112.2         11065.6 
      0.0492413          9716.9         9741.45         9704.94 
      0.0555754         8915.17         8873.09         8843.73 
      0.0619321         8016.39         8245.86         8213.23 
       0.067871         7519.54         7615.14         7594.92 
      0.0738098          6850.1         6837.73         6759.77 
      0.0800417         5982.46         5908.62         5893.09 
      0.0862327         5090.54         5003.28         5099.94 
      0.0921407         4444.17          4274.7         4406.46 
      0.0982031         3975.16         3726.19         3940.13 
       0.104506         3535.34          3365.6         3625.03 
       0.110769          3338.2         3163.86         3354.23 
       0.116806         3230.48         3042.94         3190.97 
       0.122832         3069.33         2924.81         3054.88 
       0.129052         2865.75         2757.33          2868.8 
       0.135211         2737.68         2534.56         2657.44 
       0.141259         2460.68         2282.38         2456.53 
       0.147318         2233.12         2033.18          2268.2 
       0.153489         2050.12         1816.31         2038.04 
       0.159709         1949.38         1653.31         1908.58 
       0.165845         1792.98         1546.58         1835.47 
       0.171974         1749.83         1479.58         1743.23 
       0.178125         1698.41         1431.58         1699.42 
       0.184229         1569.72         1383.36         1619.45 
        0.19034          1540.5         1321.58          1540.1 
       0.196428         1482.09          1243.5         1457.07 
       0.202534            1374         1154.31         1385.05 
       0.208729         1336.15         1063.25         1291.41 
       0.214876         1257.35         982.433         1248.34 
       0.220989         1189.73         917.449          1200.2 
       0.227147         1152.07         868.384         1157.95 
        0.23329         1105.17          832.47         1125.95 
       0.239377         1098.79         804.158         1081.74 
       0.245482         1043.49         777.251         1035.57 
       0.251667          1005.4         747.206         1007.74 
       0.257832         982.646          712.93         964.326 
       0.263955         932.677         675.665         926.895 
       0.270079         900.675          637.78         893.629 
        0.27624         861.533         602.071         859.278 
       0.282372         847.323         570.955         838.318 
        0.28843         828.423          545.31           818.3 
       0.294538         789.238         523.979         792.139 
       0.300721         772.748          505.54         768.814 
        0.30691          750.99         488.501         756.993 
       0.313033          719.45          471.61         729.555 
       0.319153         710.933         453.981         707.548 
       0.325316         698.153         435.476         690.173 
        0.33145         679.374         416.919         663.589 
       0.337538         654.853         399.152         648.239 
       0.343633         639.028         382.676         638.784 
       0.349808         624.228         367.734          626.36 
       0.355968         611.336         354.493          611.96 
       0.362074         588.663         342.738         599.601 
       0.368217         584.823         331.759         583.207 
       0.374374         575.785         321.161         569.596 
       0.380519         553.289         310.695         555.666 
       0.386598         547.863         300.312         549.307 
       0.392688         532.453         290.014         534.182 
        0.39888         521.775         279.813         522.819 
       0.405048         507.947         270.125         512.021 
       0.411186         507.784         261.124          501.27 
       0.417313         499.105         252.786          492.42 
       0.423458         487.281         245.014         483.501 
       0.429607         472.122         237.724         475.384 
       0.435692         465.256         230.837         462.033 
       0.441815         456.919         224.108         458.136 
       0.447964         448.494         217.512         451.518 
       0.454126         442.706         211.052         438.374 
       0.460267         436.012         204.779         435.565 
       0.466387         425.125         198.749         428.182 
        0.47254         421.809         192.963         420.378 
       0.478662         412.176         187.495         412.218 
       0.484765           405.8         182.314           406.2 
       0.490885         403.368         177.371         398.343 
       0.497035          392.49         172.622         393.491 
       0.503198         391.326          168.04         388.352 
       0.509342          383.69          163.61         381.322 
       0.515458          375.99         159.323         376.795 
       0.521598         373.237         155.149          371.76 
       0.527764         365.449         151.097         368.261 
       0.533884           360.5         147.216         363.069 
           0.54         357.274         143.481         356.882 
       0.546137         350.493         139.876         352.482 
       0.552299         348.136         136.401         347.258 
       0.558452         342.113         133.066         343.244 
       0.564573         340.923         129.865         340.099 
       0.570708         334.259         126.761          335.63 
       0.576825         328.832         123.757         329.615 
       0.582926         327.555          120.85         326.966 
       0.589034         320.803         118.028          322.38 
       0.595184         318.466         115.277         317.403 
       0.601379         312.798         112.598         313.647 
       0.607522         306.986          110.03         308.648 
       0.613639         305.801         107.555         308.174 
       0.619772         303.884         105.152          306.01 
       0.625918         297.804          102.82         300.513 
       0.632068         296.493         100.558         297.973 
       0.638161         292.592         98.3846         295.209 
         0.6443         288.359         96.2605         291.383 
       0.650464          285.91         94.1915         286.169 
       0.656582         282.184          92.198           284.4 
       0.662703         281.271         90.2612         281.739 
       0.668861         275.643         88.3688         280.264 
       0.675024          274.61         86.5293          277.42 
       0.681124         268.922         84.7608         273.008 
       0.687237         268.198         83.0387         270.089 
       0.693381         263.969         81.3569         267.353 
       0.699536         263.436         79.7195         265.531 
       0.705665           259.5         78.1347         261.332 
       0.711789         256.787         76.5951         260.131 
       0.717957         255.084         75.0868         258.915 
        0.72409          251.62         73.6279         255.166 
       0.730186         251.846         72.2168          252.35 
       0.736317         247.371         70.8352         250.774 
       0.742472         245.625         69.4849         248.527 
       0.748622         244.063         68.1711         245.685 
        0.75476         241.296         66.8943         245.749 
       0.760888          239.56         65.6523         242.182 
       0.767043         236.354         64.4371         239.672 
       0.773185         233.723         63.2554         238.009 
       0.779291         232.306         62.1101         235.449 
       0.785407         230.597         60.9917         233.557 
       0.791564         229.048         59.8939           231.6 
       0.797719         225.513         58.8239         229.675 
       0.803834         224.785         57.7869         228.363 
       0.809972         221.572         56.7713         226.268 
       0.816124         219.856         55.7781         223.994 
       0.822261         217.814         54.8115         223.077 
       0.828378         216.703         53.8707          220.86 
       0.834502         213.638         52.9514         219.174 
       0.840667         213.038         52.0476         217.095 
       0.846816         210.375         51.1676         215.676 
       0.852925         210.173         50.3136         214.165 
       0.859047         206.845         49.4774         212.229 
       0.865192         206.082         48.6575         210.188 
       0.871341         204.226         47.8557         208.842 
       0.877463         202.731         47.0758         207.718 
       0.883569         201.698         46.3152         207.357 
       0.889708         199.861         45.5677         204.502 
       0.895864         197.062         44.8347         203.484 
       0.902008         195.892         44.1195         201.366 
       0.908149         193.647         43.4204         199.888 
       0.914301         192.989         42.7353          198.24 
       0.920448         190.903         42.0658         197.292 
       0.926574         189.453         41.4129         195.754 
       0.932687         189.022         40.7754         194.104 
       0.938823         187.124         40.1491         193.691 
       0.944975         186.733         39.5345         191.857 
       0.951105         184.557         38.9351         190.586 
       0.957225         182.957         38.3492         189.117 
       0.963368         182.696         37.7734         187.878 
       0.969511         180.259         37.2095         186.682 
       0.975621         178.036         36.6601          185.47 
       0.981748         177.666         36.1205         184.596 
       0.987916         176.496         35.5884         183.065 
        0.99406          174.84          35.069         181.838 
        1.00019         173.654         34.5611         180.509 
        1.00632         172.684         34.0638         179.127 
        1.01246         171.367         33.5755         177.664 
        1.01859         169.662         33.0977         176.888 
        1.02471         168.328         32.6298         175.811 
        1.03085         167.659         32.1693         174.855 
        1.03698         166.515         31.7187         174.195 
        1.04314         165.553         31.2749         172.721 
        1.04929         164.153         30.8406          171.34 
        1.05541         163.997         30.4164          170.54 
        1.06154         162.246          29.999         169.829 
        1.06769         161.137         29.5889         168.633 
        1.07382          159.14         29.1879         167.659 
        1.07993          158.86         28.7951          166.68 
        1.08607         158.024          28.408         165.297 
        1.09222         156.448         28.0277         164.465 
        1.09836         155.372         27.6547         163.526 
        1.10449         154.708          27.289         162.968 
        1.11063         153.467         26.9296         161.592 
        1.11677         152.118         26.5767          160.58 
         1.1229         151.833         26.2308         159.578 
        1.12903         149.924         25.8908           158.6 
        1.13518         149.116         25.5565         157.821 
        1.14131         148.376         25.2284         156.837 
        1.14745         147.266         24.9061         155.607 
        1.15359         146.264         24.5895          155.16 
        1.15973         145.577         24.2783         154.153 
        1.16584         144.665         23.9738         153.639 
        1.17197         143.892         23.6742          152.68 
        1.17811         142.226         23.3788         151.573 
        1.18424         141.672         23.0892         150.658 
        1.19038         140.778         22.8038          150.33 
        1.19652         139.371         22.5233         148.904 
        1.20267         138.666         22.2475         148.544 
        1.20881         137.876         21.9765         147.522 
        1.21495         137.198         21.7103          146.67 
        1.22108         136.025         21.4487         145.805 
         1.2272         135.542          21.192         145.237 
        1.23334         134.267         20.9389         144.496 
        1.23949         133.866         20.6893         143.571 
        1.24562         132.753         20.4445         142.419 
        1.25174         132.237         20.2041         141.717 
        1.25789         131.116         19.9667         140.867 
        1.26402         130.344         19.7337         140.459 
        1.27014         129.655         19.5049         139.651 
        1.27628         129.127          19.279         139.357 
        1.28244         127.906         19.0563         138.382 
        1.28858         127.082         18.8375         137.705 
        1.29471         126.126         18.6225         136.924 
        1.30084         125.636         18.4111         135.935 
        1.30697         124.847         18.2027         135.219 
        1.31312         124.303         17.9972         134.435 
        1.31925         123.226         17.7955         133.982 
        1.32537         122.762         17.5972         133.276 
        1.33151         121.536         17.4011         132.593 
        1.33765         121.319         17.2082          131.99 
        1.34378         120.497         17.0185         131.286 
        1.34992         119.587         16.8316         130.567 
        1.35606         118.981         16.6472         129.712 
         1.3622         118.242         16.4658         129.348 
        1.36833         117.668         16.2875         128.556 
        1.37445         116.741          16.112          127.74 
        1.38059             116         15.9385         127.136 
        1.38675         115.205         15.7672         126.419 
        1.39288         114.528          15.599         125.916 
        1.39901         113.872         15.4334         125.298 
        1.40515         113.136         15.2699         124.605 
         1.4113         112.725         15.1087         123.998 
        1.41742         112.009         14.9505         123.433 
        1.42355         111.005         14.7943         122.646 
         1.4297         110.402         14.6399         122.175 
        1.43585         110.163         14.4877         121.694 
        1.44198         109.266         14.3382         121.191 
        1.44809           108.7         14.1912          120.43 
        1.45423         108.092         14.0457         119.711 
        1.46036          107.47         13.9024         119.159 
        1.46649         106.517         13.7612         118.699 
        1.47263         106.342         13.6217         118.149 
        1.47877         105.429         13.4843         117.356 
        1.48491         104.647         13.3486         116.781 
        1.49104         104.136          13.215         116.401 
        1.49718           103.4         13.0831         115.764 
        1.50333         102.741         12.9528         115.116 
        1.50947         102.314         12.8246         114.609 
         1.5156         101.644         12.6983         114.144 
        1.52172         101.054         12.5737         113.626 
        1.52787         100.493         12.4505         113.011 
          1.534         99.9691         12.3291         112.497 
        1.54013         99.6704         12.2095         112.071 
        1.54627         98.7705         12.0912         111.557 
        1.55241         98.2302         11.9745          110.95 
        1.55855         97.4804         11.8595          110.35 
        1.56467         97.0444         11.7463         109.881 
         1.5708         96.6885         11.6343         109.326 
        1.57695         96.0615         11.5235         108.803 
        1.58308         95.1731         11.4145           108.4 
        1.58922         94.7807         11.3068         107.904 
        1.59535         94.2204         11.2005         107.426 
         1.6015         93.5836         11.0954          106.91 
        1.60764         93.1825         10.9918         106.382 
        1.61376         92.7589         10.8897          105.95 
        1.61989         92.1581         10.7889         105.485 
        1.62604         91.8099         10.6891         104.778 
        1.63218         90.9107         10.5907         104.242 
        1.63831         90.6666         10.4937         103.978 
        1.64444         89.9749         10.3979         103.511 
        1.65059         89.3596          10.303             103 
        1.65673         88.9752         10.2095         102.476 
        1.66285         88.7873         10.1173         102.052 
        1.66898         88.1146         10.0263           101.7 
        1.67512         87.1823         9.93623         101.156 
        1.68127         87.0647         9.84717         100.721 
         1.6874         86.6471          9.7594         100.329 
        1.69353         85.8837         9.67275         99.7735 
        1.69967         85.5714         9.58695         99.3658 
        1.70581         84.8862         9.50222         98.9392 
        1.71193         84.6541         9.41884         98.4359 
        1.71806         83.8746         9.33629          98.011 
        1.72421         83.4187         9.25456         97.6825 
        1.73035         83.1398          9.1739         97.2692 
        1.73649          82.662         9.09422          96.714 
        1.74262         81.9761         9.01555          96.175 
        1.74876         81.5451         8.93776         95.7665 
        1.75489         81.3322         8.86105         95.4341 
        1.76101          80.889         8.78526         95.0892 
        1.76715         80.3452         8.71025         94.6921 
        1.77329         79.8888         8.63603         94.2352 
        1.77943         79.2799         8.56264         93.8092 
        1.78557         78.8468         8.49021         93.4504 
        1.79171         78.4235         8.41861         93.0033 
        1.79785          77.958         8.34782         92.5281 
        1.80399         77.4356         8.27785           92.16 
        1.81012         77.1207         8.20879         91.8434 
        1.81625         76.4489         8.14054         91.4212 
        1.82239         76.2528         8.07296         90.9459 
        1.82853         75.7568         8.00618         90.5848 
        1.83466         75.3028         7.94022         90.1683 
        1.84078         74.9876         7.87507         89.7454 
        1.84692         74.5182         7.81055         89.5007 
        1.85306         74.0625         7.74667         89.0402 
         1.8592         73.7148          7.6836          88.522 
        1.86533         73.2114         7.62127         88.2885 
        1.87147         72.8044         7.55956         87.9692 
        1.87761         72.4606          7.4985         87.5287 
