# k  (h/Mpc)    P(k)  (Mpc/h)^3    P_linear(k)  (Mpc/h)^3     P_NL(k)  ShotnoiseSubtracted = false
     0.00783031         12672.7         12757.3           12641 
       0.013688         13896.6         14218.5         14117.3 
       0.019231         12973.6         13128.7         13040.9 
      0.0249154         11130.2         11053.5         10997.1 
      0.0312784          8661.6         8672.47         8653.33 
      0.0375637         6784.94         6828.12         6825.24 
      0.0433917          5708.1         5682.52         5678.49 
      0.0492413          4978.8          4981.5         4979.92 
      0.0555754         4567.29         4537.42         4533.54 
      0.0619321         4136.37         4216.66         4209.84 
       0.067871         3873.19         3894.12          3889.4 
      0.0738098         3505.91         3496.57         3476.71 
      0.0800417         3055.31         3021.46         3019.47 
      0.0862327         2589.35         2558.49         2588.73 
      0.0921407         2236.25         2185.93         2226.39 
      0.0982031         1984.84         1905.44         1969.49 
       0.104506         1766.01         1721.05         1797.75 
       0.110769         1665.82         1617.88         1672.58 
       0.116806         1616.95         1556.05         1598.03 
       0.122832          1534.4         1495.64         1533.16 
       0.129052         1445.49         1409.99         1441.32 
       0.135211         1360.51         1296.08         1332.02 
       0.141259         1221.13         1167.12         1217.35 
       0.147318         1093.43         1039.69         1110.32 
       0.153489         994.751         928.792         993.196 
       0.159709         932.248         845.443         919.425 
       0.165845         854.591         790.862         876.724 
       0.171974          838.58         756.602         832.144 
       0.178125         809.583         732.059         809.912 
       0.184229         759.261         707.401         776.246 
        0.19034         738.329         675.808         738.594 
       0.196428         705.085          635.88         694.095 
       0.202534         645.358         590.269         654.569 
       0.208729         622.759         543.707         608.812 
       0.214876         585.455          502.38         581.723 
       0.220989         543.646         469.149          553.12 
       0.227147         527.671         444.059         528.117 
        0.23329         506.495         425.694         511.829 
       0.239377         498.737         411.217         492.272 
       0.245482         473.503         397.457         470.426 
       0.251667         453.902         382.093         457.237 
       0.257832         445.227         364.566         436.157 
       0.263955         417.948          345.51         416.663 
       0.270079         398.684         326.137         399.362 
        0.27624         380.028         307.877         380.937 
       0.282372         368.828         291.965         367.849 
        0.28843         363.886         278.851         355.481 
       0.294538         344.602         267.943         344.201 
       0.300721         333.551         258.514         334.458 
        0.30691         327.079         249.801         326.049 
       0.313033         310.927         241.164         313.785 
       0.319153         305.149         232.149          303.73 
       0.325316         297.459         222.686         294.755 
        0.33145         288.367         213.197         282.773 
       0.337538         276.729         204.111         273.715 
       0.343633         267.673         195.686         268.527 
       0.349808         259.709         188.045         261.796 
       0.355968         254.055         181.275         255.535 
       0.362074          245.04         175.263         248.239 
       0.368217         241.925         169.649         239.849 
       0.374374         235.939          164.23         233.539 
       0.380519         225.957         158.878         226.867 
       0.386598         222.123         153.569         223.032 
       0.392688         215.166         148.303         215.871 
        0.39888         210.225         143.086         210.653 
       0.405048         204.684         138.132         206.638 
       0.411186         202.928         133.529         200.582 
       0.417313         198.435         129.266         195.337 
       0.423458         193.259         125.291          191.47 
       0.429607         187.277         121.563         187.455 
       0.435692          184.07         118.042         182.433 
       0.441815         180.085         114.601         179.874 
       0.447964         174.532         111.228         175.932 
       0.454126         171.832         107.924         170.572 
       0.460267         169.394         104.716         168.845 
       0.466387         164.813         101.633         165.072 
        0.47254         162.809          98.674         161.671 
       0.478662         157.952         95.8781          158.39 
       0.484765           155.3         93.2289         154.305 
       0.490885          152.72          90.701         151.931 
       0.497035         150.226         88.2725         149.508 
       0.503198         148.383         85.9297         146.762 
       0.509342         144.564         83.6641         144.361 
       0.515458         141.895         81.4719         142.281 
       0.521598         138.398         79.3377         138.875 
       0.527764         137.211         77.2652         136.779 
       0.533884          135.74         75.2806           134.7 
           0.54         132.545         73.3707         131.971 
       0.546137         129.312         71.5275         130.302 
       0.552299         127.514         69.7505         127.461 
       0.558452         125.347         68.0451         125.254 
       0.564573         124.592         66.4083         123.959 
       0.570708         121.182         64.8207         122.195 
       0.576825         119.451         63.2846         119.514 
       0.582926         118.213         61.7981         117.825 
       0.589034          115.97         60.3551           116.6 
       0.595184         114.568         58.9485         114.075 
       0.601379         112.526         57.5787         112.882 
       0.607522         109.734         56.2652         110.767 
       0.613639         108.965         54.9995         109.789 
       0.619772         107.501         53.7709         108.229 
       0.625918         106.359         52.5782         106.425 
       0.632068         103.793         51.4215         104.705 
       0.638161         102.972         50.3103         103.878 
         0.6443         101.885         49.2241         102.339 
       0.650464         99.6799         48.1661         100.128 
       0.656582         98.9151         47.1466         99.3323 
       0.662703         97.8618         46.1562         97.8319 
       0.668861         95.7015         45.1886         96.7837 
       0.675024         95.4936         44.2479          95.396 
       0.681124         93.8392         43.3436         94.1075 
       0.687237         92.7132         42.4629         92.9093 
       0.693381         91.1187         41.6029         91.5369 
       0.699536         90.4406         40.7656         90.5731 
       0.705665         89.2461         39.9552         89.8474 
       0.711789         87.7777         39.1679         88.5164 
       0.717957         86.7641         38.3966         87.4368 
        0.72409         85.6587         37.6506         86.7402 
       0.730186         85.4775          36.929         85.7782 
       0.736317         84.2852         36.2225         84.4686 
       0.742472          82.647          35.532         83.5858 
       0.748622         81.3948         34.8602         82.5227 
        0.75476         81.5591         34.2073         81.5675 
       0.760888         80.4655         33.5722         80.3837 
       0.767043         78.9042         32.9508         79.8853 
       0.773185         77.8094         32.3465         79.2135 
       0.779291         77.1424         31.7608         78.1774 
       0.785407         76.4365         31.1889         77.1613 
       0.791564         75.6795         30.6275         76.5215 
       0.797719         74.4169         30.0804         76.0041 
       0.803834         74.2669         29.5501         74.9174 
       0.809972         73.4725         29.0308         74.1563 
       0.816124         72.1289         28.5229         73.5452 
       0.822261         71.4924         28.0286         72.7225 
       0.828378         71.1753         27.5475         71.7744 
       0.834502         70.4331         27.0774         71.0809 
       0.840667         69.7896         26.6153         70.6972 
       0.846816         68.8373         26.1653         69.9753 
       0.852925         68.1758         25.7285         69.2947 
       0.859047         67.5267         25.3009         68.5949 
       0.865192          66.867         24.8817         67.9159 
       0.871341         66.2683         24.4717         67.1933 
       0.877463         65.6013         24.0728         66.6476 
       0.883569         65.4559         23.6839         66.2804 
       0.889708         64.7184         23.3016         65.5471 
       0.895864         64.1037         22.9268         65.0989 
       0.902008         63.2047         22.5611         64.3016 
       0.908149         62.4937         22.2036         63.7775 
       0.914301          62.181         21.8533         63.2654 
       0.920448         62.1227         21.5109         62.7743 
       0.926574         60.7429         21.1771         62.1287 
       0.932687         60.5338         20.8511         61.6687 
       0.938823          60.118         20.5308         61.0161 
       0.944975         59.4188         20.2165         60.5258 
       0.951105         58.8294           19.91          59.997 
       0.957225         58.5624         19.6104         59.5401 
       0.963368         57.9212         19.3159         58.9906 
       0.969511         57.5439         19.0275         58.5064 
       0.975621         56.6916         18.7466         58.3601 
       0.981748         56.4359         18.4707          57.857 
       0.987916         55.8691         18.1986         57.3879 
        0.99406         55.6869          17.933         56.7683 
        1.00019         54.9876         17.6733         56.2306 
        1.00632         54.4628          17.419         55.8054 
        1.01246         54.1471         17.1693         55.2949 
        1.01859         53.8225         16.9249         55.1422 
        1.02471          53.429         16.6857         54.8409 
        1.03085         52.8506         16.4502         54.2789 
        1.03698          52.435         16.2198         53.8281 
        1.04314         52.0606         15.9928         53.3923 
        1.04929         51.6638         15.7708         53.1233 
        1.05541         51.1852         15.5538         52.8362 
        1.06154         50.7396         15.3404         52.3942 
        1.06769         50.4338         15.1307         52.0137 
        1.07382          49.964         14.9256         51.6775 
        1.07993         49.7629         14.7248           51.31 
        1.08607         49.3317         14.5268         50.9477 
        1.09222         49.0325         14.3323         50.5533 
        1.09836         48.6218         14.1416         50.1346 
        1.10449         48.2596         13.9546         49.8536 
        1.11063         47.8759         13.7708         49.3199 
        1.11677         47.7105         13.5904         49.0188 
         1.1229         47.1052         13.4135         48.8725 
        1.12903         46.8852         13.2396         48.4406 
        1.13518         46.4804         13.0687         48.1089 
        1.14131         46.1895         12.9009         47.7465 
        1.14745         45.9859         12.7361         47.5295 
        1.15359         45.3995         12.5742          47.165 
        1.15973         45.3127          12.415          46.975 
        1.16584         44.9661         12.2593         46.4625 
        1.17197         44.6277         12.1061         46.3416 
        1.17811         44.3144          11.955         46.0018 
        1.18424         43.8042          11.807         45.7431 
        1.19038         43.6466          11.661          45.381 
        1.19652         43.4308         11.5176         45.0753 
        1.20267         43.0116         11.3766         44.8771 
        1.20881         42.7064          11.238         44.5582 
        1.21495         42.4616         11.1019         44.2328 
        1.22108         42.3418         10.9681         44.0461 
         1.2272         41.9359         10.8368         43.7694 
        1.23334         41.7809         10.7074          43.563 
        1.23949         41.3945         10.5798         43.1658 
        1.24562         41.0638         10.4546         42.8586 
        1.25174         40.9553         10.3316         42.6933 
        1.25789         40.6786         10.2103          42.429 
        1.26402         40.3543         10.0911          42.218 
        1.27014         40.1303         9.97408         42.0604 
        1.27628         39.8554          9.8586          41.747 
        1.28244         39.8175         9.74472         41.3994 
        1.28858         39.4023         9.63279         41.1614 
        1.29471         39.0404         9.52288         41.0146 
        1.30084         38.7259         9.41478         40.6941 
        1.30697         38.6658          9.3082         40.5228 
        1.31312         38.4639         9.20312         40.3257 
        1.31925         38.0899         9.09999         40.0311 
        1.32537         37.8797         8.99855         39.8731 
        1.33151         37.6827          8.8983         39.6008 
        1.33765         37.4744         8.79963         39.3899 
        1.34378         37.2167         8.70266         39.1968 
        1.34992         37.0023         8.60709         38.9341 
        1.35606         36.7004         8.51274         38.7273 
         1.3622         36.5642         8.41999         38.5626 
        1.36833         36.3877         8.32883         38.3679 
        1.37445         36.0748         8.23908         38.1718 
        1.38059          35.877         8.15037         37.9523 
        1.38675         35.6555         8.06276         37.7195 
        1.39288         35.4972         7.97678         37.5178 
        1.39901         35.2179          7.8921         37.3381 
        1.40515          35.012         7.80846         37.2229 
         1.4113         34.9057         7.72606         37.0369 
        1.41742          34.653         7.64516         36.7287 
        1.42355         34.4763         7.56528          36.579 
         1.4297          34.333         7.48629         36.3889 
        1.43585         34.1492         7.40847         36.1785 
        1.44198         33.8403         7.33205         36.0229 
        1.44809         33.5759         7.25685         35.8096 
        1.45423         33.5363         7.18243         35.6195 
        1.46036         33.3725         7.10919         35.4563 
        1.46649         33.0524         7.03695         35.3223 
        1.47263         32.8731         6.96566         35.1646 
        1.47877         32.7137         6.89538         34.9086 
        1.48491         32.4597         6.82596         34.7625 
        1.49104         32.3845         6.75765         34.6451 
        1.49718         32.1687         6.69022         34.4601 
        1.50333         32.0478         6.62361         34.2682 
        1.50947          31.775         6.55804         34.0942 
         1.5156         31.7182         6.49345         33.9294 
        1.52172          31.436         6.42973         33.7706 
        1.52787         31.3677         6.36674         33.6193 
          1.534         31.0845         6.30467           33.46 
        1.54013         31.0914         6.24349         33.2686 
        1.54627         30.7611         6.18301         33.1015 
        1.55241         30.6939         6.12332         32.9668 
        1.55855         30.4786          6.0645         32.8186 
        1.56467         30.1999         6.00662         32.6884 
         1.5708          30.237         5.94933         32.5281 
        1.57695         30.0091         5.89271         32.3789 
        1.58308         29.8457         5.83695         32.2396 
        1.58922         29.6263         5.78187         32.0624 
        1.59535         29.6341         5.72752         31.9349 
         1.6015          29.492          5.6738         31.7551 
        1.60764         29.2544         5.62079         31.6041 
        1.61376         29.0818         5.56861         31.5335 
        1.61989         28.8516         5.51705         31.3604 
        1.62604         28.7459         5.46603         31.1929 
        1.63218         28.5073         5.41568          31.057 
        1.63831          28.453         5.36608         30.9378 
        1.64444         28.3187         5.31709         30.8057 
        1.65059         28.1357         5.26859         30.6366 
        1.65673         28.0132         5.22075         30.5014 
        1.66285         27.8819         5.17364         30.4048 
        1.66898         27.7323         5.12709         30.2913 
        1.67512         27.5074         5.08103         30.1187 
        1.68127         27.4744         5.03548         29.9663 
         1.6874          27.376          4.9906         29.8459 
        1.69353          27.143         4.94629         29.7177 
        1.69967         27.0492         4.90242         29.5918 
        1.70581         26.9157         4.85909          29.481 
        1.71193         26.7365         4.81645         29.3671 
        1.71806         26.6485         4.77424         29.2238 
        1.72421         26.4347         4.73244            29.1 
        1.73035         26.4054          4.6912         28.9863 
        1.73649         26.2107         4.65045         28.8621 
        1.74262         26.0527         4.61022         28.7261 
        1.74876         26.0761         4.57044         28.5907 
        1.75489          25.804         4.53122         28.4787 
        1.76101         25.7849         4.49246         28.3769 
        1.76715         25.5586         4.45411         28.2319 
        1.77329         25.4305         4.41615         28.1217 
        1.77943         25.3901         4.37862         28.0289 
        1.78557         25.2619         4.34159         27.8981 
        1.79171         25.0866         4.30497         27.7731 
        1.79785         25.0052         4.26877         27.6687 
        1.80399         24.8382         4.23299          27.569 
        1.81012         24.7029         4.19768         27.4488 
        1.81625         24.6098         4.16277         27.3174 
        1.82239          24.461         4.12822         27.2131 
        1.82853         24.3929         4.09407         27.1453 
        1.83466         24.2205         4.06034         27.0231 
        1.84078         24.1225         4.02703         26.8669 
        1.84692         23.9954         3.99403         26.7815 
        1.85306         23.8977         3.96137         26.6971 
         1.8592         23.7156         3.92912         26.5807 
        1.86533         23.6765         3.89724         26.4647 
        1.87147          23.549         3.86568         26.3469 
        1.87761         23.4598         3.83446         26.2364 
