# k  (h/Mpc)    P(k)  (Mpc/h)^3    P_linear(k)  (Mpc/h)^3     P_NL(k)  ShotnoiseSubtracted = false
     0.00783031         6107.43         6153.12         6098.24 
       0.013688         6738.39         6856.63         6811.86 
       0.019231         6279.51         6331.19         6293.98 
      0.0249154          5359.6         5330.53         5310.06 
      0.0312784         4185.94         4182.36         4181.11 
      0.0375637         3282.93         3292.96         3296.16 
      0.0433917          2753.7          2740.5         2743.53 
      0.0492413         2403.61         2402.44         2405.75 
      0.0555754         2201.94         2188.28         2188.78 
      0.0619321         2007.35          2033.6         2032.31 
       0.067871         1873.92         1878.05         1876.38 
      0.0738098         1690.06         1686.33         1681.24 
      0.0800417         1469.56         1457.19         1457.03 
      0.0862327         1243.46         1233.92         1242.18 
      0.0921407         1067.16         1054.23          1065.4 
      0.0982031         941.673          918.96         936.001 
       0.104506         839.779         830.033         849.973 
       0.110769         791.299         780.279         794.306 
       0.116806         767.381         750.458         760.951 
       0.122832         729.691         721.325         730.634 
       0.129052         689.854          680.02         687.597 
       0.135211         642.588         625.081         634.064 
       0.141259         576.646         562.888         575.438 
       0.147318         513.418         501.429         519.589 
       0.153489           463.9         447.944         464.273 
       0.159709         429.454         407.746         426.411 
       0.165845         394.839         381.422         403.323 
       0.171974          386.27         364.899         383.714 
       0.178125         372.175         353.062         372.501 
       0.184229         353.412          341.17         358.481 
        0.19034         341.762         325.934         341.553 
       0.196428         323.867         306.677         320.587 
       0.202534         296.117         284.679         300.247 
       0.208729         281.589         262.223         278.546 
       0.214876         264.048         242.291         262.588 
       0.220989         243.527         226.265         247.632 
       0.227147         235.535         214.164         235.153 
        0.23329         226.124         205.307         226.913 
       0.239377          220.61         198.325         218.765 
       0.245482         210.605         191.689         209.554 
       0.251667         201.175         184.279         202.927 
       0.257832          196.69         175.826         193.527 
       0.263955         184.052         166.635         184.102 
       0.270079         174.557         157.292         175.289 
        0.27624         165.579         148.485          166.31 
       0.282372          159.02         140.811         159.651 
        0.28843         156.117         134.487         153.451 
       0.294538         148.533         129.226         148.057 
       0.300721         142.461         124.678         143.621 
        0.30691          139.73         120.476         139.261 
       0.313033         133.373          116.31          134.04 
       0.319153         130.553         111.963         129.499 
       0.325316         125.299         107.399         125.248 
        0.33145          120.59         102.822         120.059 
       0.337538         115.832         98.4405         115.494 
       0.343633         111.801         94.3773         112.078 
       0.349808         107.842         90.6921         108.818 
       0.355968         104.743         87.4267         105.947 
       0.362074         102.185         84.5274         102.468 
       0.368217         99.5536         81.8199         98.8278 
       0.374374         96.7435          79.206         96.1007 
       0.380519         92.6122         76.6249         93.0746 
       0.386598         90.1723         74.0644         90.6488 
       0.392688         87.0242         71.5246         88.0199 
        0.39888         85.3089         69.0088         85.3154 
       0.405048         82.9196         66.6195         83.0224 
       0.411186         80.9374         64.3996         80.9361 
       0.417313         78.5782         62.3433         78.3811 
       0.423458         76.4402         60.4264         76.5131 
       0.429607         74.6189         58.6284         74.5481 
       0.435692         73.3219         56.9302         72.6349 
       0.441815          70.761         55.2706         71.2111 
       0.447964          68.264         53.6439          69.197 
       0.454126         66.9817         52.0506         67.1289 
       0.460267         66.1964         50.5034         66.0485 
       0.466387         64.2508         49.0163         64.2079 
        0.47254         63.3148         47.5893         62.8281 
       0.478662         60.9641         46.2409         61.4134 
       0.484765         59.7857         44.9632         59.6239 
       0.490885         58.1525         43.7441         58.6521 
       0.497035         57.4263         42.5728         57.5715 
       0.503198         56.1055         41.4429         56.1112 
       0.509342          54.513         40.3502         55.0365 
       0.515458         53.4977          39.293         54.1558 
       0.521598         52.1171         38.2637         52.5413 
       0.527764         51.4247         37.2641         51.2313 
       0.533884         50.6751          36.307         50.3347 
           0.54         49.2507         35.3859         49.3655 
       0.546137         47.8604         34.4969         48.5517 
       0.552299         46.8935         33.6399         47.2675 
       0.558452         45.9329         32.8174         46.2762 
       0.564573         45.5134          32.028         45.6535 
       0.570708         44.1772         31.2623         44.8061 
       0.576825         43.6503         30.5215          43.879 
       0.582926         42.9692         29.8045         43.0376 
       0.589034         42.0112         29.1086         42.4841 
       0.595184         41.3498         28.4302         41.5535 
       0.601379         40.3106         27.7696         40.9507 
       0.607522         39.4437         27.1361          39.927 
       0.613639         39.0082         26.5256         39.3794 
       0.619772         38.1335         25.9331         38.6809 
       0.625918         37.6158         25.3579         38.1195 
       0.632068          37.024            24.8         37.3808 
       0.638161          36.242         24.2641         36.7907 
         0.6443          35.858         23.7402         36.0819 
       0.650464         34.9064           23.23         35.4321 
       0.656582          34.694         22.7383         34.9929 
       0.662703         34.0705         22.2606         34.3018 
       0.668861         33.2724         21.7939         33.8885 
       0.675024         32.9587         21.3403         33.2041 
       0.681124         32.5533         20.9041         32.6911 
       0.687237         31.8748         20.4794          32.185 
       0.693381         31.3556         20.0646          31.613 
       0.699536         31.0259         19.6608          31.333 
       0.705665         30.4648           19.27         30.8964 
       0.711789         29.9503         18.8902         30.1896 
       0.717957         29.3878         18.5183         29.9001 
        0.72409         29.0419         18.1585         29.5174 
       0.730186         28.8159         17.8104         29.0624 
       0.736317         28.2366         17.4697         28.5812 
       0.742472         27.8577         17.1367         28.2007 
       0.748622         27.3678         16.8127         27.7729 
        0.75476         26.8809         16.4978         27.4114 
       0.760888         26.7837         16.1915         27.0328 
       0.767043         26.1811         15.8918         26.7544 
       0.773185         25.7961         15.6003         26.3754 
       0.779291         25.4668         15.3179         26.0424 
       0.785407         25.1323         15.0421         25.6155 
       0.791564         25.0176         14.7713         25.2814 
       0.797719         24.3958         14.5074         25.0649 
       0.803834          24.274         14.2517         24.6566 
       0.809972         23.8667         14.0012         24.3305 
       0.816124         23.5778         13.7563         24.0462 
       0.822261         23.2181         13.5179         23.7067 
       0.828378         23.0557         13.2859         23.3467 
       0.834502         22.7449         13.0591         23.1572 
       0.840667         22.4867         12.8362         22.8811 
       0.846816         22.1071         12.6192         22.5981 
       0.852925         21.9016         12.4086         22.3822 
       0.859047         21.7181         12.2024         22.0598 
       0.865192         21.3499         12.0001         21.7959 
       0.871341         21.0967         11.8024         21.5648 
       0.877463         20.8228         11.6101         21.3158 
       0.883569         20.6845         11.4225         21.0994 
       0.889708         20.3898         11.2381         20.8335 
       0.895864           20.12         11.0574         20.5637 
       0.902008         19.9255          10.881         20.3442 
       0.908149         19.6325         10.7085           20.18 
       0.914301         19.4444         10.5396         20.0125 
       0.920448         19.2584         10.3745         19.6994 
       0.926574         19.0054         10.2135          19.466 
       0.932687         18.7545         10.0562         19.2725 
       0.938823         18.4815         9.90176         19.0186 
       0.944975         18.3262          9.7502         18.8461 
       0.951105         18.1742         9.60237         18.6458 
       0.957225         17.9922         9.45786         18.4458 
       0.963368         17.7481         9.31586         18.2453 
       0.969511         17.5667         9.17678         18.0362 
       0.975621         17.4204         9.04129         17.8992 
       0.981748         17.1887         8.90821         17.7192 
       0.987916         17.0494         8.77698          17.534 
        0.99406         16.8183          8.6489         17.3404 
        1.00019         16.6901         8.52363          17.168 
        1.00632         16.5546         8.40098          17.016 
        1.01246         16.3368         8.28056         16.8522 
        1.01859         16.1761         8.16271         16.7238 
        1.02471         16.0113         8.04731         16.5463 
        1.03085         15.8959         7.93375         16.3568 
        1.03698         15.7725         7.82263         16.1968 
        1.04314         15.5704         7.71317         16.0248 
        1.04929         15.3392         7.60607         15.9255 
        1.05541         15.2877         7.50143         15.8266 
        1.06154         15.1462         7.39851         15.6125 
        1.06769         14.9192         7.29737         15.4427 
        1.07382         14.8048         7.19845          15.334 
        1.07993          14.685         7.10159         15.1819 
        1.08607         14.5341         7.00612         15.0636 
        1.09222         14.4022         6.91232         14.9603 
        1.09836          14.239         6.82034         14.8104 
        1.10449         14.1672         6.73015         14.6587 
        1.11063          14.028          6.6415         14.5275 
        1.11677         13.9477         6.55448         14.3869 
         1.1229         13.7806         6.46917         14.2887 
        1.12903         13.6287         6.38531         14.1658 
        1.13518         13.5744         6.30287         14.0294 
        1.14131          13.439         6.22194         13.9096 
        1.14745         13.2677         6.14248         13.8169 
        1.15359         13.1087         6.06439         13.6592 
        1.15973         13.0521         5.98763         13.5797 
        1.16584         12.9205         5.91255         13.4581 
        1.17197          12.775         5.83865         13.3863 
        1.17811         12.6953         5.76579         13.2091 
        1.18424         12.5531         5.69438         13.1193 
        1.19038         12.4985         5.62399         13.0567 
        1.19652         12.3356         5.55481         12.9037 
        1.20267         12.2959          5.4868         12.8284 
        1.20881         12.1445         5.41995         12.7218 
        1.21495         12.0853         5.35431          12.635 
        1.22108          11.997         5.28978          12.523 
         1.2272         11.8719         5.22647         12.4463 
        1.23334         11.8124         5.16405         12.3452 
        1.23949         11.6958          5.1025         12.2165 
        1.24562           11.56         5.04213         12.1399 
        1.25174          11.516         4.98283         12.0566 
        1.25789         11.4299          4.9243         11.9652 
        1.26402         11.3259         4.86682         11.8543 
        1.27014         11.2498         4.81039         11.7775 
        1.27628         11.1345         4.75469         11.6745 
        1.28244         11.1148         4.69977         11.6288 
        1.28858         10.9733         4.64579         11.5273 
        1.29471         10.8686         4.59278         11.4448 
        1.30084         10.7794         4.54065         11.3889 
        1.30697         10.7163         4.48924          11.279 
        1.31312          10.638         4.43856         11.1977 
        1.31925         10.5694         4.38883         11.1301 
        1.32537         10.4642          4.3399         11.0619 
        1.33151         10.3781         4.29155         10.9832 
        1.33765         10.3489         4.24397         10.8922 
        1.34378         10.2651          4.1972         10.8248 
        1.34992         10.1628         4.15111         10.7609 
        1.35606         10.0718          4.1056         10.6717 
         1.3622         10.0117         4.06087         10.6002 
        1.36833          9.9672         4.01691         10.5486 
        1.37445         9.88502         3.97362         10.4601 
        1.38059         9.79898         3.93084         10.3855 
        1.38675         9.75918         3.88858         10.3366 
        1.39288         9.65693         3.84712         10.2474 
        1.39901         9.57753         3.80627         10.1815 
        1.40515         9.53626         3.76593         10.1107 
         1.4113         9.46658         3.72619         10.0419 
        1.41742         9.40679         3.68718         9.99693 
        1.42355         9.32105         3.64865         9.93958 
         1.4297         9.26402         3.61056         9.84956 
        1.43585         9.19527         3.57302         9.80174 
        1.44198         9.16653         3.53617         9.74261 
        1.44809         9.08929          3.4999          9.6874 
        1.45423         9.01909         3.46401          9.6011 
        1.46036         8.96021         3.42869         9.54071 
        1.46649         8.89613         3.39385         9.50252 
        1.47263         8.83688         3.35946         9.45737 
        1.47877         8.76247         3.32557         9.38766 
        1.48491         8.72039         3.29209         9.31956 
        1.49104         8.66324         3.25914         9.26132 
        1.49718         8.62511         3.22662         9.21868 
        1.50333          8.5772          3.1945         9.16307 
        1.50947         8.49464         3.16287         9.11028 
         1.5156         8.45959         3.13172         9.05893 
        1.52172         8.39002         3.10099         8.99611 
        1.52787         8.37174         3.07061          8.9347 
          1.534         8.29767         3.04067         8.88485 
        1.54013         8.25266         3.01117         8.82804 
        1.54627         8.17892           2.982         8.76846 
        1.55241         8.10964         2.95321         8.72028 
        1.55855         8.08588         2.92485         8.68086 
        1.56467         8.03098         2.89693         8.63932 
         1.5708         7.99516          2.8693         8.58511 
        1.57695         7.94191         2.84199         8.52985 
        1.58308          7.8893          2.8151          8.4891 
        1.58922         7.83807         2.78853         8.44975 
        1.59535         7.79194         2.76232         8.39404 
         1.6015         7.72766         2.73641         8.34608 
        1.60764         7.68764         2.71085         8.29792 
        1.61376         7.64999         2.68568         8.24717 
        1.61989         7.58361         2.66081         8.22099 
        1.62604         7.55549         2.63621         8.17773 
        1.63218         7.50585         2.61192         8.13085 
        1.63831           7.459         2.58801         8.09516 
        1.64444         7.41494         2.56438         8.05026 
        1.65059         7.36849         2.54099         7.99687 
        1.65673          7.3291         2.51791         7.95407 
        1.66285         7.26972         2.49519         7.91621 
        1.66898         7.24443         2.47274          7.8692 
        1.67512         7.22546         2.45052         7.82045 
        1.68127         7.16153         2.42856         7.78759 
         1.6874         7.14311         2.40691         7.74907 
        1.69353         7.05783         2.38554         7.68604 
        1.69967         7.03136         2.36438          7.6558 
        1.70581         6.99825         2.34349         7.62393 
        1.71193          6.9502         2.32293         7.58521 
        1.71806         6.91162         2.30256         7.56625 
        1.72421         6.87701         2.28241         7.52255 
        1.73035         6.84538         2.26252         7.48227 
        1.73649         6.80646         2.24286         7.45304 
        1.74262         6.76567         2.22346         7.39668 
        1.74876         6.73344         2.20428         7.35524 
        1.75489         6.69359         2.18536         7.32498 
        1.76101         6.63624         2.16667         7.28875 
        1.76715         6.62802         2.14817         7.25547 
        1.77329         6.57871         2.12986         7.21429 
        1.77943         6.53787         2.11176         7.17236 
        1.78557         6.53307          2.0939         7.14065 
        1.79171         6.47524         2.07624         7.10674 
        1.79785         6.43248         2.05878          7.0723 
        1.80399           6.411         2.04153         7.04381 
        1.81012         6.36805         2.02449         7.01405 
        1.81625         6.33865         2.00766          6.9844 
        1.82239          6.2998           1.991         6.95436 
        1.82853          6.2614         1.97453         6.91939 
        1.83466         6.22295         1.95826         6.88744 
        1.84078         6.18804         1.94219         6.85578 
        1.84692         6.18177         1.92628         6.81493 
        1.85306         6.13907         1.91053         6.78082 
         1.8592          6.1115         1.89497         6.75544 
        1.86533         6.06592          1.8796         6.72487 
        1.87147         6.04243         1.86438         6.68793 
        1.87761         6.01778         1.84932         6.66033 
