# k  (h/Mpc)    Pcb(k)  (Mpc/h)^3    Pcb_linear(k) (Mpc/h)^3    Pcb_NL(k) (Mpc/h)^3   ShotnoiseSubtracted = false
     0.00783031         25653.7         25806.2         25555.4 
       0.013688         27944.4         28820.1         28579.5 
       0.019231         26157.2         26622.5         26399.5 
      0.0249154         22593.9         22417.8         22246.1 
      0.0312784         17492.5         17590.1         17484.4 
      0.0375637         13690.2         13849.7         13804.5 
      0.0433917           11558         11526.2         11475.9 
      0.0492413           10078         10104.4         10064.8 
      0.0555754         9246.17         9203.71          9172.1 
      0.0619321         8311.82         8553.11         8518.27 
       0.067871         7796.82         7898.89         7877.28 
      0.0738098         7104.95         7092.52         7009.61 
      0.0800417         6205.45         6128.79         6112.06 
      0.0862327         5281.46         5189.71         5291.78 
      0.0921407          4613.2         4433.99         4573.25 
      0.0982031         4127.73         3865.03         4091.26 
       0.104506         3671.16         3491.02          3765.4 
       0.110769         3466.61         3281.76         3483.45 
       0.116806         3353.98         3156.33         3313.26 
       0.122832         3187.15         3033.79         3171.58 
       0.129052         2974.39         2860.07         2978.31 
       0.135211         2843.22            2629         2759.12 
       0.141259         2555.83         2367.43         2551.86 
       0.147318         2321.09         2108.94         2357.32 
       0.153489         2131.68         1883.99         2118.72 
       0.159709         2028.05         1714.92         1985.11 
       0.165845         1865.91         1604.21         1909.61 
       0.171974         1820.26         1534.71         1813.91 
       0.178125         1767.22         1484.93         1768.32 
       0.184229         1632.52         1434.91         1684.77 
        0.19034         1602.83         1370.82         1602.24 
       0.196428         1542.36         1289.84         1516.46 
       0.202534         1431.04         1197.32         1441.92 
       0.208729         1391.64         1102.87         1344.64 
       0.214876          1309.7         1019.05         1300.17 
       0.220989          1240.4         951.636          1250.6 
       0.227147         1200.93         900.741         1207.14 
        0.23329         1152.06         863.489         1173.85 
       0.239377         1145.65         834.123         1127.85 
       0.245482         1088.25         806.214         1079.87 
       0.251667         1048.68         775.051         1050.81 
       0.257832         1024.79         739.499         1005.77 
       0.263955         973.141         700.843         966.997 
       0.270079         940.276         661.545         932.461 
        0.27624         899.581         624.504          896.87 
       0.282372         885.187         592.231         875.448 
        0.28843         864.894         565.631          854.93 
       0.294538         824.453         543.504         827.533 
       0.300721         807.503         524.378         803.176 
        0.30691           784.4         506.704         791.125 
       0.313033         751.941         489.185         762.507 
       0.319153         743.267         470.898         739.539 
       0.325316         729.909         451.703         721.614 
        0.33145         710.306         432.454         693.927 
       0.337538         684.927         414.025         678.089 
       0.343633          668.56         396.936         668.167 
       0.349808         653.303         381.436         655.377 
       0.355968          639.72         367.705         640.264 
       0.362074         616.358         355.509         627.559 
       0.368217         612.249         344.122         610.706 
       0.374374         602.816         333.128          596.48 
       0.380519         579.539          322.27         582.073 
       0.386598         573.945         311.504         575.337 
       0.392688         557.834         300.821         559.858 
        0.39888         546.964          290.24         547.816 
       0.405048         532.449         280.191         536.442 
       0.411186         532.286         270.854         525.522 
       0.417313         523.139         262.206         516.381 
       0.423458         510.851         254.144         506.925 
       0.429607         495.154         246.582         498.595 
       0.435692          487.97         239.439         484.599 
       0.441815         479.254         232.459         480.627 
       0.447964         470.683         225.617         473.861 
       0.454126         464.483         218.917         460.083 
       0.460267         457.694         212.409         457.152 
       0.466387         446.208         206.155         449.478 
        0.47254         442.896         200.153         441.322 
       0.478662         432.739         194.482         432.849 
       0.484765         426.143         189.108          426.68 
       0.490885         423.689         183.981         418.356 
       0.497035          412.26         179.054         413.359 
       0.503198         411.016         174.302          408.04 
       0.509342         403.071         169.707         400.592 
       0.515458         395.065          165.26         395.866 
       0.521598         392.413         160.931         390.717 
       0.527764         384.059         156.727          387.07 
       0.533884         378.737         152.701         381.673 
           0.54          375.56         148.827         375.286 
       0.546137         368.588         145.089         370.698 
       0.552299         366.014         141.484         365.256 
       0.558452         359.763         138.025         361.087 
       0.564573         358.628         134.705         357.751 
       0.570708         351.645         131.484         352.983 
       0.576825         346.009         128.368         346.822 
       0.582926         344.628         125.353         344.091 
       0.589034         337.631         122.426         339.236 
       0.595184         335.092         119.573           334.1 
       0.601379         329.141         116.794         330.167 
       0.607522          323.21          114.13         324.877 
       0.613639         321.948         111.563         324.361 
       0.619772         319.823          109.07         322.136 
       0.625918         313.604         106.651          316.48 
       0.632068         312.281         104.305          313.91 
       0.638161         308.023         102.051         310.888 
         0.6443         303.721         99.8475         306.849 
       0.650464         301.138         97.7014         301.502 
       0.656582         297.258         95.6335         299.635 
       0.662703         296.236         93.6246         296.852 
       0.668861         290.474         91.6617         295.362 
       0.675024         289.387         89.7536         292.367 
       0.681124         283.247         87.9193         287.804 
       0.687237         282.543          86.133          284.71 
       0.693381         278.228         84.3885         281.843 
       0.699536         277.651         82.6901         279.957 
       0.705665          273.48         81.0463         275.525 
       0.711789         270.792         79.4492         274.228 
       0.717957         268.895         77.8848         272.997 
        0.72409         265.317         76.3715         269.014 
       0.730186         265.508         74.9078         266.066 
       0.736317         260.792         73.4747         264.493 
       0.742472         258.963         72.0741         262.232 
       0.748622         257.472         70.7114         259.169 
        0.75476         254.303          69.387         259.254 
       0.760888         252.695         68.0988         255.581 
       0.767043         249.398         66.8383         252.844 
       0.773185          246.62         65.6125         251.116 
       0.779291         245.074         64.4245          248.46 
       0.785407         243.325         63.2644         246.467 
       0.791564         241.723         62.1257          244.47 
       0.797719         238.005         61.0158          242.45 
       0.803834         237.152         59.9402         241.039 
       0.809972         233.804         58.8868         238.824 
       0.816124         232.149         57.8566         236.441 
       0.822261         229.976         56.8539         235.498 
       0.828378         228.758         55.8781         233.187 
       0.834502         225.537         54.9245         231.438 
       0.840667         224.791         53.9871         229.284 
       0.846816         222.171         53.0743         227.775 
       0.852925         221.979         52.1885         226.176 
       0.859047          218.37         51.3211          224.08 
       0.865192         217.583         50.4706         221.999 
       0.871341         215.624          49.639         220.546 
       0.877463         214.111           48.83         219.385 
       0.883569         212.999         48.0411         219.028 
       0.889708         210.985         47.2656         216.016 
       0.895864         208.125         46.5054         214.971 
       0.902008         206.922         45.7636         212.721 
       0.908149         204.501         45.0384         211.144 
       0.914301         203.881         44.3278          209.41 
       0.920448          201.54         43.6333         208.448 
       0.926574         200.096         42.9561         206.871 
       0.932687         199.586         42.2948          205.04 
       0.938823         197.617         41.6452         204.667 
       0.944975         197.224         41.0077          202.76 
       0.951105         195.006          40.386         201.431 
       0.957225         193.263         39.7782         199.865 
       0.963368         192.978         39.1809         198.547 
       0.969511         190.423          38.596         197.322 
       0.975621         188.156         38.0262         196.008 
       0.981748         187.689         37.4664         195.141 
       0.987916         186.464         36.9145         193.502 
        0.99406         184.714         36.3758         192.234 
        1.00019         183.349          35.849         190.849 
        1.00632         182.413         35.3331         189.367 
        1.01246         181.048         34.8267         187.861 
        1.01859         179.309          34.331         187.027 
        1.02471         177.904         33.8456         185.861 
        1.03085         177.201          33.368         184.867 
        1.03698         175.864         32.9007         184.175 
        1.04314         174.918         32.4403          182.62 
        1.04929         173.425         31.9898         181.162 
        1.05541         173.264         31.5498          180.31 
        1.06154         171.415         31.1169         179.576 
        1.06769         170.227         30.6915          178.31 
        1.07382         168.164         30.2755         177.263 
        1.07993          167.89         29.8681          176.25 
        1.08607         166.901         29.4666         174.795 
        1.09222         165.336         29.0721         173.906 
        1.09836         164.159         28.6852         172.939 
        1.10449         163.444         28.3059         172.358 
        1.11063          162.22          27.933         170.881 
        1.11677         160.718          27.567         169.841 
         1.1229         160.437         27.2082          168.77 
        1.12903         158.452         26.8555         167.723 
        1.13518         157.542         26.5088         166.878 
        1.14131         156.718         26.1684           165.9 
        1.14745         155.647         25.8342         164.555 
        1.15359         154.531         25.5058         164.116 
        1.15973         153.842          25.183         163.024 
        1.16584         152.881         24.8672         162.537 
        1.17197         152.045         24.5564           161.5 
        1.17811          150.26         24.2499         160.325 
        1.18424         149.684         23.9496         159.374 
        1.19038         148.728         23.6535         159.003 
        1.19652         147.296         23.3626         157.493 
        1.20267         146.501         23.0766          157.14 
        1.20881         145.723         22.7954         156.077 
        1.21495         144.929         22.5193         155.143 
        1.22108         143.722         22.2479         154.253 
         1.2272         143.137         21.9816         153.675 
        1.23334         141.841         21.7191         152.852 
        1.23949         141.462         21.4603          151.88 
        1.24562         140.245         21.2063         150.676 
        1.25174         139.687         20.9569          149.95 
        1.25789         138.508         20.7108         149.044 
        1.26402           137.7          20.469         148.596 
        1.27014         136.956         20.2317          147.74 
        1.27628         136.361         19.9974         147.429 
        1.28244         135.121         19.7664         146.404 
        1.28858         134.246         19.5394         145.701 
        1.29471         133.259         19.3165         144.888 
        1.30084         132.715         19.0972         143.828 
        1.30697          131.88          18.881         143.077 
        1.31312         131.323         18.6678         142.264 
        1.31925         130.238         18.4587         141.755 
        1.32537         129.716         18.2529         141.001 
        1.33151         128.436         18.0495         140.303 
        1.33765         128.165         17.8494         139.651 
        1.34378         127.282         17.6527         138.891 
        1.34992         126.352         17.4588         138.145 
        1.35606         125.683         17.2675         137.241 
         1.3622         124.879         17.0793         136.877 
        1.36833         124.315         16.8944         136.044 
        1.37445          123.36         16.7124         135.167 
        1.38059         122.517         16.5324         134.565 
        1.38675         121.648         16.3547         133.777 
        1.39288         120.975         16.1803         133.281 
        1.39901         120.336         16.0085         132.601 
        1.40515         119.483         15.8389         131.838 
         1.4113         119.079         15.6717         131.184 
        1.41742         118.253         15.5077         130.596 
        1.42355         117.236         15.3456           129.8 
         1.4297         116.595         15.1854         129.267 
        1.43585         116.315         15.0275         128.783 
        1.44198         115.377         14.8725         128.228 
        1.44809         114.834           14.72         127.421 
        1.45423         114.137          14.569         126.692 
        1.46036         113.518         14.4205         126.098 
        1.46649         112.512         14.2739         125.592 
        1.47263         112.315         14.1293         125.007 
        1.47877          111.31         13.9868         124.166 
        1.48491         110.524          13.846         123.566 
        1.49104         109.971         13.7074         123.153 
        1.49718         109.166         13.5706         122.508 
        1.50333         108.503         13.4355         121.809 
        1.50947         107.978         13.3025         121.255 
         1.5156         107.313         13.1715         120.781 
        1.52172         106.714         13.0422         120.254 
        1.52787         106.073         12.9145         119.579 
          1.534         105.537         12.7886         119.028 
        1.54013          105.26         12.6645         118.591 
        1.54627         104.273         12.5418          118.05 
        1.55241         103.701         12.4207         117.408 
        1.55855         102.924         12.3014          116.77 
        1.56467         102.453          12.184         116.256 
         1.5708         102.106         12.0678         115.668 
        1.57695         101.404         11.9529         115.121 
        1.58308         100.501         11.8398         114.691 
        1.58922         100.056         11.7281         114.169 
        1.59535         99.4264         11.6179          113.65 
         1.6015          98.789         11.5089         113.121 
        1.60764         98.3438         11.4014         112.565 
        1.61376         97.8749         11.2955         112.073 
        1.61989         97.2703         11.1909         111.603 
        1.62604         96.8902         11.0874         110.874 
        1.63218         95.9288         10.9853         110.301 
        1.63831         95.6393         10.8847         110.004 
        1.64444         95.0038         10.7853         109.506 
        1.65059         94.2862         10.6869          108.97 
        1.65673         93.8795         10.5899         108.414 
        1.66285         93.6612         10.4943         107.967 
        1.66898         92.9743         10.3999         107.608 
        1.67512          92.004         10.3065         107.029 
        1.68127         91.8591         10.2141         106.549 
         1.6874         91.3759         10.1231         106.131 
        1.69353         90.6004         10.0332          105.57 
        1.69967         90.2747         9.94419         105.132 
        1.70581         89.5237         9.85631         104.669 
        1.71193         89.2983         9.76982         104.139 
        1.71806         88.5277         9.68419         103.695 
        1.72421         87.9971         9.59941          103.34 
        1.73035         87.7254         9.51575         102.899 
        1.73649         87.2163          9.4331         102.313 
        1.74262         86.4862          9.3515         101.732 
        1.74876         86.0064         9.27081         101.296 
        1.75489         85.7587         9.19124         100.953 
        1.76101         85.3314         9.11262         100.593 
        1.76715         84.7696         9.03482         100.158 
        1.77329         84.2771         8.95783         99.6794 
        1.77943         83.6023         8.88171         99.2442 
        1.78557         83.1339         8.80658         98.8614 
        1.79171         82.6874         8.73231         98.3783 
        1.79785         82.1987         8.65888         97.8739 
        1.80399         81.6579         8.58631         97.4938 
        1.81012         81.3323         8.51467         97.1543 
        1.81625         80.6163         8.44388         96.7046 
        1.82239         80.3967         8.37378         96.2088 
        1.82853         79.8926         8.30452         95.8269 
        1.83466         79.4229          8.2361         95.3864 
        1.84078         79.0732         8.16852         94.9364 
        1.84692          78.546          8.1016         94.6653 
        1.85306         78.0475         8.03533         94.1892 
         1.8592          77.665         7.96992         93.6528 
        1.86533         77.1517         7.90526         93.3857 
        1.87147         76.7448         7.84125         93.0378 
