# k  (h/Mpc)    Pcb(k)  (Mpc/h)^3    Pcb_linear(k) (Mpc/h)^3    Pcb_NL(k) (Mpc/h)^3   ShotnoiseSubtracted = false
     0.00783031         25042.9         25192.2         24948.4 
       0.013688         27284.8         28130.4         27897.3 
       0.019231         25536.8         25984.6           25769 
      0.0249154         22051.8         21880.3         21715.4 
      0.0312784         17076.5         17168.2         17068.2 
      0.0375637         13364.9         13517.5         13475.2 
      0.0433917         11281.9         11249.8         11202.5 
      0.0492413         9837.18         9862.02         9825.07 
      0.0555754         9025.52         8982.92         8953.19 
      0.0619321         8115.62         8347.92         8314.89 
       0.067871         7612.62          7709.4         7688.93 
      0.0738098         6934.89         6922.37         6843.44 
      0.0800417         6056.51         5981.76         5966.03 
      0.0862327         5153.55          5065.2         5163.06 
      0.0921407         4499.18         4327.61            4461 
      0.0982031         4024.36         3772.31          3988.9 
       0.104506          3579.1         3407.27          3669.9 
       0.110769         3379.52         3203.02         3395.75 
       0.116806         3270.47         3080.61         3230.46 
       0.122832         3107.32         2961.01         3092.69 
       0.129052         2901.22         2791.46         2904.31 
       0.135211         2771.56         2565.93         2690.34 
       0.141259         2491.14         2310.63         2486.93 
       0.147318         2260.76         2058.34         2296.27 
       0.153489         2075.49         1838.79         2063.27 
       0.159709         1973.51         1673.78         1932.21 
       0.165845         1815.17         1565.72         1858.19 
       0.171974         1771.49         1497.89         1764.81 
       0.178125         1719.43          1449.3         1720.45 
       0.184229         1589.15         1400.49         1639.49 
        0.19034         1559.57         1337.94         1559.15 
       0.196428         1500.43         1258.89          1475.1 
       0.202534         1391.01         1168.59         1402.19 
       0.208729         1352.69         1076.41          1307.4 
       0.214876         1272.92         994.597          1263.8 
       0.220989         1204.46         928.805         1215.05 
       0.227147         1166.33         879.131         1172.28 
        0.23329         1118.85         842.773         1139.88 
       0.239377         1112.39         814.112         1095.13 
       0.245482         1056.41         786.872         1048.38 
       0.251667         1017.85         756.457         1020.22 
       0.257832         994.809         721.757         976.266 
       0.263955         944.222         684.029         938.369 
       0.270079         911.824         645.674          904.69 
        0.27624         872.197         609.522         869.911 
       0.282372         857.811         578.022         848.694 
        0.28843         838.677          552.06         828.429 
       0.294538         799.006         530.465         801.944 
       0.300721         782.313         511.797         778.329 
        0.30691         760.286         494.547         766.362 
       0.313033         728.355         477.448         738.587 
       0.319153         719.733         459.601         716.307 
       0.325316         706.794         440.866         698.717 
        0.33145         687.783         422.079         671.802 
       0.337538         662.958         404.092         656.263 
       0.343633         646.938         387.413          646.69 
       0.349808         631.955         372.285         634.111 
       0.355968         618.903         358.883         619.538 
       0.362074          595.95          346.98         607.023 
       0.368217         592.061         335.866         590.426 
       0.374374         582.911         325.136         576.647 
       0.380519         560.138         314.538          562.54 
       0.386598         554.644          304.03         556.107 
       0.392688         539.044         293.604         540.793 
        0.39888         528.234         283.277         529.291 
       0.405048         514.234         273.469         518.358 
       0.411186         514.069         264.356         507.475 
       0.417313         505.283         255.915         498.515 
       0.423458         493.312         248.046         489.485 
       0.429607         477.965         240.666         481.269 
       0.435692         471.015         233.694         467.751 
       0.441815         462.574         226.882         463.807 
       0.447964         454.045         220.204         457.107 
       0.454126         448.185         213.665         443.801 
       0.460267         441.409         207.313         440.956 
       0.466387         430.387         201.209         433.482 
        0.47254          427.03         195.351         425.581 
       0.478662         417.278         189.816          417.32 
       0.484765         410.823         184.571         411.227 
       0.490885         408.361         179.567         403.274 
       0.497035         397.348         174.759         398.362 
       0.503198          396.17          170.12         393.158 
       0.509342         388.439         165.635         386.042 
       0.515458         380.644         161.295         381.459 
       0.521598         377.857          157.07         376.362 
       0.527764         369.972         152.967          372.82 
       0.533884         364.962         149.038         367.563 
           0.54         361.696         145.257           361.3 
       0.546137         354.831         141.608         356.846 
       0.552299         352.445         138.089         351.556 
       0.558452         346.348         134.713         347.493 
       0.564573         345.142         131.473         344.308 
       0.570708         338.396         128.329         339.784 
       0.576825         332.902         125.289         333.695 
       0.582926         331.609         122.345         331.013 
       0.589034         324.774         119.489          326.37 
       0.595184         322.408         116.704         321.332 
       0.601379         316.669         113.992         317.529 
       0.607522         310.786         111.392         312.468 
       0.613639         309.586         108.886         311.988 
       0.619772         307.645         106.454         309.797 
       0.625918          301.49         104.092         304.232 
       0.632068         300.163         101.802         301.661 
       0.638161         296.213         99.6024         298.863 
         0.6443         291.929          97.452          294.99 
       0.650464         289.448         95.3574         289.711 
       0.656582         285.677         93.3392          287.92 
       0.662703         284.753         91.3784         285.226 
       0.668861         279.055         89.4626         283.733 
       0.675024         278.009         87.6003         280.854 
       0.681124         272.251           85.81         276.388 
       0.687237         271.518         84.0665         273.432 
       0.693381         267.237         82.3639         270.662 
       0.699536         266.696         80.7062         268.818 
       0.705665         262.712         79.1019         264.567 
       0.711789         259.965         77.5431         263.351 
       0.717957         258.241         76.0162          262.12 
        0.72409         254.734         74.5392         258.324 
       0.730186         254.963         73.1107         255.473 
       0.736317         250.433          71.712         253.878 
       0.742472         248.665         70.3449         251.604 
       0.748622         247.083         69.0149         248.726 
        0.75476         244.283         67.7223         248.791 
       0.760888         242.525          66.465         245.179 
       0.767043         239.279         65.2347         242.639 
       0.773185         236.616         64.0383         240.955 
       0.779291         235.181         62.8789         238.363 
       0.785407         233.451         61.7466         236.448 
       0.791564         231.883         60.6353         234.467 
       0.797719         228.304          59.552         232.518 
       0.803834         227.567         58.5021         231.189 
       0.809972         224.315          57.474         229.068 
       0.816124         222.577         56.4685         226.767 
       0.822261          220.51         55.4899         225.838 
       0.828378         219.385         54.5375         223.594 
       0.834502         216.283         53.6068         221.887 
       0.840667         215.675         52.6919         219.782 
       0.846816         212.979          51.801         218.346 
       0.852925         212.774         50.9364         216.816 
       0.859047         209.405         50.0898         214.856 
       0.865192         208.632         49.2598          212.79 
       0.871341         206.754         48.4481         211.427 
       0.877463         205.241         47.6585         210.289 
       0.883569         204.194         46.8885         209.923 
       0.889708         202.334         46.1317         207.033 
       0.895864         199.501         45.3897         206.002 
       0.902008         198.317         44.6656         203.858 
       0.908149         196.044         43.9578         202.362 
       0.914301         195.377         43.2643         200.694 
       0.920448         193.266         42.5864         199.734 
       0.926574         191.798         41.9255         198.177 
       0.932687         191.362         41.2801         196.506 
       0.938823         189.441          40.646         196.088 
       0.944975         189.045         40.0239         194.232 
       0.951105         186.841          39.417         192.945 
       0.957225         185.222         38.8239         191.458 
       0.963368         184.957         38.2409         190.203 
       0.969511         182.491           37.67         188.993 
       0.975621          180.24         37.1139         187.766 
       0.981748         179.865         36.5676         186.881 
       0.987916         178.681         36.0289         185.331 
        0.99406         177.005         35.5031         184.089 
        1.00019         175.804         34.9889         182.743 
        1.00632         174.821         34.4854         181.345 
        1.01246         173.488         33.9911         179.863 
        1.01859         171.762         33.5073         179.077 
        1.02471         170.411         33.0336         177.987 
        1.03085         169.734         32.5675         177.019 
        1.03698         168.576         32.1113         176.352 
        1.04314         167.602          31.662         174.859 
        1.04929         166.185         31.2224          173.46 
        1.05541         166.027         30.7928          172.65 
        1.06154         164.254         30.3704         171.931 
        1.06769         163.132         29.9552         170.721 
        1.07382          161.11         29.5491         169.735 
        1.07993         160.826         29.1515         168.743 
        1.08607          159.98         28.7596         167.343 
        1.09222         158.385         28.3746           166.5 
        1.09836         157.295          27.997          165.55 
        1.10449         156.623         27.6268         164.985 
        1.11063         155.367         27.2629         163.592 
        1.11677         154.001         26.9057         162.567 
         1.1229         153.712         26.5555         161.553 
        1.12903         151.779         26.2112         160.564 
        1.13518         150.962         25.8728         159.775 
        1.14131         150.212         25.5406         158.778 
        1.14745         149.088         25.2144         157.533 
        1.15359         148.075         24.8939          157.08 
        1.15973         147.379         24.5788         156.061 
        1.16584         146.455         24.2706         155.541 
        1.17197         145.673         23.9672         154.569 
        1.17811         143.986         23.6681         153.449 
        1.18424         143.425          23.375         152.523 
        1.19038         142.521         23.0861         152.191 
        1.19652         141.096         22.8021         150.747 
        1.20267         140.383         22.5229         150.382 
        1.20881         139.583         22.2485         149.348 
        1.21495         138.897         21.9791         148.485 
        1.22108         137.709         21.7142          147.61 
         1.2272         137.219         21.4543         147.034 
        1.23334         135.929          21.198         146.285 
        1.23949         135.523         20.9454         145.348 
        1.24562         134.396         20.6976         144.182 
        1.25174         133.874         20.4541         143.471 
        1.25789         132.739         20.2139         142.611 
        1.26402         131.958         19.9779         142.198 
        1.27014          131.26         19.7463         141.379 
        1.27628         130.725         19.5177         141.082 
        1.28244         129.489         19.2922         140.095 
        1.28858         128.655         19.0706          139.41 
        1.29471         127.687          18.853         138.619 
        1.30084         127.191          18.639         137.617 
        1.30697         126.392          18.428         136.893 
        1.31312         125.841           18.22         136.099 
        1.31925         124.752         18.0158          135.64 
        1.32537         124.281          17.815         134.926 
        1.33151         123.041         17.6165         134.235 
        1.33765         122.821         17.4212         133.624 
        1.34378         121.988         17.2292         132.911 
        1.34992         121.067           17.04         132.183 
        1.35606         120.454         16.8532         131.317 
         1.3622         119.706         16.6696         130.949 
        1.36833         119.125         16.4891         130.147 
        1.37445         118.186         16.3114         129.322 
        1.38059         117.436         16.1358          128.71 
        1.38675         116.631         15.9623         127.983 
        1.39288         115.946         15.7921         127.475 
        1.39901         115.281         15.6245         126.849 
        1.40515         114.536         15.4589         126.147 
         1.4113         114.121         15.2958         125.533 
        1.41742         113.395         15.1356          124.96 
        1.42355         112.379         14.9774         124.164 
         1.4297         111.768         14.8211         123.688 
        1.43585         111.527          14.667           123.2 
        1.44198         110.619         14.5157         122.691 
        1.44809         110.046         14.3668         121.921 
        1.45423          109.43         14.2195         121.193 
        1.46036           108.8         14.0745         120.634 
        1.46649         107.835         13.9315         120.169 
        1.47263         107.659         13.7903         119.612 
        1.47877         106.734         13.6512         118.809 
        1.48491         105.942         13.5138         118.227 
        1.49104         105.425         13.3785         117.842 
        1.49718          104.68          13.245         117.197 
        1.50333         104.013         13.1132         116.541 
        1.50947          103.58         12.9833         116.027 
         1.5156         102.902         12.8555         115.557 
        1.52172         102.304         12.7293         115.033 
        1.52787         101.737         12.6046          114.41 
          1.534         101.207         12.4817         113.889 
        1.54013         100.904         12.3606         113.458 
        1.54627         99.9931         12.2409         112.938 
        1.55241          99.446         12.1227         112.323 
        1.55855         98.6869         12.0063         111.716 
        1.56467         98.2456         11.8917         111.241 
         1.5708         97.8853         11.7783         110.679 
        1.57695         97.2506         11.6661         110.149 
        1.58308         96.3511         11.5558         109.742 
        1.58922         95.9539         11.4467          109.24 
        1.59535         95.3866         11.3391         108.756 
         1.6015         94.7419         11.2328         108.233 
        1.60764         94.3359         11.1278         107.699 
        1.61376          93.907         11.0245         107.261 
        1.61989         93.2988         10.9224         106.791 
        1.62604         92.9463         10.8214         106.075 
        1.63218          92.036         10.7218         105.532 
        1.63831         91.7888         10.6236         105.265 
        1.64444         91.0886         10.5266         104.793 
        1.65059         90.4657         10.4306         104.275 
        1.65673         90.0765         10.3358         103.745 
        1.66285         89.8863         10.2426         103.315 
        1.66898         89.2053         10.1504         102.959 
        1.67512         88.2614         10.0592         102.408 
        1.68127         88.1424         9.96905         101.967 
         1.6874         87.7196          9.8802         101.571 
        1.69353         86.9467         9.79248         101.008 
        1.69967         86.6306         9.70561         100.596 
        1.70581         85.9369         9.61984         100.164 
        1.71193         85.7019         9.53543         99.6544 
        1.71806         84.9128         9.45185         99.2242 
        1.72421         84.4512         9.36911         98.8916 
        1.73035         84.1688         9.28745         98.4732 
        1.73649         83.6852         9.20678         97.9111 
        1.74262         82.9908         9.12714         97.3654 
        1.74876         82.5544         9.04839         96.9518 
        1.75489         82.3389         8.97072         96.6153 
        1.76101         81.8902           8.894         96.2662 
        1.76715         81.3397         8.81806         95.8642 
        1.77329         80.8776         8.74292         95.4017 
        1.77943         80.2612         8.66863         94.9704 
        1.78557         79.8227          8.5953         94.6071 
        1.79171         79.3942         8.52281         94.1545 
        1.79785          78.923         8.45114         93.6734 
        1.80399         78.3941         8.38032         93.3007 
        1.81012         78.0753         8.31039         92.9802 
        1.81625         77.3951          8.2413         92.5528 
        1.82239         77.1966         8.17288         92.0716 
        1.82853         76.6945         8.10528          91.706 
        1.83466         76.2348          8.0385         91.2844 
        1.84078         75.9157         7.97255         90.8563 
        1.84692         75.4406         7.90723         90.6085 
        1.85306         74.9792         7.84256         90.1423 
         1.8592         74.6272         7.77871         89.6177 
        1.86533         74.1176         7.71561         89.3813 
        1.87147         73.7056         7.65313         89.0581 
