# k  (h/Mpc)    Pcb(k)  (Mpc/h)^3    Pcb_linear(k) (Mpc/h)^3    Pcb_NL(k) (Mpc/h)^3   ShotnoiseSubtracted = false
     0.00783031         2426.99         2447.09         2425.34 
       0.013688         2692.27         2727.38         2710.46 
       0.019231         2504.95          2518.6         2504.99 
      0.0249154         2128.39         2120.65         2113.95 
      0.0312784         1667.14         1663.93         1665.11 
      0.0375637         1309.28         1310.12         1312.36 
      0.0433917         1095.19         1090.33         1092.56 
      0.0492413         956.854         955.841         957.924 
      0.0555754         874.842         870.643         871.201 
      0.0619321         802.485         809.104         808.824 
       0.067871         746.432          747.22         746.456 
      0.0738098         671.662         670.941          669.69 
      0.0800417         582.795         579.777         579.648 
      0.0862327         493.016         490.942         492.503 
      0.0921407         421.681         419.453         421.686 
      0.0982031         370.333         365.631         368.875 
       0.104506         331.387          330.25         333.871 
       0.110769         311.901         310.454         312.949 
       0.116806         301.651         298.589         300.281 
       0.122832         287.786         286.998         288.389 
       0.129052           272.2         270.564         271.606 
       0.135211         251.796         248.705         250.026 
       0.141259         226.069          223.96         225.935 
       0.147318         200.968         199.507          202.53 
       0.153489         180.665         178.227         180.974 
       0.159709         165.716         162.233         165.371 
       0.165845         153.207          151.76         155.429 
       0.171974         148.793         145.185         148.264 
       0.178125         143.409         140.476          143.62 
       0.184229          137.37         135.744         138.527 
        0.19034         132.304         129.682         132.158 
       0.196428         124.668          122.02         124.163 
       0.202534         114.423         113.268         115.707 
       0.208729          107.27         104.333         106.992 
       0.214876         100.087          96.403         99.7575 
       0.220989         92.4168          90.026         93.5545 
       0.227147         88.7457         85.2113         88.6232 
        0.23329          85.139         81.6872         85.2017 
       0.239377         82.5516         78.9092         82.2447 
       0.245482         79.3125          76.269         79.1086 
       0.251667         75.7537         73.3209         76.3087 
       0.257832         73.3955         69.9576         72.7921 
       0.263955         68.9282         66.3008         69.0779 
       0.270079         65.1765         62.5831          65.437 
        0.27624         61.5215          59.079         61.9027 
       0.282372         58.6573         56.0259         59.0877 
        0.28843         56.9545         53.5095         56.5994 
       0.294538         54.4894         51.4163         54.4409 
       0.300721         52.1587         49.6069         52.6495 
        0.30691          50.935          47.935         50.9388 
       0.313033         48.9115         46.2776         49.0902 
       0.319153         47.7053         44.5477         47.3456 
       0.325316         45.3111         42.7319         45.5989 
        0.33145         43.4164         40.9109         43.6802 
       0.337538         41.7353         39.1675         41.8974 
       0.343633         40.2756         37.5508         40.3186 
       0.349808         38.6731         36.0845         38.9605 
       0.355968         37.3037         34.7855         37.8118 
       0.362074         36.4559         33.6317         36.4966 
       0.368217          35.264         32.5545         35.2061 
       0.374374         34.3371         31.5145         34.2021 
       0.380519          32.917         30.4873         33.0662 
       0.386598         31.7961         29.4688         32.0675 
       0.392688         30.6541         28.4581         31.0672 
        0.39888         29.9193         27.4572         30.0562 
       0.405048          29.028         26.5065         29.0195 
       0.411186         28.0665         25.6233         28.2683 
       0.417313         27.1742         24.8051         27.3596 
       0.423458         26.2968         24.0424         26.6111 
       0.429607         25.7663         23.3271         25.8175 
       0.435692         25.2125         22.6513         25.1378 
       0.441815         24.2378         21.9911         24.5278 
       0.447964         23.3554         21.3438         23.7762 
       0.454126         22.9206         20.7099          23.094 
       0.460267          22.507         20.0943         22.5624 
       0.466387         21.7988         19.5026         21.8695 
        0.47254         21.3578         18.9348         21.3295 
       0.478662         20.6246         18.3983         20.7584 
       0.484765         20.1092         17.8899         20.1839 
       0.490885         19.4777         17.4049         19.7914 
       0.497035         19.0413         16.9389         19.3489 
       0.503198         18.6482         16.4893         18.7699 
       0.509342         18.0448         16.0546         18.3497 
       0.515458         17.7157         15.6339         17.9887 
       0.521598         17.2848         15.2243         17.4367 
       0.527764         16.9623         14.8266         16.9817 
       0.533884         16.4689         14.4458         16.5936 
           0.54         16.1219         14.0793         16.2204 
       0.546137         15.6003         13.7256         15.8989 
       0.552299         15.2867         13.3846         15.4462 
       0.558452         14.9022         13.0574         15.1161 
       0.564573           14.66         12.7433         14.8655 
       0.570708         14.2962         12.4386         14.5296 
       0.576825         14.0379         12.1439         14.2001 
       0.582926          13.718         11.8586         13.9095 
       0.589034         13.4111         11.5817         13.6729 
       0.595184          13.209         11.3118         13.2793 
       0.601379         12.8241         11.0489         13.1025 
       0.607522         12.5575         10.7969         12.7773 
       0.613639         12.3043          10.554         12.5155 
       0.619772          12.058         10.3183         12.3072 
       0.625918         11.7934         10.0894         12.0424 
       0.632068          11.635         9.86743         11.7767 
       0.638161         11.3582         9.65419         11.5542 
         0.6443         11.1417         9.44575         11.3067 
       0.650464          10.854         9.24273         11.1433 
       0.656582         10.7354         9.04711         10.9228 
       0.662703         10.5492         8.85706         10.6935 
       0.668861         10.2595         8.67137         10.5426 
       0.675024         10.0695         8.49086         10.2957 
       0.681124         10.0192         8.31732         10.1067 
       0.687237         9.77705         8.14833         9.90172 
       0.693381         9.52673         7.98331         9.71245 
       0.699536         9.43859         7.82263         9.56169 
       0.705665         9.22567         7.66713           9.439 
       0.711789         9.04059         7.51604         9.22803 
       0.717957         8.82974         7.36804         9.06095 
        0.72409         8.73445         7.22488         8.92942 
       0.730186         8.65646         7.08642         8.75676 
       0.736317         8.43675         6.95085         8.59764 
       0.742472         8.32866         6.81834         8.49007 
       0.748622         8.16748         6.68943         8.33736 
        0.75476         7.94339         6.56414         8.19108 
       0.760888         7.88588         6.44227         8.07115 
       0.767043         7.70818         6.32302         7.94641 
       0.773185         7.59439         6.20706         7.81502 
       0.779291         7.52463         6.09468         7.70058 
       0.785407         7.37412         5.98493         7.56211 
       0.791564         7.26512         5.87721         7.44958 
       0.797719         7.10233         5.77221         7.32437 
       0.803834         7.04808         5.67045         7.20427 
       0.809972           6.895          5.5708         7.12221 
       0.816124         6.79906         5.47334         6.99159 
       0.822261         6.70124         5.37849          6.8824 
       0.828378         6.60333         5.28618         6.78219 
       0.834502          6.5046         5.19596         6.68506 
       0.840667         6.42399         5.10728         6.57856 
       0.846816         6.27292         5.02093         6.49049 
       0.852925         6.22096         4.93713         6.41208 
       0.859047         6.11362         4.85507         6.31886 
       0.865192         6.01835         4.77462         6.22142 
       0.871341         5.93028         4.69594         6.14247 
       0.877463         5.83554         4.61941         6.04627 
       0.883569         5.77727         4.54478         5.95763 
       0.889708         5.67193         4.47142         5.88119 
       0.895864         5.59011          4.3995         5.79258 
       0.902008         5.50875         4.32932         5.72204 
       0.908149         5.41866         4.26072          5.6338 
       0.914301         5.36034         4.19349         5.58345 
       0.920448         5.28807         4.12779         5.48223 
       0.926574         5.23517         4.06373         5.42046 
       0.932687         5.13731         4.00117         5.31451 
       0.938823         5.05168         3.93971         5.26834 
       0.944975         5.01786         3.87941         5.20223 
       0.951105         4.92181         3.82059         5.11723 
       0.957225         4.88645         3.76309          5.0712 
       0.963368         4.80113         3.70659         4.99492 
       0.969511         4.73793         3.65126         4.93779 
       0.975621         4.67355         3.59735         4.86612 
       0.981748          4.5996          3.5444         4.80417 
       0.987916         4.55256         3.49218         4.74564 
        0.99406          4.4968         3.44122         4.69369 
        1.00019         4.44711         3.39138         4.64415 
        1.00632         4.40063         3.34258         4.58027 
        1.01246          4.3322         3.29467         4.53881 
        1.01859         4.27486         3.24778         4.47061 
        1.02471         4.20773         3.20186         4.39631 
        1.03085         4.17719         3.15668         4.35325 
        1.03698         4.12357         3.11247         4.31072 
        1.04314         4.06544         3.06892         4.25381 
        1.04929         4.00457          3.0263         4.20755 
        1.05541         3.96006         2.98467         4.16476 
        1.06154         3.91729         2.94372         4.11194 
        1.06769         3.88729         2.90348          4.0667 
        1.07382         3.81291         2.86412         4.01871 
        1.07993         3.77156         2.82558         3.96826 
        1.08607         3.74143          2.7876         3.93135 
        1.09222         3.68439         2.75027         3.88381 
        1.09836         3.66481         2.71368         3.82747 
        1.10449         3.58964         2.67779         3.79229 
        1.11063         3.56901         2.64252         3.75044 
        1.11677         3.52777          2.6079         3.70931 
         1.1229         3.48875         2.57395         3.67378 
        1.12903          3.4503         2.54059         3.64091 
        1.13518         3.39907         2.50779         3.59471 
        1.14131         3.35979         2.47559         3.54862 
        1.14745         3.31274         2.44397         3.51061 
        1.15359         3.27351          2.4129         3.47946 
        1.15973         3.24002         2.38236         3.43845 
        1.16584         3.21286         2.35249         3.40853 
        1.17197         3.16735         2.32308         3.37154 
        1.17811          3.1327         2.29409         3.33168 
        1.18424         3.10078         2.26568         3.29525 
        1.19038         3.07601         2.23767         3.26247 
        1.19652         3.04276         2.21015         3.23235 
        1.20267         3.01257         2.18309          3.1964 
        1.20881         2.96912         2.15649         3.16692 
        1.21495         2.94367         2.13037         3.13813 
        1.22108         2.90794          2.1047         3.10552 
         1.2272         2.87314         2.07951         3.06686 
        1.23334         2.85917         2.05467         3.04303 
        1.23949          2.8169         2.03018         3.01859 
        1.24562         2.79131         2.00616         2.98634 
        1.25174         2.77338         1.98257         2.95271 
        1.25789         2.72239         1.95928         2.92087 
        1.26402         2.70433         1.93641          2.8926 
        1.27014         2.68162         1.91396         2.86961 
        1.27628         2.64611          1.8918          2.8396 
        1.28244           2.626         1.86995         2.81213 
        1.28858         2.60298         1.84847         2.78556 
        1.29471         2.56555         1.82738          2.7626 
        1.30084         2.53919         1.80663         2.74173 
        1.30697         2.52448         1.78618         2.70638 
        1.31312          2.4938         1.76602         2.68274 
        1.31925         2.46742         1.74623         2.66744 
        1.32537          2.4471         1.72676         2.64231 
        1.33151         2.41953         1.70752         2.61586 
        1.33765         2.39538         1.68859         2.58965 
        1.34378         2.38461         1.66998         2.56739 
        1.34992         2.35725         1.65164         2.54457 
        1.35606         2.33461         1.63354         2.51865 
         1.3622         2.30979         1.61574         2.49433 
        1.36833         2.28572         1.59825         2.48277 
        1.37445         2.26012         1.58102          2.4579 
        1.38059         2.23694           1.564         2.43157 
        1.38675         2.21774         1.54719          2.4098 
        1.39288         2.20554         1.53069          2.3963 
        1.39901         2.17486         1.51444         2.37347 
        1.40515         2.15927         1.49839         2.35165 
         1.4113         2.13963         1.48258         2.33255 
        1.41742         2.12079         1.46706         2.31177 
        1.42355         2.09819         1.45173         2.29132 
         1.4297         2.07943         1.43657         2.27398 
        1.43585         2.06563         1.42164         2.25789 
        1.44198         2.04052         1.40697         2.23466 
        1.44809         2.02616         1.39254         2.21776 
        1.45423         2.00593         1.37826         2.19826 
        1.46036         1.99177         1.36421         2.18013 
        1.46649         1.97133         1.35034         2.16418 
        1.47263         1.95817         1.33666         2.14661 
        1.47877         1.94084         1.32318         2.12506 
        1.48491         1.91995         1.30986         2.11209 
        1.49104         1.90514         1.29675          2.0926 
        1.49718         1.89083         1.28381         2.07609 
        1.50333         1.86992         1.27103         2.06038 
        1.50947         1.85248         1.25844          2.0431 
         1.5156         1.83982         1.24605         2.02907 
        1.52172         1.82183         1.23382         2.01634 
        1.52787         1.81001         1.22174         1.99199 
          1.534         1.79247         1.20982         1.97848 
        1.54013         1.78076         1.19808         1.96418 
        1.54627         1.76035         1.18648         1.94726 
        1.55241         1.74525         1.17502         1.93327 
        1.55855         1.73385         1.16374         1.91471 
        1.56467         1.72249         1.15263         1.90426 
         1.5708         1.70229         1.14164         1.89191 
        1.57695         1.68585         1.13077         1.87332 
        1.58308         1.67001         1.12007         1.85979 
        1.58922         1.66512          1.1095         1.84892 
        1.59535         1.64782         1.09907         1.83673 
         1.6015          1.6313         1.08877         1.82134 
        1.60764          1.6235         1.07859         1.80675 
        1.61376         1.60498         1.06858         1.79508 
        1.61989         1.58976         1.05869         1.78168 
        1.62604         1.57944         1.04889         1.76812 
        1.63218         1.56948         1.03923         1.75693 
        1.63831          1.5579         1.02972         1.74495 
        1.64444         1.54286         1.02031         1.72925 
        1.65059         1.53397         1.01101         1.71773 
        1.65673         1.51826         1.00183         1.70486 
        1.66285         1.50606        0.992787         1.69148 
        1.66898         1.49337        0.983855         1.68019 
        1.67512         1.48279        0.975016         1.66865 
        1.68127         1.47087        0.966277          1.6592 
         1.6874         1.46061        0.957664         1.65009 
        1.69353         1.44659        0.949161         1.63712 
        1.69967         1.43431        0.940742         1.62202 
        1.70581         1.42644        0.932428         1.61138 
        1.71193         1.41074        0.924246         1.60322 
        1.71806         1.40461        0.916145         1.59005 
        1.72421         1.39467        0.908125         1.57831 
        1.73035         1.38039        0.900211         1.56805 
        1.73649         1.37155        0.892392         1.55766 
        1.74262          1.3615        0.884672         1.54773 
        1.74876         1.35162        0.877039         1.53885 
        1.75489         1.33939        0.869511         1.52785 
        1.76101         1.32842        0.862074         1.51445 
        1.76715         1.32458        0.854714         1.50448 
        1.77329         1.31053        0.847431         1.49567 
        1.77943         1.29982        0.840229         1.48611 
        1.78557         1.29231        0.833122         1.47611 
        1.79171         1.28165        0.826096         1.46558 
        1.79785         1.27511         0.81915         1.45564 
        1.80399         1.26302        0.812284         1.44701 
        1.81012         1.25574        0.805507         1.43756 
        1.81625         1.24258         0.79881         1.42771 
        1.82239         1.23663        0.792179         1.41906 
        1.82853           1.228        0.785626          1.4117 
        1.83466         1.21534        0.779153         1.40358 
        1.84078         1.20638        0.772761          1.3941 
        1.84692         1.19779        0.766429         1.38408 
        1.85306         1.18952        0.760161          1.3732 
         1.8592         1.18197        0.753972         1.36444 
        1.86533         1.17453        0.747856         1.35862 
        1.87147         1.16831          0.7418         1.35006 
