# k  (h/Mpc)    P(k)  (Mpc/h)^3    P_linear(k)  (Mpc/h)^3     P_NL(k)  ShotnoiseSubtracted = false
     0.00783031         8955.03         9018.38         8937.27 
       0.013688         9850.77         10049.7         9981.54 
       0.019231         9187.92         9279.36         9221.57 
      0.0249154         7861.46          7812.6         7778.37 
      0.0312784         6129.51         6129.74          6122.9 
      0.0375637          4804.2         4826.17            4828 
      0.0433917         4035.63         4016.47         4017.81 
      0.0492413         3521.17         3520.98         3523.35 
      0.0555754         3228.28         3207.11         3206.46 
      0.0619321         2933.43          2980.4         2977.39 
       0.067871         2742.92         2752.43         2749.79 
      0.0738098         2477.79         2471.44          2461.3 
      0.0800417         2156.93         2135.62         2135.06 
      0.0862327         1826.16         1808.39         1824.78 
      0.0921407         1571.55         1545.05            1567 
      0.0982031          1390.6          1346.8         1380.94 
       0.104506         1238.49         1216.47         1256.95 
       0.110769         1167.63         1143.55         1172.21 
       0.116806         1133.23         1099.85         1121.65 
       0.122832         1076.19         1057.15         1076.65 
       0.129052         1016.13         996.614         1012.72 
       0.135211         951.015         916.097         934.867 
       0.141259         853.422         824.948         851.077 
       0.147318         761.513         734.877         772.138 
       0.153489         690.273         656.491         690.152 
       0.159709         642.773         597.578         636.146 
       0.165845         589.785         558.999         604.078 
       0.171974         578.314         534.783         573.938 
       0.178125          557.56         517.435         557.889 
       0.184229         526.382         500.007         535.924 
        0.19034         510.307         477.676         510.253 
       0.196428         485.397         449.454         479.008 
       0.202534         443.648         417.215         450.093 
       0.208729         425.121         384.304          418.16 
       0.214876         399.299         355.093         396.845 
       0.220989         369.067         331.605         375.664 
       0.227147         357.822         313.871         357.542 
        0.23329         343.537          300.89         345.765 
       0.239377         336.613         290.657          332.98 
       0.245482         320.354         280.932          318.45 
       0.251667         306.432         270.072         308.999 
       0.257832         300.375         257.683         294.672 
       0.263955         281.222         244.214         280.858 
       0.270079         267.343         230.521         268.294 
        0.27624          254.28         217.614         255.139 
       0.282372         245.402         206.368         245.613 
        0.28843         241.832         197.099         236.627 
       0.294538         229.418         189.389         228.765 
       0.300721         220.883         182.724          222.19 
        0.30691         216.805         176.565         215.906 
       0.313033         206.368          170.46         207.754 
       0.319153         202.232         164.088         200.897 
       0.325316          195.65           157.4         194.663 
        0.33145         188.984         150.692         186.668 
       0.337538         181.392         144.271         180.037 
       0.343633         175.129         138.316         175.702 
       0.349808          169.42         132.915         170.962 
       0.355968         165.212         128.129         166.645 
       0.362074         160.363          123.88         161.484 
       0.368217         157.241         119.912         155.867 
       0.374374          152.86         116.081          151.62 
       0.380519         146.372         112.298         147.063 
       0.386598         143.242         108.546         143.818 
       0.392688         138.432         104.824         139.501 
        0.39888         135.589         101.137          135.58 
       0.405048         131.894         97.6349         132.585 
       0.411186         129.748         94.3815         128.951 
       0.417313         126.367         91.3679         125.145 
       0.423458         123.065         88.5586         122.387 
       0.429607          119.68         85.9236         119.597 
       0.435692         117.612         83.4347         116.475 
       0.441815         114.334         81.0024         114.517 
       0.447964         110.467         78.6183         111.608 
       0.454126         108.433         76.2833           108.2 
       0.460267         107.187         74.0158         106.819 
       0.466387         104.149         71.8364         104.119 
        0.47254         102.815         69.7451         101.917 
       0.478662          99.218         67.7689         99.8085 
       0.484765         97.5123         65.8963         96.9623 
       0.490885         95.3352         64.1096         95.4618 
       0.497035         94.1767         62.3931         93.8436 
       0.503198         92.3317         60.7371         91.8116 
       0.509342         89.8455         59.1357         90.1817 
       0.515458         88.1568         57.5862         88.8257 
       0.521598         85.8494         56.0777         86.3808 
       0.527764           85.01         54.6128         84.5974 
       0.533884         84.0735         53.2101         83.2736 
           0.54         81.6601         51.8601         81.6485 
       0.546137         79.6249         50.5573         80.4762 
       0.552299         78.1331         49.3013         78.4829 
       0.558452         76.7515         48.0959         76.9453 
       0.564573         76.1809          46.939         76.0419 
       0.570708         73.9657         45.8168          74.778 
       0.576825         73.0516          44.731         73.2004 
       0.582926         72.1367         43.6803          71.941 
       0.589034         70.6704         42.6604         71.1567 
       0.595184         69.6101         41.6662         69.6713 
       0.601379         68.1192          40.698         68.7877 
       0.607522         66.5427         39.7695          67.227 
       0.613639         65.9567         38.8749         66.4754 
       0.619772         64.6558         38.0065         65.3381 
       0.625918         64.0739         37.1635         64.3987 
       0.632068         62.6182         36.3459         63.2897 
       0.638161         61.6679         35.5605         62.5117 
         0.6443         61.2001         34.7927          61.424 
       0.650464         59.6581         34.0449         60.1456 
       0.656582         59.3569         33.3243         59.6144 
       0.662703         58.3952         32.6243         58.5303 
       0.668861         57.1155         31.9403         57.8461 
       0.675024         56.8843         31.2754         56.8575 
       0.681124         55.9074         30.6362         56.0527 
       0.687237         54.9261         30.0138         55.2647 
       0.693381         54.1728         29.4059         54.3662 
       0.699536         53.5638         28.8141         53.8806 
       0.705665         52.7939         28.2413         53.3152 
       0.711789         51.8993         27.6848         52.2138 
       0.717957         51.1351         27.1396         51.6578 
        0.72409         50.5434         26.6123         51.1725 
       0.730186         50.1961         26.1023         50.5098 
       0.736317         49.3621         25.6029         49.6735 
       0.742472          48.485         25.1148         49.0875 
       0.748622         47.7331           24.64         48.4194 
        0.75476         47.4504         24.1785         47.7546 
       0.760888         47.0671         23.7296         47.0841 
       0.767043         46.0266         23.2904         46.7845 
       0.773185         45.3063         22.8632         46.2748 
       0.779291         44.8403         22.4493          45.663 
       0.785407         44.3252          22.045         44.9675 
       0.791564         44.0764         21.6483         44.4779 
       0.797719         43.1996         21.2615         44.1635 
       0.803834         42.9467         20.8867           43.46 
       0.809972         42.4794         20.5196         42.9499 
       0.816124         41.8377         20.1606          42.554 
       0.822261           41.21         19.8112         41.9884 
       0.828378         41.0816         19.4712         41.3998 
       0.834502         40.5195         19.1389         41.0625 
       0.840667         40.1073         18.8123         40.7551 
       0.846816         39.6428         18.4942         40.2764 
       0.852925         39.1241         18.1855         39.8205 
       0.859047         38.8988         17.8833         39.3361 
       0.865192         38.2887         17.5869         38.9723 
       0.871341         37.8781         17.2971         38.5293 
       0.877463         37.4458         17.0152         38.1439 
       0.883569         37.3314         16.7403          37.888 
       0.889708         36.8548         16.4701         37.4299 
       0.895864         36.5177         16.2052         37.0656 
       0.902008         36.0784         15.9467          36.609 
       0.908149         35.5979          15.694         36.3536 
       0.914301         35.3029         15.4464         36.0691 
       0.920448            35.2         15.2044         35.6326 
       0.926574         34.5011         14.9684          35.248 
       0.932687         34.2122          14.738          34.949 
       0.938823         33.8471         14.5116         34.5052 
       0.944975         33.4314         14.2895         34.2318 
       0.951105         33.1748         14.0728         33.9568 
       0.957225         32.9271         13.8611         33.6128 
       0.963368         32.6067         13.6529         33.2663 
       0.969511         32.2932         13.4491         32.9449 
       0.975621         31.9644         13.2506         32.7783 
       0.981748         31.6781         13.0555         32.4727 
       0.987916         31.3363         12.8632         32.2289 
        0.99406         31.1432         12.6755         31.8355 
        1.00019         30.7641         12.4919         31.5211 
        1.00632         30.5281         12.3121          31.268 
        1.01246         30.2596         12.1357         30.9783 
        1.01859         30.0219         11.9629         30.8364 
        1.02471         29.7164         11.7938         30.5964 
        1.03085         29.4484         11.6274         30.2402 
        1.03698         29.2701         11.4645         29.9634 
        1.04314         28.9892         11.3041         29.6783 
        1.04929         28.6002         11.1471         29.5047 
        1.05541         28.5403         10.9938          29.366 
        1.06154         28.2394          10.843         29.0603 
        1.06769         27.9211         10.6947            28.8 
        1.07382         27.6748         10.5498         28.5898 
        1.07993         27.5406         10.4078         28.3499 
        1.08607         27.2463         10.2679         28.1529 
        1.09222         27.0858         10.1304         27.9136 
        1.09836          26.848         9.99562         27.6898 
        1.10449         26.6637         9.86344         27.4881 
        1.11063         26.3905         9.73351          27.202 
        1.11677         26.3089         9.60598          26.974 
         1.1229         26.0077         9.48096         26.8558 
        1.12903          25.804         9.35806         26.6499 
        1.13518         25.6907         9.23724         26.4289 
        1.14131         25.4337         9.11863         26.2236 
        1.14745         25.2223         9.00217         26.0794 
        1.15359         24.9091         8.88773         25.8244 
        1.15973         24.8674         8.77523         25.6794 
        1.16584         24.6362         8.66519         25.4264 
        1.17197         24.3872         8.55689         25.3237 
        1.17811         24.2255         8.45011         25.0978 
        1.18424         23.9017         8.34546         24.9166 
        1.19038         23.7651         8.24229         24.7742 
        1.19652         23.6485         8.14091         24.5288 
        1.20267         23.4628         8.04123         24.4164 
        1.20881         23.2862         7.94326           24.26 
        1.21495         23.2279         7.84707          24.089 
        1.22108         23.1017         7.75249         23.9153 
         1.2272         22.8006          7.6597         23.7884 
        1.23334         22.7083         7.56822         23.5998 
        1.23949         22.5342         7.47802          23.385 
        1.24562         22.3622         7.38954         23.2538 
        1.25174         22.1978         7.30263          23.138 
        1.25789         22.0336         7.21685         22.9681 
        1.26402         21.9103         7.13261         22.7808 
        1.27014         21.7924         7.04992         22.6761 
        1.27628         21.5636         6.96829         22.5152 
        1.28244         21.5774          6.8878         22.3929 
        1.28858         21.2896         6.80868         22.2297 
        1.29471          21.099         6.73099         22.1249 
        1.30084         20.9552         6.65459         21.9668 
        1.30697         20.9034         6.57925         21.7801 
        1.31312         20.7273         6.50498         21.6686 
        1.31925         20.5641         6.43209         21.5344 
        1.32537         20.3995         6.36039         21.4291 
        1.33151         20.2437         6.28953         21.2794 
        1.33765         20.2196         6.21979         21.1376 
        1.34378         20.1034         6.15125         21.0405 
        1.34992         19.8846         6.08369         20.9104 
        1.35606         19.7037         6.01701         20.7818 
         1.3622         19.6443         5.95144         20.6634 
        1.36833         19.5828         5.88702         20.5716 
        1.37445         19.3827         5.82357         20.4342 
        1.38059         19.2432         5.76087         20.3217 
        1.38675          19.169         5.69895          20.206 
        1.39288         19.0322         5.63818         20.0831 
        1.39901         18.8714         5.57832         19.9503 
        1.40515         18.7785          5.5192         19.8319 
         1.4113         18.7189         5.46096         19.7122 
        1.41742          18.582         5.40378         19.5966 
        1.42355         18.3856         5.34732         19.5213 
         1.4297         18.3685         5.29149         19.3662 
        1.43585         18.2328         5.23648         19.2856 
        1.44198         18.1093         5.18247         19.1842 
        1.44809         17.9635         5.12931         19.0687 
        1.45423          17.901         5.07671         18.9343 
        1.46036         17.8249         5.02495         18.8381 
        1.46649         17.6681         4.97388          18.767 
        1.47263         17.5573         4.92349         18.6825 
        1.47877         17.4561         4.87382         18.5651 
        1.48491         17.3422         4.82475         18.4694 
        1.49104          17.235         4.77647         18.3641 
        1.49718         17.2128         4.72881         18.2749 
        1.50333         17.1106         4.68172         18.1639 
        1.50947         16.9111         4.63538         18.0701 
         1.5156         16.9107         4.58972         17.9926 
        1.52172         16.7774         4.54469         17.8969 
        1.52787         16.7355         4.50016         17.7872 
          1.534         16.5638         4.45629         17.6922 
        1.54013         16.5683         4.41305         17.5939 
        1.54627         16.4087          4.3703         17.4987 
        1.55241          16.328         4.32811         17.4168 
        1.55855         16.2183         4.28654         17.3351 
        1.56467         16.1018         4.24562         17.2639 
         1.5708         16.0721         4.20513         17.1688 
        1.57695         15.9811          4.1651         17.0701 
        1.58308         15.8446         4.12569         16.9959 
        1.58922         15.7723         4.08676         16.9124 
        1.59535         15.6959         4.04835         16.8178 
         1.6015         15.6455         4.01038         16.7313 
        1.60764         15.5129         3.97291         16.6449 
        1.61376         15.4261         3.93603         16.5656 
        1.61989         15.3252         3.89958          16.514 
        1.62604         15.2377         3.86352         16.4325 
        1.63218         15.1306         3.82793          16.355 
        1.63831         15.0865         3.79288         16.2958 
        1.64444         15.0282         3.75825         16.2069 
        1.65059         14.9221         3.72397         16.1151 
        1.65673         14.8603         3.69015         16.0419 
        1.66285         14.7842         3.65685         15.9836 
        1.66898         14.7036         3.62395         15.9134 
        1.67512          14.653         3.59139         15.8134 
        1.68127         14.5512          3.5592         15.7443 
         1.6874         14.4928         3.52748         15.6718 
        1.69353         14.3891         3.49616         15.5511 
        1.69967         14.3105         3.46514         15.5044 
        1.70581         14.2677         3.43452         15.4627 
        1.71193         14.1828         3.40438         15.3931 
        1.71806         14.1178         3.37454         15.3318 
        1.72421         14.0452           3.345         15.2535 
        1.73035         13.9727         3.31585         15.1955 
        1.73649         13.8596         3.28705          15.147 
        1.74262         13.8107         3.25862         15.0359 
        1.74876          13.787          3.2305         14.9469 
        1.75489         13.6584         3.20277         14.9033 
        1.76101         13.6155         3.17538         14.8662 
        1.76715         13.5186         3.14827         14.7881 
        1.77329         13.4532         3.12144         14.7027 
        1.77943         13.4169         3.09491         14.6312 
        1.78557         13.3766         3.06874         14.5691 
        1.79171         13.2846         3.04286         14.5169 
        1.79785         13.2013         3.01727         14.4658 
        1.80399         13.1132         2.99198         14.4055 
        1.81012         13.0946         2.96702         14.3395 
        1.81625         12.9941         2.94235         14.2777 
        1.82239         12.9403         2.91792         14.2229 
        1.82853         12.8825         2.89379         14.1694 
        1.83466          12.812         2.86995           14.11 
        1.84078         12.7492          2.8464         14.0403 
        1.84692         12.6923         2.82308         13.9657 
        1.85306         12.6344         2.79999         13.9223 
         1.8592          12.605         2.77719         13.8838 
        1.86533         12.5355         2.75466         13.8104 
        1.87147         12.4447         2.73236          13.742 
        1.87761         12.3898         2.71029         13.6922 
