# k  (h/Mpc)    P(k)  (Mpc/h)^3    P_linear(k)  (Mpc/h)^3     P_NL(k)  ShotnoiseSubtracted = false
     0.00783031         22157.6         22291.8         22079.4 
       0.013688         24164.4         24876.4         24676.8 
       0.019231         22604.6         22975.7         22793.2 
      0.0249154         19495.7         19345.7           19210 
      0.0312784         15111.3         15179.1         15102.4 
      0.0375637         11828.1         11951.2         11920.7 
      0.0433917         9978.55         9946.15         9911.75 
      0.0492413         8700.81         8719.18         8692.93 
      0.0555754         7983.76         7941.92         7919.91 
      0.0619321         7187.62          7380.5         7355.05 
       0.067871         6741.18         6815.96         6800.21 
      0.0738098         6132.69         6120.13         6057.97 
      0.0800417         5354.15         5288.53         5276.95 
      0.0862327         4551.69         4478.19         4557.98 
      0.0921407         3964.94         3826.08         3934.37 
      0.0982031         3541.28         3335.13          3510.5 
       0.104506         3149.12         3012.39         3224.75 
       0.110769         2972.95         2831.82         2986.56 
       0.116806         2879.65         2723.59         2843.59 
       0.122832         2734.44         2617.85         2723.69 
       0.129052         2558.09         2467.95         2558.13 
       0.135211            2437         2268.56         2368.77 
       0.141259         2189.52         2042.84         2184.65 
       0.147318          1981.1          1819.8         2012.86 
       0.153489         1815.71         1625.69         1806.54 
       0.159709         1722.15          1479.8         1688.07 
       0.165845         1582.07         1384.26         1621.21 
       0.171974          1546.6          1324.3         1538.98 
       0.178125         1499.46         1281.34         1500.17 
       0.184229         1389.08         1238.18         1430.93 
        0.19034         1360.65         1182.88         1360.78 
       0.196428         1307.73         1112.99          1285.3 
       0.202534         1208.28         1033.16         1220.15 
       0.208729         1174.61         951.661         1136.99 
       0.214876         1104.95         879.325         1097.45 
       0.220989         1041.36         821.162         1052.97 
       0.227147         1009.14         777.246         1013.77 
        0.23329         968.075         745.102          985.42 
       0.239377         961.339         719.761         946.521 
       0.245482         912.199         695.678         905.579 
       0.251667         878.239         668.786         881.342 
       0.257832         859.039         638.107         842.609 
       0.263955         813.587         604.753         808.912 
       0.270079         783.722         570.844         779.217 
        0.27624         749.096         538.883         748.254 
       0.282372         735.049         511.033         728.363 
        0.28843         720.578         488.079         709.538 
       0.294538         684.936         468.987         687.089 
       0.300721         669.502         452.483         666.912 
        0.30691         651.996         437.232         655.492 
       0.313033         623.012         422.114         631.539 
       0.319153         614.778         406.335         612.335 
       0.325316         603.566         389.772         596.495 
        0.33145         587.191         373.162         573.154 
       0.337538         565.152          357.26         559.076 
       0.343633         550.725         342.514         550.941 
       0.349808         537.193          329.14         539.504 
       0.355968         526.334         317.289         527.257 
       0.362074         505.828         306.767         515.727 
       0.368217         502.646         296.941         500.611 
       0.374374          494.56         287.454         488.775 
       0.380519         474.405         278.087         476.254 
       0.386598         469.357         268.794         470.936 
       0.392688         456.041         259.577         456.817 
        0.39888         445.909         250.446         447.452 
       0.405048          434.17         241.775         438.474 
       0.411186         433.905         233.719         428.071 
       0.417313         426.507         226.256         419.954 
       0.423458         416.067         219.299         412.613 
       0.429607         402.591         212.774         405.106 
       0.435692         396.604         206.611         393.741 
       0.441815         389.412         200.588         390.014 
       0.447964         381.286         194.684         383.778 
       0.454126         376.702         188.902         372.558 
       0.460267         370.361         183.287          370.04 
       0.466387         361.231          177.89         363.483 
        0.47254         357.849         172.711         356.739 
       0.478662         349.717         167.817         349.535 
       0.484765         344.032          163.18         343.799 
       0.490885         341.494         158.756          337.45 
       0.497035         332.467         154.505         333.011 
       0.503198         331.461         150.404          328.36 
       0.509342         324.691         146.439         322.673 
       0.515458          318.03         142.602         318.701 
       0.521598         314.638         138.866         313.864 
       0.527764         308.847         135.239         310.791 
       0.533884         305.041         131.765         306.238 
           0.54         301.577         128.422         300.638 
       0.546137         295.285         125.196         296.861 
       0.552299         293.476         122.086         292.243 
       0.558452         288.198         119.101         288.633 
       0.564573         286.897         116.236         286.049 
       0.570708         281.065         113.457         282.477 
       0.576825         276.302         110.768         276.904 
       0.582926         275.201         108.166         274.444 
       0.589034         269.319         105.641         270.767 
       0.595184         267.511         103.179         266.197 
       0.601379         262.825         100.781         263.012 
       0.607522         257.246          98.482         258.923 
       0.613639         256.303         96.2667         258.453 
       0.619772         254.947         94.1162           256.4 
       0.625918         249.485         92.0286         251.429 
       0.632068         247.933         90.0041         248.874 
       0.638161         245.275          88.059         246.987 
         0.6443          241.29         86.1578         243.782 
       0.650464          239.06          84.306         239.021 
       0.656582          235.87         82.5217          237.47 
       0.662703         235.201         80.7881         235.201 
       0.668861         230.019         79.0944         233.694 
       0.675024         229.127         77.4479         231.278 
       0.681124         225.018         75.8651         227.412 
       0.687237         224.083         74.3237          225.03 
       0.693381         220.064         72.8184         222.631 
       0.699536         219.653         71.3528         220.985 
       0.705665         216.466         69.9344         217.604 
       0.711789         213.638         68.5563         216.639 
       0.717957         212.467         67.2063         215.343 
        0.72409         209.372         65.9005         212.423 
       0.730186         209.789         64.6375         210.024 
       0.736317          206.15          63.401         208.356 
       0.742472         204.467         62.1923         206.189 
       0.748622         202.607         61.0165         204.034 
        0.75476          201.15         59.8737         203.877 
       0.760888         199.044          58.762         200.675 
       0.767043         196.052         57.6744         198.908 
       0.773185         193.887         56.6166         197.426 
       0.779291         192.858         55.5915         195.132 
       0.785407         191.251         54.5905         193.514 
       0.791564         189.846          53.608         191.738 
       0.797719         186.808         52.6502         190.192 
       0.803834         186.577         51.7221          189.08 
       0.809972         183.868         50.8131         187.334 
       0.816124         181.742         49.9241         185.461 
       0.822261         180.218         49.0589         184.533 
       0.828378         179.418         48.2169         182.608 
       0.834502         177.027         47.3941         181.069 
       0.840667         176.726         46.5852          179.31 
       0.846816         173.918         45.7975         178.178 
       0.852925         173.666         45.0331         176.905 
       0.859047         171.252         44.2847         175.474 
       0.865192         170.528         43.5508          173.57 
       0.871341         169.016         42.8332         172.465 
       0.877463         167.511         42.1351         171.501 
       0.883569         166.804         41.4544         171.025 
       0.889708         165.418         40.7853         168.721 
       0.895864         162.928         40.1293         167.768 
       0.902008         161.837         39.4891         166.078 
       0.908149         160.145         38.8634          164.88 
       0.914301         159.235         38.2502         163.497 
       0.920448           158.1         37.6509         162.565 
       0.926574         156.563         37.0666           161.2 
       0.932687         156.249          36.496         160.113 
       0.938823         154.692         35.9354         159.442 
       0.944975         154.286         35.3853          157.95 
       0.951105         152.262         34.8488         156.835 
       0.957225           151.1         34.3244         155.646 
       0.963368         150.819          33.809         154.629 
       0.969511         148.815         33.3043         153.471 
       0.975621         146.758         32.8126         152.649 
       0.981748         146.637         32.3296         151.762 
       0.987916          145.67         31.8533         150.551 
        0.99406         144.293         31.3885         149.447 
        1.00019         143.627         30.9339         148.304 
        1.00632         142.509         30.4887         147.237 
        1.01246         141.351         30.0517         145.922 
        1.01859         139.881          29.624         145.311 
        1.02471         138.829         29.2052         144.491 
        1.03085          138.21         28.7931         143.686 
        1.03698         137.456         28.3898         143.118 
        1.04314         136.559         27.9926          141.85 
        1.04929         135.522         27.6039         140.774 
        1.05541         135.249         27.2241         140.124 
        1.06154         133.756         26.8506         139.419 
        1.06769         132.898         26.4835         138.449 
        1.07382         131.322         26.1245         137.679 
        1.07993         130.924          25.773         136.822 
        1.08607         130.559         25.4266         135.702 
        1.09222         128.962         25.0861         135.031 
        1.09836         128.196         24.7523         134.148 
        1.10449         127.655          24.425           133.7 
        1.11063          126.35         24.1033         132.641 
        1.11677         125.602         23.7874         131.708 
         1.1229         125.049         23.4778         130.932 
        1.12903         123.513         23.1735         130.157 
        1.13518         122.954         22.8743         129.533 
        1.14131         122.497         22.5806         128.549 
        1.14745         121.287         22.2922         127.694 
        1.15359         120.623         22.0088         127.221 
        1.15973         119.951         21.7303         126.469 
        1.16584         119.159         21.4578         125.799 
        1.17197         118.556         21.1896          125.16 
        1.17811         117.365         20.9251         124.246 
        1.18424         116.771          20.666         123.426 
        1.19038         116.109         20.4105         123.201 
        1.19652          114.86         20.1595         122.105 
        1.20267         114.283         19.9126         121.661 
        1.20881         113.522           19.67         120.793 
        1.21495         113.204         19.4318         120.219 
        1.22108         112.146         19.1976         119.449 
         1.2272         111.976         18.9678         118.872 
        1.23334         110.775         18.7413         118.397 
        1.23949         110.237         18.5179         117.634 
        1.24562         109.384         18.2988          116.64 
        1.25174         109.133         18.0836         116.035 
        1.25789         108.206         17.8712         115.348 
        1.26402         107.476         17.6626         115.052 
        1.27014         106.913         17.4578         114.401 
        1.27628         106.528         17.2557         114.126 
        1.28244          105.47         17.0564           113.3 
        1.28858         104.912         16.8605         112.704 
        1.29471         104.064         16.6681         112.055 
        1.30084          103.64         16.4789         111.255 
        1.30697         102.911         16.2923         110.675 
        1.31312         102.515         16.1084         110.034 
        1.31925           101.4         15.9279         109.703 
        1.32537           101.1         15.7503         109.175 
        1.33151         100.201         15.5749         108.537 
        1.33765         100.004         15.4022         108.044 
        1.34378         99.3839         15.2324         107.512 
        1.34992          98.597         15.0651         106.858 
        1.35606         98.2084            14.9         106.218 
         1.3622         97.5781         14.7377          105.83 
        1.36833          96.981         14.5781         105.161 
        1.37445         96.2546          14.421          104.61 
        1.38059         95.7107         14.2657         103.933 
        1.38675         95.1896         14.1124         103.467 
        1.39288         94.5346         13.9619          102.91 
        1.39901         93.8556         13.8137         102.511 
        1.40515          93.453         13.6673         102.052 
         1.4113         92.9324         13.5231         101.571 
        1.41742         92.6147         13.3815         101.075 
        1.42355         91.7806         13.2416         100.372 
         1.4297         91.2329         13.1034         100.047 
        1.43585         90.9868         12.9672         99.5404 
        1.44198         90.3467         12.8334         99.2421 
        1.44809          89.685         12.7018         98.6147 
        1.45423         89.3463         12.5715         97.9329 
        1.46036         88.6464         12.4433         97.5084 
        1.46649         87.9985         12.3169         97.1964 
        1.47263         87.7456         12.1921         96.7625 
        1.47877         87.1811         12.0691         96.1009 
        1.48491         86.5234         11.9476         95.6088 
        1.49104         86.1159          11.828         95.3562 
        1.49718         85.5312           11.71         94.7289 
        1.50333         84.9192         11.5934         94.2264 
        1.50947         84.7778         11.4786           93.88 
         1.5156         84.0898         11.3656         93.4588 
        1.52172          83.482         11.2541         92.9562 
        1.52787         83.1942         11.1438         92.5233 
          1.534         82.7692         11.0352         92.1336 
        1.54013          82.294         10.9281         91.7563 
        1.54627         81.7459         10.8222         91.3299 
        1.55241         81.3466         10.7178          90.826 
        1.55855         80.6795         10.6148          90.333 
        1.56467         80.2868         10.5135         90.0158 
         1.5708         79.8346         10.4132         89.5612 
        1.57695         79.4611         10.3141          89.109 
        1.58308         78.7761         10.2165         88.8055 
        1.58922         78.4646         10.1201         88.3909 
        1.59535         78.1777          10.025         88.0164 
         1.6015         77.5147         9.93096         87.5502 
        1.60764         77.1757         9.83818         87.1158 
        1.61376         76.9827         9.74684         86.8469 
        1.61989         76.3634         9.65659         86.4292 
        1.62604          76.084         9.56728         85.7867 
        1.63218         75.3837         9.47916         85.3658 
        1.63831         75.1954         9.39235         85.2229 
        1.64444         74.5339          9.3066         84.8389 
        1.65059         74.1176         9.22171         84.4004 
        1.65673         73.8485         9.13797          83.969 
        1.66285         73.6257         9.05551         83.6156 
        1.66898         72.9661         8.97404         83.3057 
        1.67512         72.3464         8.89341         82.8764 
        1.68127         72.1779          8.8137         82.5763 
         1.6874         71.9573         8.73514         82.2641 
        1.69353         71.2514         8.65758         81.7253 
        1.69967         70.9617         8.58079          81.414 
        1.70581         70.5189         8.50495         81.1084 
        1.71193         70.2133         8.43032         80.7041 
        1.71806         69.5724         8.35643          80.358 
        1.72421         69.2539         8.28328          80.061 
        1.73035         68.9376         8.21109         79.7267 
        1.73649         68.5816         8.13977         79.3191 
        1.74262         68.0876         8.06936         78.8925 
        1.74876         67.7082         7.99973          78.561 
        1.75489         67.6264         7.93107         78.2772 
        1.76101         67.1718         7.86323         77.9727 
        1.76715         66.7364          7.7961         77.6561 
        1.77329         66.3503         7.72967         77.2709 
        1.77943         65.9162         7.66398         76.8991 
        1.78557         65.6368         7.59915         76.6106 
        1.79171         65.2102         7.53506         76.2676 
        1.79785         64.9105          7.4717         75.8929 
        1.80399         64.4344         7.40908         75.5789 
        1.81012         64.1057         7.34726         75.2962 
        1.81625          63.698         7.28618         74.9654 
        1.82239         63.4505         7.22569         74.6041 
        1.82853         63.0545         7.16592         74.2858 
        1.83466         62.7075         7.10689         73.9434 
        1.84078         62.3948         7.04857         73.6277 
        1.84692         62.0954         6.99082         73.4318 
        1.85306         61.8328         6.93365         73.0442 
         1.8592         61.5371          6.8772          72.622 
        1.86533         61.0486         6.82141         72.4442 
        1.87147         60.6983         6.76617         72.1825 
        1.87761         60.3764         6.71153         71.8232 
