# k  (h/Mpc)    P(k)  (Mpc/h)^3    P_linear(k)  (Mpc/h)^3     P_NL(k)  ShotnoiseSubtracted = false
     0.00783031         443.857         447.915         443.845 
       0.013688         495.028         499.448         496.384 
       0.019231          459.88         461.295         458.886 
      0.0249154         389.034         388.441          387.31 
      0.0312784          305.54         304.801         305.127 
      0.0375637         240.351         239.996         240.487 
      0.0433917         200.494         199.738         200.223 
      0.0492413         175.383         175.103         175.523 
      0.0555754         159.951         159.497         159.603 
      0.0619321         147.664         148.224         148.153 
       0.067871         136.777         136.888         136.709 
      0.0738098         122.898         122.915         122.732 
      0.0800417         106.429         106.214         106.157 
      0.0862327          90.106           89.94         90.0309 
      0.0921407         76.9767         76.8434         77.0093 
      0.0982031         67.3269         66.9835         67.2046 
       0.104506         60.5234         60.5017         60.7111 
       0.110769          56.896         56.8752         57.0099 
       0.116806         54.8275         54.7016         54.7499 
       0.122832         52.5104         52.5781         52.5839 
       0.129052         49.5941         49.5674         49.5458 
       0.135211         45.6779         45.5629         45.5594 
       0.141259         41.0724         41.0297         41.0725 
       0.147318         36.5453         36.5499         36.6553 
       0.153489         32.7302         32.6514         32.7632 
       0.159709         29.8473         29.7213          29.852 
       0.165845         27.7755         27.8025         27.9448 
       0.171974         26.7336         26.5981         26.7078 
       0.178125         25.8096         25.7353         25.8357 
       0.184229         24.8655         24.8685         24.9459 
        0.19034         23.8479         23.7579         23.8204 
       0.196428         22.4189         22.3542         22.4058 
       0.202534         20.7041         20.7508         20.8186 
       0.208729         19.1893         19.1139         19.1984 
       0.214876         17.8003         17.6611         17.7747 
       0.220989         16.5313         16.4929         16.6152 
       0.227147         15.7387         15.6109         15.7265 
        0.23329         15.0874         14.9653         15.0822 
       0.239377         14.5804         14.4563         14.5638 
       0.245482         14.0768         13.9726         14.0586 
       0.251667         13.4832         13.4325         13.5228 
       0.257832         12.9314         12.8163         12.9011 
       0.263955         12.2169         12.1464           12.23 
       0.270079         11.5329         11.4654         11.5531 
        0.27624         10.8688         10.8234         10.9118 
       0.282372         10.3179         10.2641         10.3637 
        0.28843         9.91012         9.80304         9.90399 
       0.294538         9.51373         9.41956         9.51623 
       0.300721         9.14013         9.08809         9.18476 
        0.30691         8.87073         8.78178         8.87625 
       0.313033          8.5541         8.47812         8.56489 
       0.319153         8.28728         8.16121         8.24773 
       0.325316         7.88308         7.82855         7.91798 
        0.33145         7.54892         7.49495         7.58139 
       0.337538         7.24166         7.17555         7.26101 
       0.343633         6.96696         6.87938         6.96438 
       0.349808         6.68199         6.61076         6.70095 
       0.355968         6.43361         6.37273         6.47106 
       0.362074         6.24818          6.1614         6.25159 
       0.368217         6.04158         5.96404         6.04482 
       0.374374         5.87257         5.77351         5.85748 
       0.380519         5.65588         5.58536         5.66416 
       0.386598         5.45656         5.39873         5.47904 
       0.392688         5.26023          5.2136          5.2938 
        0.39888         5.09652         5.03021          5.1122 
       0.405048         4.92734         4.85605         4.93156 
       0.411186         4.75879         4.69424         4.77671 
       0.417313         4.60922         4.54435         4.62484 
       0.423458         4.45268         4.40462         4.48498 
       0.429607         4.34431         4.27357         4.34983 
       0.435692         4.22458         4.14978         4.22699 
       0.441815         4.09075          4.0288         4.10858 
       0.447964         3.95238         3.91023         3.98539 
       0.454126          3.8557         3.79409         3.86848 
       0.460267         3.75424         3.68131         3.75885 
       0.466387         3.63989         3.57291         3.64562 
        0.47254          3.5433          3.4689         3.54225 
       0.478662         3.43641         3.37061         3.44174 
       0.484765         3.34521         3.27748         3.34765 
       0.490885         3.24491         3.18861         3.26433 
       0.497035         3.15065         3.10323         3.18004 
       0.503198         3.08224         3.02087          3.0902 
       0.509342         2.98719         2.94123         3.01126 
       0.515458         2.92046         2.86416         2.93709 
       0.521598         2.84784         2.78913         2.85558 
       0.527764         2.78412         2.71627         2.78241 
       0.533884         2.69378          2.6465         2.71155 
           0.54         2.63391         2.57936         2.64339 
       0.546137          2.5604         2.51456         2.58096 
       0.552299         2.50219         2.45209         2.51201 
       0.558452         2.44022         2.39214         2.45355 
       0.564573         2.38389          2.3346         2.40074 
       0.570708         2.32914         2.27878         2.34244 
       0.576825         2.27571         2.22478         2.28625 
       0.582926         2.21697         2.17252         2.23494 
       0.589034         2.17341          2.1218         2.18703 
       0.595184         2.12872         2.07235         2.12888 
       0.601379         2.07196         2.02419         2.08759 
       0.607522         2.02299         1.97801         2.03907 
       0.613639         1.97417         1.93352         1.99284 
       0.619772         1.93742         1.89033         1.95203 
       0.625918         1.89444          1.8484         1.90659 
       0.632068         1.85482         1.80773         1.86403 
       0.638161         1.81252         1.76867         1.82559 
         0.6443         1.77278         1.73048         1.78525 
       0.650464         1.73698         1.69329         1.75129 
       0.656582         1.70507         1.65745         1.71379 
       0.662703         1.66818         1.62263         1.67719 
       0.668861         1.62579         1.58861         1.64502 
       0.675024         1.59474         1.55554         1.61061 
       0.681124         1.57593         1.52375         1.57696 
       0.687237         1.53711         1.49279         1.54326 
       0.693381         1.49914         1.46256         1.51159 
       0.699536         1.47719         1.43312         1.48292 
       0.705665         1.44817         1.40463         1.45847 
       0.711789         1.41321         1.37696          1.4287 
       0.717957          1.3873         1.34984         1.39924 
        0.72409         1.36166         1.32361         1.37386 
       0.730186         1.34289         1.29825         1.34664 
       0.736317         1.30971         1.27341         1.32023 
       0.742472          1.2905         1.24914         1.29853 
       0.748622         1.26718         1.22552         1.27568 
        0.75476         1.23826         1.20257         1.24984 
       0.760888         1.22027         1.18024         1.22729 
       0.767043         1.18714         1.15839           1.206 
       0.773185         1.17086         1.13715         1.18528 
       0.779291         1.15706         1.11656           1.164 
       0.785407         1.13279         1.09645         1.14252 
       0.791564         1.11104         1.07672          1.1227 
       0.797719         1.09173         1.05748         1.10143 
       0.803834         1.07297         1.03884         1.08319 
       0.809972         1.05413         1.02058         1.06669 
       0.816124         1.03563         1.00273         1.04636 
       0.822261         1.01942        0.985351         1.02789 
       0.828378         1.00134        0.968439          1.0114 
       0.834502        0.983375        0.951912        0.993462 
       0.840667         0.96975        0.935665        0.977865 
       0.846816        0.951602        0.919845        0.963962 
       0.852925         0.93459        0.904493        0.946512 
       0.859047        0.919431         0.88946        0.933234 
       0.865192        0.904757        0.874721        0.916685 
       0.871341        0.892064        0.860307        0.901621 
       0.877463        0.874149        0.846286        0.886416 
       0.883569        0.861518        0.832613        0.873892 
       0.889708        0.849352        0.819174        0.860117 
       0.895864        0.835806        0.805998        0.845798 
       0.902008        0.819968        0.793141         0.83294 
       0.908149        0.809079        0.780573        0.819921 
       0.914301        0.797842        0.768257        0.807033 
       0.920448        0.786441         0.75622        0.794497 
       0.926574        0.775761        0.744485        0.783354 
       0.932687        0.763464        0.733024        0.769641 
       0.938823        0.748132        0.721764        0.760617 
       0.944975        0.739479        0.710716        0.747214 
       0.951105        0.724483         0.69994        0.736394 
       0.957225        0.715717        0.689407        0.726427 
       0.963368        0.706609        0.679056        0.715124 
       0.969511        0.697088        0.668918        0.705134 
       0.975621        0.684085        0.659042        0.693405 
       0.981748        0.671872        0.649342        0.683325 
       0.987916        0.663821        0.639776        0.675531 
        0.99406        0.656012         0.63044        0.666549 
        1.00019        0.646125        0.621309        0.656766 
        1.00632        0.638945        0.612368        0.646403 
        1.01246        0.629228        0.603591        0.637316 
        1.01859        0.620542           0.595        0.629461 
        1.02471        0.609712        0.586588        0.620459 
        1.03085          0.6006        0.578311        0.610774 
        1.03698        0.594147        0.570211        0.602299 
        1.04314        0.585232        0.562232        0.594327 
        1.04929        0.579378        0.554425        0.586592 
        1.05541        0.568712        0.546798        0.579376 
        1.06154        0.562467        0.539296        0.571519 
        1.06769        0.555506        0.531923        0.564063 
        1.07382        0.547352        0.524713        0.556255 
        1.07993        0.540181        0.517653        0.548795 
        1.08607        0.533548        0.510694        0.542456 
        1.09222         0.52562        0.503856         0.53428 
        1.09836        0.519862        0.497152        0.527845 
        1.10449        0.511248        0.490578        0.521296 
        1.11063        0.504668        0.484116        0.513671 
        1.11677        0.499331        0.477772        0.508002 
         1.1229        0.491154        0.471554        0.501462 
        1.12903        0.486298        0.465441        0.494985 
        1.13518        0.479597        0.459432        0.488614 
        1.14131        0.474003        0.453533        0.482699 
        1.14745        0.469516        0.447741        0.475705 
        1.15359         0.46212        0.442049        0.470922 
        1.15973        0.457019        0.436454        0.465255 
        1.16584        0.450889        0.430981        0.458698 
        1.17197        0.444412        0.425594        0.453859 
        1.17811        0.438859        0.420283        0.448552 
        1.18424        0.433854        0.415078        0.442386 
        1.19038        0.427736        0.409947        0.437112 
        1.19652        0.424092        0.404904        0.432448 
        1.20267        0.419527        0.399947        0.426329 
        1.20881        0.412219        0.395074        0.421729 
        1.21495        0.408315         0.39029        0.417808 
        1.22108        0.403806        0.385586        0.411862 
         1.2272        0.397888         0.38097        0.406775 
        1.23334        0.393724         0.37642        0.402416 
        1.23949         0.38971        0.371934        0.398098 
        1.24562        0.384909        0.367534        0.393462 
        1.25174        0.380934        0.363211         0.38864 
        1.25789        0.374945        0.358945        0.384314 
        1.26402        0.371651        0.354755         0.37998 
        1.27014        0.365961        0.350642        0.375368 
        1.27628        0.363047        0.346582         0.37086 
        1.28244         0.35858        0.342578        0.366937 
        1.28858        0.353889        0.338644        0.362541 
        1.29471        0.350208        0.334779        0.358721 
        1.30084        0.346338        0.330979        0.355512 
        1.30697        0.343632        0.327232        0.351304 
        1.31312        0.339262        0.323538        0.347187 
        1.31925        0.335268        0.319913        0.343812 
        1.32537        0.331698        0.316347        0.340135 
        1.33151         0.32787        0.312822        0.336424 
        1.33765        0.324188        0.309354         0.33277 
        1.34378        0.320335        0.305945        0.329129 
        1.34992        0.317878        0.302585        0.325652 
        1.35606        0.313616        0.299268        0.321806 
         1.3622        0.310572        0.296007        0.318561 
        1.36833         0.30767        0.292803        0.315574 
        1.37445        0.304227        0.289647        0.312328 
        1.38059        0.301055        0.286529        0.308878 
        1.38675        0.297408        0.283449        0.305328 
        1.39288        0.293907        0.280426          0.3022 
        1.39901        0.291312        0.277449        0.299208 
        1.40515        0.288127        0.274509        0.295997 
         1.4113        0.285986        0.271612        0.293335 
        1.41742        0.282651        0.268768        0.290874 
        1.42355        0.278486         0.26596        0.286711 
         1.4297        0.276767        0.263183        0.284852 
        1.43585         0.27332        0.260447        0.281495 
        1.44198        0.271069         0.25776        0.277994 
        1.44809        0.267964        0.255117        0.276254 
        1.45423        0.265179        0.252501        0.272643 
        1.46036        0.262571        0.249926         0.27022 
        1.46649         0.25997        0.247386        0.268051 
        1.47263         0.25657         0.24488        0.265151 
        1.47877        0.255757        0.242409        0.262639 
        1.48491        0.251547        0.239969        0.260366 
        1.49104        0.250525        0.237567        0.257028 
        1.49718        0.247021        0.235197        0.255393 
        1.50333        0.245036        0.232855        0.252263 
        1.50947        0.242706         0.23055        0.249655 
         1.5156        0.240252        0.228279        0.247798 
        1.52172        0.237958        0.226039        0.245134 
        1.52787         0.23503        0.223825        0.242719 
          1.534        0.233457        0.221643        0.240771 
        1.54013        0.231011        0.219492         0.23842 
        1.54627        0.229004        0.217366        0.235974 
        1.55241         0.22673        0.215267        0.233768 
        1.55855        0.224467          0.2132        0.231549 
        1.56467        0.222535        0.211165        0.229566 
         1.5708         0.22024        0.209151        0.227211 
        1.57695        0.218064         0.20716        0.224918 
        1.58308        0.215508          0.2052        0.223182 
        1.58922        0.214157        0.203264        0.221279 
        1.59535        0.211835        0.201353        0.219104 
         1.6015        0.210002        0.199464        0.216855 
        1.60764        0.207855        0.197601        0.215137 
        1.61376         0.20607        0.195766        0.213675 
        1.61989        0.204087        0.193954        0.211583 
        1.62604        0.202042         0.19216        0.209545 
        1.63218        0.200581         0.19039        0.207763 
        1.63831        0.198482        0.188646        0.205902 
        1.64444        0.197077        0.186924        0.203811 
        1.65059        0.194719        0.185219        0.202084 
        1.65673        0.193116        0.183537        0.200465 
        1.66285         0.19157        0.181881        0.198699 
        1.66898        0.189761        0.180245        0.196801 
        1.67512        0.187763        0.178625        0.195089 
        1.68127        0.186062        0.177024        0.193444 
         1.6874        0.184844        0.175446        0.191935 
        1.69353        0.182809        0.173889        0.190494 
        1.69967        0.181295        0.172346        0.188477 
        1.70581        0.180054        0.170823        0.186721 
        1.71193        0.178597        0.169324        0.185316 
        1.71806        0.176786         0.16784        0.183616 
        1.72421        0.175031        0.166371        0.182263 
        1.73035        0.173465        0.164921        0.180713 
        1.73649        0.172337        0.163488        0.178835 
        1.74262        0.170464        0.162074        0.177442 
        1.74876        0.169369        0.160676        0.176262 
        1.75489        0.167904        0.159297        0.174816 
        1.76101        0.166346        0.157934        0.173154 
        1.76715        0.164921        0.156586        0.171896 
        1.77329        0.163412        0.155251        0.170589 
        1.77943         0.16201        0.153932        0.169055 
        1.78557         0.16108         0.15263        0.167498 
        1.79171        0.159588        0.151343        0.165997 
        1.79785        0.158016         0.15007         0.16471 
        1.80399        0.156319        0.148812         0.16358 
        1.81012        0.155523        0.147571         0.16196 
        1.81625        0.154424        0.146344        0.160561 
        1.82239        0.153328        0.145129        0.159659 
        1.82853        0.151589        0.143929        0.158512 
        1.83466        0.150344        0.142743         0.15708 
        1.84078        0.149093        0.141572        0.155683 
        1.84692        0.148019        0.140412        0.154605 
        1.85306        0.146852        0.139263        0.153213 
         1.8592        0.145699         0.13813        0.151759 
        1.86533        0.144633        0.137009        0.150777 
        1.87147        0.143082          0.1359        0.149674 
        1.87761        0.141947        0.134802        0.148583 
