# k  (h/Mpc)    Pcb(k)  (Mpc/h)^3    Pcb_linear(k) (Mpc/h)^3    Pcb_NL(k) (Mpc/h)^3   ShotnoiseSubtracted = false
     0.00783031         27935.3         28099.1         27820.2 
       0.013688         30402.5         31393.9         31124.1 
       0.019231         28469.5         29002.7         28750.9 
      0.0249154         24615.7         24422.8         24224.7 
      0.0312784         19042.7         19163.7         19035.7 
      0.0375637         14902.7         15088.8         15032.1 
      0.0433917         12587.6         12557.5         12494.8 
      0.0492413           10976         11008.5         10958.5 
      0.0555754         10068.6         10027.2         9988.23 
      0.0619321         9042.67         9318.44         9276.52 
       0.067871         8482.71         8605.69         8579.58 
      0.0738098         7739.16         7727.16         7628.65 
      0.0800417          6760.9         6677.21         6656.62 
      0.0862327         5759.06         5654.09         5772.58 
      0.0921407         5039.82         4830.75         4992.94 
      0.0982031         4514.94         4210.89         4474.67 
       0.104506         4016.18          3803.4         4123.52 
       0.110769         3793.08         3575.42         3812.31 
       0.116806          3666.6         3438.77         3623.58 
       0.122832         3486.36         3305.27         3467.06 
       0.129052         3248.09            3116         3255.55 
       0.135211         3111.75         2864.25         3016.83 
       0.141259         2798.47         2579.27         2795.59 
       0.147318         2548.04         2297.66         2586.74 
       0.153489          2343.3         2052.57          2327.4 
       0.159709         2233.71         1868.38         2184.49 
       0.165845         2057.63         1747.76         2103.49 
       0.171974          2004.1         1672.05         1999.24 
       0.178125         1947.51         1617.81         1948.92 
       0.184229         1796.13         1563.31         1855.62 
        0.19034         1766.26         1493.49         1764.84 
       0.196428         1700.75         1405.25         1672.79 
       0.202534          1582.9         1304.46         1592.18 
       0.208729         1539.07         1201.56         1485.67 
       0.214876         1449.13         1110.23         1437.84 
       0.220989         1377.02         1036.79         1385.28 
       0.227147         1332.41         981.342         1339.42 
        0.23329         1278.28         940.757         1302.66 
       0.239377         1271.94         908.763         1252.15 
       0.245482         1209.38         878.357         1199.54 
       0.251667         1165.97         844.405         1167.01 
       0.257832         1138.88         805.671         1117.96 
       0.263955          1083.3         763.557         1075.98 
       0.270079         1048.82         720.742         1038.23 
        0.27624         1004.18         680.387          999.56 
       0.282372         989.838         645.225          977.52 
        0.28843         964.884         616.245         956.139 
       0.294538          921.79         592.139         925.259 
       0.300721         903.852         571.301         898.183 
        0.30691          876.53         552.046         885.826 
       0.313033         842.383         532.958         854.023 
       0.319153          833.55         513.036         828.399 
       0.325316          818.45         492.123          809.32 
        0.33145         796.585         471.152         778.751 
       0.337538         769.265         451.074         761.805 
       0.343633         751.544         432.455         750.475 
       0.349808         735.351         415.568         736.971 
       0.355968         719.619         400.608         719.775 
       0.362074           695.1         387.321         706.351 
       0.368217         689.963         374.915         688.691 
       0.374374         679.255         362.938         672.695 
       0.380519          654.28         351.108         657.314 
       0.386598         648.267         339.378         649.266 
       0.392688         630.216         327.739         633.401 
        0.39888         619.356         316.212         619.148 
       0.405048         602.844         305.263         606.121 
       0.411186         602.628         295.091         595.193 
       0.417313         591.911         285.669         585.343 
       0.423458         578.513         276.885         574.146 
       0.429607         561.689         268.647         565.469 
       0.435692         553.524         260.864         549.679 
       0.441815          543.78         253.261         545.636 
       0.447964         535.163         245.806         538.714 
       0.454126         527.532         238.506         523.138 
       0.460267         520.893         231.416         519.815 
       0.466387         507.561         224.602         511.379 
        0.47254         504.488         218.063         502.283 
       0.478662         492.653         211.885          493.07 
       0.484765         485.606          206.03         486.561 
       0.490885         483.103         200.444         476.825 
       0.497035         470.205         195.077         471.553 
       0.503198         468.636         189.899         465.786 
       0.509342         459.853         184.893         457.096 
       0.515458         451.223         180.048         451.804 
       0.521598         448.912         175.331         446.408 
       0.527764         438.917         170.751         442.373 
       0.533884         432.298         166.366         436.505 
           0.54         429.584         162.145         429.687 
       0.546137           422.2         158.072         424.643 
       0.552299         418.745         154.144         418.629 
       0.558452         411.993         150.375         414.036 
       0.564573         411.288         146.758         410.087 
       0.570708         403.295         143.249         404.317 
       0.576825         397.136         139.855         397.975 
       0.582926         395.279          136.57         395.033 
       0.589034         387.828         133.381          389.44 
       0.595184         384.512         130.273         383.935 
       0.601379         377.861         127.245         379.521 
       0.607522         371.744         124.343         373.348 
       0.613639         370.232         121.546         372.576 
       0.619772         367.246          118.83         370.188 
       0.625918         361.097         116.195         364.268 
       0.632068           359.6         113.638         361.683 
       0.638161         354.188         111.183          357.83 
         0.6443         349.954         108.782         353.087 
       0.650464         346.782         106.444         347.646 
       0.656582         342.549         104.191         345.365 
       0.662703         341.059         102.002         342.308 
       0.668861         335.157         99.8639         340.799 
       0.675024         333.857         97.7851         337.295 
       0.681124         326.394         95.7866         332.498 
       0.687237         325.688         93.8404         328.875 
       0.693381         321.276         91.9399         325.597 
       0.699536         320.516         90.0895         323.552 
       0.705665         315.638         88.2986         318.483 
       0.711789         313.224         86.5586         316.815 
       0.717957         310.525         84.8542          315.49 
        0.72409         306.736         83.2055         310.894 
       0.730186         306.878         81.6108         307.584 
       0.736317         301.544         80.0495         306.072 
       0.742472         299.304         78.5235         303.943 
       0.748622         298.198         77.0389          300.13 
        0.75476         293.452          75.596         300.165 
       0.760888         292.597         74.1925         296.346 
       0.767043         289.095         72.8192         292.841 
       0.773185         285.894         71.4837         290.939 
       0.779291         283.872         70.1894         288.024 
       0.785407         282.072         68.9255         285.731 
       0.791564         280.317          67.685         283.745 
       0.797719          276.02         66.4757         281.516 
       0.803834         274.773         65.3038         279.708 
       0.809972         271.179         64.1562         277.101 
       0.816124         269.655         63.0338         274.462 
       0.822261         267.159         61.9414         273.386 
       0.828378         265.578         60.8783         270.851 
       0.834502         262.108         59.8394         268.927 
       0.840667         260.589         58.8181         266.649 
       0.846816         258.334         57.8236         264.873 
       0.852925         258.228         56.8585         262.973 
       0.859047         253.688         55.9135         260.379 
       0.865192         252.851         54.9869         258.278 
       0.871341         250.598         54.0809         256.383 
       0.877463         249.028         53.1994          255.18 
       0.883569         247.759         52.3399         254.754 
       0.889708         244.986         51.4951         251.353 
       0.895864         242.205         50.6669         250.246 
       0.902008         240.921         49.8586         247.595 
       0.908149         237.991         49.0686         245.658 
       0.914301         237.397         48.2944          243.66 
       0.920448         234.247         47.5377          242.69 
       0.926574          232.93            46.8         241.104 
       0.932687         231.936         46.0795         238.632 
       0.938823         229.906         45.3717          238.34 
       0.944975         229.519         44.6772          236.35 
       0.951105         227.271         43.9998         234.854 
       0.957225         225.045         43.3377         232.938 
       0.963368         224.636          42.687         231.362 
       0.969511         221.744         42.0497         230.021 
       0.975621         219.557         41.4289         228.437 
       0.981748          218.62         40.8191          227.66 
       0.987916          217.25         40.2177         225.654 
        0.99406         215.235         39.6308         224.307 
        1.00019         213.158         39.0569         222.752 
        1.00632         212.413         38.4948         220.978 
        1.01246         210.893         37.9431         219.426 
        1.01859         209.259         37.4031         218.362 
        1.02471         207.695         36.8743         216.859 
        1.03085         206.851         36.3539         215.812 
        1.03698         204.611         35.8447         215.033 
        1.04314         203.823         35.3432         213.191 
        1.04929           202.2         34.8524         211.562 
        1.05541         201.852         34.3729         210.557 
        1.06154         199.651         33.9013         209.705 
        1.06769         198.285         33.4379         208.199 
        1.07382         196.237         32.9846         206.886 
        1.07993         195.925         32.5408         205.814 
        1.08607         194.326         32.1034         204.194 
        1.09222         192.961         31.6735         203.127 
        1.09836         191.398         31.2521         202.055 
        1.10449         190.485         30.8388         201.447 
        1.11063         189.389         30.4326         199.676 
        1.11677         187.537         30.0338         198.553 
         1.1229         187.048         29.6429         197.264 
        1.12903         184.981         29.2587          196.01 
        1.13518         183.669         28.8809         194.853 
        1.14131         182.522         28.5101         194.009 
        1.14745         181.667          28.146         192.305 
        1.15359         180.101         27.7882         191.883 
        1.15973         179.462         27.4364         190.524 
        1.16584         178.432         27.0924          190.08 
        1.17197         177.263         26.7538         188.855 
        1.17811         175.184         26.4199         187.474 
        1.18424         174.506         26.0927         186.371 
        1.19038          173.41         25.7701         185.845 
        1.19652         171.899         25.4532         184.127 
        1.20267         170.716         25.1415         183.769 
        1.20881         170.107         24.8352         182.601 
        1.21495         168.841         24.5344         181.423 
        1.22108         167.596         24.2387         180.493 
         1.2272         166.624         23.9486         179.876 
        1.23334         165.276         23.6626         178.775 
        1.23949         164.939         23.3806         177.675 
        1.24562         163.331          23.104         176.357 
        1.25174         162.684         22.8322          175.57 
        1.25789         161.437          22.564         174.446 
        1.26402         160.424         22.3006         173.855 
        1.27014         159.543         22.0421         172.872 
        1.27628         158.599         21.7869         172.468 
        1.28244         157.377         21.5352         171.307 
        1.28858         156.473         21.2879         170.538 
        1.29471         155.362          21.045         169.647 
        1.30084         154.594         20.8061         168.331 
        1.30697         153.501         20.5705         167.505 
        1.31312          153.13         20.3383         166.666 
        1.31925          151.84         20.1104         165.928 
        1.32537         151.257         19.8862         165.036 
        1.33151         149.868         19.6647         164.296 
        1.33765          149.36         19.4466         163.463 
        1.34378         148.263         19.2323         162.512 
        1.34992         147.344         19.0211         161.671 
        1.35606         146.423         18.8126         160.674 
         1.3622         145.319         18.6076           160.3 
        1.36833         144.837         18.4062         159.343 
        1.37445         143.919         18.2078         158.301 
        1.38059         142.593         18.0118         157.705 
        1.38675         141.523         17.8182         156.721 
        1.39288          140.94         17.6282         156.218 
        1.39901         140.352          17.441         155.368 
        1.40515         139.119         17.2562         154.391 
         1.4113         138.631         17.0741         153.531 
        1.41742         137.499         16.8953         152.846 
        1.42355          136.56         16.7188         152.142 
         1.4297         135.781         16.5442         151.348 
        1.43585         135.227         16.3722         150.861 
        1.44198         134.296         16.2034         150.145 
        1.44809         133.799         16.0372         149.192 
        1.45423         132.745         15.8727         148.447 
        1.46036         132.132         15.7109         147.716 
        1.46649         131.095         15.5512          147.07 
        1.47263         130.713         15.3937         146.388 
        1.47877         129.411         15.2384         145.359 
        1.48491         128.826         15.0849         144.715 
        1.49104         128.027          14.934         144.195 
        1.49718         126.927          14.785         143.533 
        1.50333         126.307         14.6378         142.633 
        1.50947         125.404         14.4928         141.942 
         1.5156         124.837         14.3501         141.475 
        1.52172         124.194         14.2093         140.912 
        1.52787         123.268         14.0701         140.054 
          1.534         122.791         13.9329         139.376 
        1.54013         122.415         13.7977         138.914 
        1.54627         121.252         13.6641         138.313 
        1.55241          120.66         13.5321         137.551 
        1.55855         119.774         13.4022         136.779 
        1.56467         119.189         13.2743          136.14 
         1.5708         118.817         13.1476         135.447 
        1.57695         117.899         13.0225         134.817 
        1.58308         117.064         12.8993         134.332 
        1.58922         116.338         12.7776         133.725 
        1.59535         115.569         12.6575         133.037 
         1.6015         114.911         12.5387         132.476 
        1.60764         114.305         12.4216         131.847 
        1.61376         113.693         12.3063         131.141 
        1.61989         113.023         12.1923         130.674 
        1.62604         112.612         12.0796         129.894 
        1.63218         111.466         11.9683         129.193 
        1.63831         110.963         11.8587         128.781 
        1.64444         110.641         11.7504         128.214 
        1.65059         109.593         11.6433         127.614 
        1.65673         109.056         11.5375         126.941 
        1.66285         108.674         11.4334         126.405 
        1.66898         107.875         11.3305         126.029 
        1.67512         106.969         11.2287         125.353 
        1.68127         106.631         11.1281          124.73 
         1.6874         105.908         11.0289         124.226 
        1.69353         105.147          10.931         123.666 
        1.69967         104.779          10.834         123.137 
        1.70581         103.855         10.7383          122.54 
        1.71193         103.553         10.6441         121.932 
        1.71806         102.934         10.5508         121.476 
        1.72421         102.135         10.4584         121.006 
        1.73035         101.799         10.3672         120.467 
        1.73649         101.255         10.2772         119.826 
        1.74262         100.448         10.1883         119.073 
        1.74876         99.7316         10.1004         118.551 
        1.75489         99.3541         10.0137           118.2 
        1.76101         98.9564         9.92805         117.785 
        1.76715         98.4115         9.84329         117.189 
        1.77329         97.8247         9.75941         116.651 
        1.77943         96.9758         9.67647         116.219 
        1.78557         96.3438         9.59463         115.747 
        1.79171         95.8262         9.51371         115.123 
        1.79785         95.2566         9.43371         114.539 
        1.80399         94.7151         9.35464         114.172 
        1.81012         94.2754         9.27659         113.722 
        1.81625         93.5404         9.19946         113.169 
        1.82239         93.1725          9.1231         112.654 
        1.82853         92.6519         9.04763         112.201 
        1.83466         92.1578         8.97309          111.69 
        1.84078         91.7514         8.89947         111.167 
        1.84692         90.9936         8.82655         110.769 
        1.85306         90.3735         8.75436          110.26 
         1.8592         89.8241         8.68309          109.71 
        1.86533         89.2751         8.61265         109.298 
        1.87147         88.9576         8.54291         108.813 
