# k  (h/Mpc)    P(k)  (Mpc/h)^3    P_linear(k)  (Mpc/h)^3     P_NL(k)  ShotnoiseSubtracted = false
     0.00783031           25927         26080.6           25826 
       0.013688         28236.2         29130.6         28885.6 
       0.019231         26433.3         26910.1         26682.6 
      0.0249154         22838.5         22660.2           22484 
      0.0312784         17678.2         17780.4         17670.5 
      0.0375637         13835.4         13999.6         13952.1 
      0.0433917         11682.1           11651         11598.2 
      0.0492413         10186.2         10213.8         10172.1 
      0.0555754          9345.1         9303.35         9270.29 
      0.0619321         8398.63         8645.71         8609.53 
       0.067871         7878.38         7984.42         7961.96 
      0.0738098         7181.49         7169.31         7083.51 
      0.0800417          6272.7         6195.15         6177.65 
      0.0862327         5339.86          5245.9         5350.84 
      0.0921407         4666.51            4482          4625.3 
      0.0982031         4176.78         3906.89         4139.77 
       0.104506         3714.92         3528.82         3811.32 
       0.110769         3508.09         3317.29         3525.31 
       0.116806         3393.35         3190.51         3352.47 
       0.122832         3225.05         3066.65         3208.74 
       0.129052         3008.42         2891.04         3013.13 
       0.135211         2877.46         2657.47          2791.6 
       0.141259         2586.89         2393.06          2583.2 
       0.147318         2350.89         2131.78         2387.34 
       0.153489         2159.83         1904.39         2146.28 
       0.159709         2055.91         1733.49         2011.89 
       0.165845         1892.12         1621.58         1935.89 
       0.171974         1845.08         1551.33         1839.13 
       0.178125         1791.75         1501.01          1792.9 
       0.184229         1654.43         1450.45         1707.88 
        0.19034         1625.03         1385.67         1624.24 
       0.196428         1564.01          1303.8         1537.86 
       0.202534         1452.29         1210.28         1462.67 
       0.208729         1412.29         1114.81         1364.19 
       0.214876         1329.28         1030.08         1319.43 
       0.220989         1260.05         961.941         1269.67 
       0.227147         1219.76         910.497         1226.11 
        0.23329         1170.13         872.841         1192.35 
       0.239377         1163.84         843.156         1145.74 
       0.245482         1105.79         814.944         1097.15 
       0.251667         1065.73         783.442         1067.57 
       0.257832         1041.31         747.503         1022.03 
       0.263955         989.278         708.432         982.906 
       0.270079          956.38         668.709         947.969 
        0.27624          915.16         631.269         912.027 
       0.282372         900.944         598.644         890.684 
        0.28843         879.748         571.755          870.18 
       0.294538         839.085         549.389         842.233 
       0.300721         822.093         530.056         817.467 
        0.30691         798.215         512.191         805.483 
       0.313033         765.676         494.481           776.4 
       0.319153         757.063         475.997         753.042 
       0.325316         743.446         456.594         735.025 
        0.33145         723.507         437.137         706.936 
       0.337538         697.919         418.509         691.004 
       0.343633         681.412         401.234         680.858 
       0.349808         666.088         385.567          668.03 
       0.355968         652.144         371.684          652.57 
       0.362074         628.713         359.359         639.841 
       0.368217          624.42         347.848         622.963 
       0.374374         614.807         336.735         608.469 
       0.380519          591.35         325.762          593.97 
       0.386598         585.724         314.876         587.001 
       0.392688         569.315         304.079         571.579 
        0.39888         558.545         293.383         559.143 
       0.405048         543.705         283.225         547.484 
       0.411186         543.539         273.787         536.675 
       0.417313         534.132         265.045         527.469 
       0.423458         521.697         256.896         517.704 
       0.429607         505.876         249.252         509.373 
       0.435692         498.543         242.032         495.089 
       0.441815          489.67         234.976          491.14 
       0.447964         481.174         228.061         484.406 
       0.454126         474.705         221.287         470.337 
       0.460267          468.01         214.709         467.353 
       0.466387         456.204         208.387         459.577 
        0.47254         452.985          202.32         451.277 
       0.478662         442.543         196.588         442.711 
       0.484765           435.9         191.156         436.537 
       0.490885         433.478         185.973         427.955 
       0.497035         421.797         180.993         422.943 
       0.503198         420.495          176.19         417.576 
       0.509342         412.438         171.544         409.898 
       0.515458         404.343         167.049         405.091 
       0.521598         401.841         162.673         399.949 
       0.527764         393.146         158.424         396.247 
       0.533884         387.574         154.355         390.786 
           0.54         384.536         150.439         384.361 
       0.546137         377.547         146.659         379.705 
       0.552299         374.803         143.016         374.183 
       0.558452         368.489         139.519         369.959 
       0.564573         367.454         136.163         366.513 
       0.570708         360.313         132.908         361.561 
       0.576825         354.613         129.758         355.414 
       0.582926         353.148          126.71         352.668 
       0.589034         346.097         123.752         347.673 
       0.595184         343.408         120.868         342.505 
       0.601379         337.335         118.059         338.497 
       0.607522          331.43         115.366         333.047 
       0.613639         330.122         112.771         332.489 
       0.619772         327.827         110.251         330.255 
       0.625918         321.656         107.806         324.591 
       0.632068         320.332         105.434         322.051 
       0.638161         315.828         103.156         318.849 
         0.6443         311.578         100.929         314.693 
       0.650464         308.906         98.7594         309.363 
       0.656582         304.975         96.6691         307.432 
       0.662703         303.859         94.6384         304.602 
       0.668861         298.118         92.6543         303.132 
       0.675024         296.999         90.7255         300.054 
       0.681124         290.574         88.8713         295.467 
       0.687237         289.896         87.0657         292.277 
       0.693381         285.606         85.3023         289.345 
       0.699536         284.995         83.5855         287.442 
       0.705665         280.695         81.9239         282.895 
       0.711789         278.103         80.3096         281.527 
       0.717957         276.046         78.7282         280.302 
        0.72409         272.451         77.1985         276.196 
       0.730186          272.61          75.719         273.191 
       0.736317         267.781         74.2704         271.656 
       0.742472         265.895         72.8546         269.446 
       0.748622         264.516         71.4771         266.235 
        0.75476          261.01         70.1384         266.325 
       0.760888         259.587         68.8362         262.649 
       0.767043         256.281          67.562          259.75 
       0.773185         253.425          66.323             258 
       0.779291         251.785         65.1221         255.314 
       0.785407         250.042         63.9495         253.269 
       0.791564         248.423         62.7985         251.289 
       0.797719         244.612         61.6765         249.231 
       0.803834         243.661         60.5893         247.747 
       0.809972         240.273         59.5245         245.465 
       0.816124         238.702         58.4831         243.038 
       0.822261         236.462         57.4696         242.085 
       0.828378         235.166         56.4832          239.74 
       0.834502          231.89         55.5193         237.971 
       0.840667         230.993         54.5717         235.803 
       0.846816          228.49          53.649         234.243 
       0.852925         228.314         52.7536         232.592 
       0.859047         224.514         51.8768          230.39 
       0.865192         223.722         51.0172         228.325 
       0.871341         221.712         50.1765         226.792 
       0.877463         220.213         49.3587         225.628 
       0.883569          219.06         48.5613         225.273 
       0.889708         216.901         47.7775         222.187 
       0.895864          214.07          47.009          221.14 
       0.902008         212.862         46.2591         218.816 
       0.908149         210.331         45.5261         217.174 
       0.914301         209.751         44.8078         215.395 
       0.920448          207.22         44.1058         214.443 
       0.926574         205.821         43.4213         212.876 
       0.932687         205.222         42.7528         210.906 
       0.938823         203.245         42.0961         210.572 
       0.944975         202.861         41.4518         208.652 
       0.951105          200.66         40.8233         207.297 
       0.957225         198.815         40.2089         205.668 
       0.963368         198.508         39.6052         204.303 
       0.969511           195.9         39.0139         203.074 
       0.975621         193.659         38.4379         201.698 
       0.981748         193.095         37.8722         200.862 
       0.987916         191.848         37.3142         199.153 
        0.99406         190.048         36.7697         197.878 
        1.00019          188.53         36.2372          196.47 
        1.00632         187.651         35.7157         194.926 
        1.01246         186.271         35.2038         193.421 
        1.01859         184.558         34.7028         192.546 
        1.02471         183.123         34.2121         191.315 
        1.03085         182.399         33.7293         190.312 
        1.03698         180.877         33.2569         189.606 
        1.04314         179.978         32.7916         188.005 
        1.04929         178.445         32.3362         186.512 
        1.05541         178.264         31.8914          185.63 
        1.06154         176.359         31.4539         184.883 
        1.06769         175.127         31.0239         183.578 
        1.07382         173.072         30.6033         182.481 
        1.07993         172.801         30.1915         181.462 
        1.08607         171.677         29.7857         179.977 
        1.09222         170.169         29.3869         179.051 
        1.09836         168.917         28.9958         178.078 
        1.10449         168.165         28.6124         177.492 
        1.11063          166.99         28.2355         175.953 
        1.11677         165.389         27.8655         174.909 
         1.1229         165.092         27.5029         173.795 
        1.12903         163.096         27.1464         172.706 
        1.13518         162.097         26.7959         171.807 
        1.14131         161.209         26.4518         170.866 
        1.14745         160.207          26.114         169.441 
        1.15359         158.997          25.782         169.018 
        1.15973         158.327         25.4557          167.87 
        1.16584         157.347         25.1365         167.413 
        1.17197         156.457         24.8223         166.332 
        1.17811         154.605         24.5125         165.118 
        1.18424         154.017          24.209          164.15 
        1.19038         153.027         23.9097         163.744 
        1.19652         151.605         23.6156         162.193 
        1.20267         150.729         23.3264         161.851 
        1.20881         149.992         23.0422         160.773 
        1.21495         149.095         22.7632         159.785 
        1.22108          147.89         22.4888         158.894 
         1.2272         147.214         22.2197         158.316 
        1.23334         145.926         21.9543         157.432 
        1.23949         145.574         21.6926         156.439 
        1.24562         144.275          21.436         155.215 
        1.25174           143.7         21.1839         154.484 
        1.25789           142.5          20.935         153.541 
        1.26402         141.666         20.6907         153.063 
        1.27014         140.887         20.4508         152.182 
        1.27628         140.228          20.214         151.856 
        1.28244         139.005         19.9805         150.809 
        1.28858         138.116          19.751         150.098 
        1.29471         137.119         19.5256         149.276 
        1.30084          136.53          19.304         148.167 
        1.30697         135.657         19.0855         147.402 
        1.31312         135.122           18.87         146.585 
        1.31925         134.034         18.6585         146.029 
        1.32537         133.478         18.4506         145.249 
        1.33151         132.184          18.245          144.55 
        1.33765         131.857         18.0427         143.863 
        1.34378         130.932         17.8439         143.065 
        1.34992         130.014         17.6479         142.309 
        1.35606         129.295         17.4545         141.386 
         1.3622         128.436         17.2643         141.028 
        1.36833         127.897         17.0774         140.174 
        1.37445         126.951         16.8933         139.261 
        1.38059          126.01         16.7114         138.673 
        1.38675         125.094         16.5318         137.838 
        1.39288         124.449         16.3555         137.356 
        1.39901          123.84         16.1819         136.634 
        1.40515         122.891         16.0104         135.822 
         1.4113         122.493         15.8414         135.132 
        1.41742         121.585         15.6756         134.534 
        1.42355         120.593         15.5118         133.758 
         1.4297         119.925         15.3498         133.171 
        1.43585         119.594         15.1903         132.694 
        1.44198         118.656         15.0336         132.104 
        1.44809         118.143         14.8794         131.268 
        1.45423         117.369         14.7268         130.548 
        1.46036         116.764         14.5766         129.927 
        1.46649         115.744         14.4285         129.388 
        1.47263         115.517         14.2823         128.785 
        1.47877         114.448         14.1382         127.913 
        1.48491         113.697         13.9959         127.304 
        1.49104         113.107         13.8558          126.87 
        1.49718         112.243         13.7176         126.231 
        1.50333         111.599          13.581         125.495 
        1.50947         110.984         13.4465         124.911 
         1.5156         110.344         13.3141         124.441 
        1.52172         109.749         13.1835         123.915 
        1.52787         109.044         13.0543         123.199 
          1.534         108.518          12.927         122.625 
        1.54013         108.249         12.8016         122.187 
        1.54627          107.21         12.6776         121.636 
        1.55241         106.631         12.5552         120.973 
        1.55855         105.844         12.4346         120.311 
        1.56467         105.344         12.3159         119.767 
         1.5708         105.007         12.1985         119.161 
        1.57695         104.252         12.0824         118.601 
        1.58308         103.369          11.968         118.159 
        1.58922          102.87         11.8551         117.622 
        1.59535         102.198         11.7437         117.071 
         1.6015          101.57         11.6335         116.542 
        1.60764         101.089         11.5248         115.974 
        1.61376         100.592         11.4178         115.434 
        1.61989         99.9897         11.3121         114.971 
        1.62604         99.5932         11.2075         114.239 
        1.63218         98.5938         11.1043         113.643 
        1.63831         98.2564         11.0026          113.32 
        1.64444         97.7085         10.9021         112.804 
        1.65059          96.905         10.8027         112.258 
        1.65673         96.4814         10.7046         111.682 
        1.66285         96.2276          10.608         111.222 
        1.66898         95.5369         10.5125         110.865 
        1.67512         94.5722         10.4181         110.266 
        1.68127         94.3917         10.3247         109.755 
         1.6874         93.8522         10.2327          109.32 
        1.69353          93.086         10.1418         108.766 
        1.69967         92.7563         10.0519         108.311 
        1.70581         91.9631         9.96304         107.821 
        1.71193         91.7359         9.87561         107.278 
        1.71806         91.0074         9.78905         106.831 
        1.72421         90.4099         9.70336         106.454 
        1.73035         90.1443         9.61879         105.995 
        1.73649         89.6244         9.53524         105.399 
        1.74262         88.8752         9.45276         104.785 
        1.74876         88.3481          9.3712         104.333 
        1.75489         88.0718         9.29076         103.989 
        1.76101         87.6688          9.2113         103.621 
        1.76715         87.1117         9.13266         103.155 
        1.77329         86.5956         9.05483         102.667 
        1.77943         85.8734         8.97789         102.236 
        1.78557          85.378         8.90195         101.838 
        1.79171         84.9162         8.82687         101.328 
        1.79785         84.4197         8.75265         100.808 
        1.80399         83.8777         8.67929          100.43 
        1.81012         83.5389         8.60687         100.072 
        1.81625         82.8112         8.53531         99.6051 
        1.82239         82.5629         8.46446         99.1057 
        1.82853         82.0663         8.39444         98.7102 
        1.83466          81.596         8.32529         98.2567 
        1.84078         81.2234         8.25698         97.7932 
        1.84692         80.6441         8.18933         97.4984 
        1.85306         80.1203         8.12235         97.0195 
         1.8592         79.7084         8.05622         96.4821 
        1.86533         79.1959         7.99087         96.1843 
        1.87147         78.8068         7.92616         95.8117 
        1.87761         78.4428         7.86215         95.3423 
