# k  (h/Mpc)    Pcb(k)  (Mpc/h)^3    Pcb_linear(k) (Mpc/h)^3    Pcb_NL(k) (Mpc/h)^3   ShotnoiseSubtracted = false
     0.00783031         7572.77         7627.83         7559.55 
       0.013688         8342.45         8499.93          8443.4 
       0.019231         7777.77         7848.45            7801 
      0.0249154         6646.76         6607.91         6580.83 
      0.0312784          5186.8         5184.57            5181 
      0.0375637         4066.53         4082.02         4084.84 
      0.0433917         3413.54         3397.17         3399.69 
      0.0492413         2978.93          2978.1         2981.21 
      0.0555754         2730.16         2712.62          2712.7 
      0.0619321         2484.75         2520.87         2518.85 
       0.067871         2321.59         2328.05         2325.94 
      0.0738098         2095.45         2090.39         2083.02 
      0.0800417         1823.11         1806.35         1806.05 
      0.0862327         1543.02         1529.57         1541.61 
      0.0921407            1326         1306.84         1323.01 
      0.0982031         1171.71         1139.15         1164.07 
       0.104506         1044.17         1028.91          1058.3 
       0.110769         984.173         967.238         987.976 
       0.116806         954.879         930.272         945.944 
       0.122832         907.333         894.156         908.137 
       0.129052         857.323         842.956         854.432 
       0.135211         800.454         774.852         788.332 
       0.141259         718.297         697.758         716.531 
       0.147318         640.168         621.573         648.525 
       0.153489          579.35         555.273         579.551 
       0.159709         537.911         505.444         533.227 
       0.165845         493.993         472.813          505.36 
       0.171974         483.926          452.33         480.446 
       0.178125          466.38         437.657         466.715 
       0.184229         441.591         422.916         448.759 
        0.19034         427.562         404.027         427.408 
       0.196428         405.939         380.157          401.17 
       0.202534         371.019         352.889         376.335 
       0.208729          354.22         325.053         349.407 
       0.214876         332.471         300.346          330.51 
       0.220989         306.889         280.479         312.268 
       0.227147          297.23         265.478         296.847 
        0.23329          285.37         254.499         286.764 
       0.239377         279.009         245.844         276.319 
       0.245482         265.915         237.618         264.445 
       0.251667         254.161         228.433         256.354 
       0.257832         248.882         217.955         244.468 
       0.263955         232.894         206.562         232.779 
       0.270079         221.125         194.979         222.004 
        0.27624         210.055         184.062         210.865 
       0.282372          202.22          174.55         202.715 
        0.28843         198.968          166.71         195.064 
       0.294538         189.006         160.189         188.404 
       0.300721         181.597         154.552          182.89 
        0.30691         178.214         149.343         177.513 
       0.313033         169.844         144.179         170.826 
       0.319153         166.351         138.789         165.113 
       0.325316         160.304         133.132         159.854 
        0.33145         154.561         127.459          153.26 
       0.337538           148.4         122.027         147.613 
       0.343633         143.239          116.99         143.661 
       0.349808         138.372         112.422         139.642 
       0.355968         134.681         108.375         136.039 
       0.362074         131.086          104.78         131.694 
       0.368217         128.115         101.424         127.061 
       0.374374         124.486         98.1841         123.572 
       0.380519         119.183         94.9837         119.769 
       0.386598         116.352         91.8106         116.872 
       0.392688         112.355         88.6619         113.446 
        0.39888         110.125         85.5435          110.09 
       0.405048         107.081         82.5816         107.415 
       0.411186         104.929         79.8299         104.602 
       0.417313         102.024          77.281         101.392 
       0.423458         99.3226         74.9046          99.065 
       0.429607         96.7716          72.676          96.674 
       0.435692         95.1047         70.5706         94.1762 
       0.441815         92.1131         68.5136         92.4642 
       0.447964         88.9204          66.497         89.9746 
       0.454126         87.2426         64.5221         87.2498 
       0.460267         86.2626         62.6041         86.0012 
       0.466387         83.7743         60.7608         83.7142 
        0.47254         82.6423         58.9918         81.9345 
       0.478662         79.6304         57.3203         80.1788 
       0.484765         78.1973         55.7365         77.8505 
       0.490885         76.2479         54.2253         76.6201 
       0.497035         75.3534         52.7734         75.2722 
       0.503198         73.7083         51.3727         73.5061 
       0.509342         71.6804         50.0183          72.151 
       0.515458         70.3301         48.7076         71.0372 
       0.521598         68.4953         47.4317         68.9911 
       0.527764          67.714         46.1927          67.402 
       0.533884         66.8882         45.0062         66.2995 
           0.54         64.9411         43.8644         65.0242 
       0.546137         63.2352         42.7625          64.023 
       0.552299         61.9826            41.7         62.3786 
       0.558452         60.8132         40.6805         61.1058 
       0.564573         60.3177          39.702         60.3385 
       0.570708         58.5404         38.7527         59.2762 
       0.576825         57.8479         37.8345         58.0454 
       0.582926          57.046         36.9457         56.9819 
       0.589034         55.8281         36.0831         56.3124 
       0.595184         54.9564         35.2422         55.1324 
       0.601379         53.6757         34.4232         54.3679 
       0.607522          52.478         33.6379         53.0583 
       0.613639         51.9715         32.8812          52.409 
       0.619772         50.8516         32.1467         51.4798 
       0.625918         50.3052         31.4337         50.7569 
       0.632068          49.331         30.7422         49.8355 
       0.638161         48.4185         30.0778         49.1293 
         0.6443         48.0077         29.4284         48.2231 
       0.650464         46.7601         28.7959         47.2753 
       0.656582         46.5172         28.1864         46.7907 
       0.662703         45.6995         27.5943         45.8991 
       0.668861         44.6721         27.0158         45.3504 
       0.675024         44.3869         26.4534         44.5116 
       0.681124         43.7172         25.9128         43.8501 
       0.687237         42.8637         25.3863         43.2077 
       0.693381         42.2528         24.8721         42.4716 
       0.699536         41.7726         24.3716         42.1144 
       0.705665         41.1089         23.8871         41.5884 
       0.711789         40.4087         23.4164         40.6676 
       0.717957         39.7446         22.9553          40.276 
        0.72409          39.277         22.5093          39.828 
       0.730186          38.973         22.0779         39.2649 
       0.736317         38.2552         21.6555          38.612 
       0.742472          37.667         21.2427         38.1216 
       0.748622         37.0506          20.841         37.5821 
        0.75476         36.6111         20.4507          37.079 
       0.760888         36.4168          20.071         36.5584 
       0.767043         35.5865         19.6995         36.2711 
       0.773185          35.039         19.3382         35.8174 
       0.779291         34.6372         18.9881         35.3515 
       0.785407         34.2049         18.6462         34.7864 
       0.791564         34.0618         18.3106         34.3639 
       0.797719         33.2969         17.9834         34.1111 
       0.803834         33.0999         17.6664         33.5612 
       0.809972         32.6576         17.3559         33.1366 
       0.816124         32.2219         17.0523         32.7987 
       0.822261         31.7112         16.7568         32.3437 
       0.828378         31.5691         16.4692         31.8698 
       0.834502         31.1286         16.1881         31.6204 
       0.840667         30.7975         15.9118         31.3156 
       0.846816         30.3819         15.6428         30.9403 
       0.852925         30.0201         15.3817         30.6088 
       0.859047         29.8392         15.1261          30.201 
       0.865192         29.3283         14.8754         29.8881 
       0.871341         28.9971         14.6303         29.5589 
       0.877463         28.6461         14.3918         29.2427 
       0.883569         28.5143         14.1593         29.0037 
       0.889708         28.1335         13.9308         28.6421 
       0.895864         27.8184         13.7067         28.3139 
       0.902008         27.5288         13.4881         27.9893 
       0.908149         27.1464         13.2743         27.7901 
       0.914301         26.8794         13.0649         27.5654 
       0.920448         26.7313         12.8602         27.1741 
       0.926574         26.2883         12.6606         26.8716 
       0.932687         25.9986         12.4657         26.6353 
       0.938823          25.662         12.2742         26.2787 
       0.944975         25.3936         12.0864         26.0592 
       0.951105         25.2087         11.9031         25.8338 
       0.957225          24.973          11.724         25.5501 
       0.963368          24.702          11.548         25.2795 
       0.969511         24.4501         11.3755           25.01 
       0.975621         24.2375         11.2076         24.8526 
       0.981748         23.9673         11.0426         24.6131 
       0.987916         23.7297           10.88          24.403 
        0.99406         23.4968         10.7212         24.1138 
        1.00019         23.2707         10.5659         23.8782 
        1.00632         23.0893         10.4139         23.6749 
        1.01246         22.8341         10.2646         23.4465 
        1.01859         22.6292         10.1185         23.3104 
        1.02471         22.3968         9.97546         23.0996 
        1.03085         22.2207         9.83469         22.8298 
        1.03698          22.073         9.69694         22.6124 
        1.04314         21.8321         9.56126           22.38 
        1.04929         21.5061         9.42849         22.2498 
        1.05541         21.4754         9.29879         22.1353 
        1.06154         21.2541         9.17121         21.8682 
        1.06769         20.9546         9.04583         21.6535 
        1.07382         20.8143         8.92321         21.4956 
        1.07993         20.6726         8.80315         21.2947 
        1.08607         20.4465          8.6848         21.1418 
        1.09222         20.2981         8.56852         20.9878 
        1.09836         20.0894         8.45451         20.8046 
        1.10449         19.9763         8.34271         20.6174 
        1.11063         19.7653         8.23281         20.4173 
        1.11677         19.6887         8.12494         20.2342 
         1.1229         19.4624         8.01919         20.1151 
        1.12903         19.2721         7.91524         19.9583 
        1.13518         19.2131         7.81305         19.7803 
        1.14131         19.0064         7.71273         19.6182 
        1.14745         18.8127         7.61423         19.4983 
        1.15359         18.5818         7.51743         19.2953 
        1.15973         18.5232         7.42228         19.1842 
        1.16584         18.3514          7.3292         19.0048 
        1.17197         18.1529          7.2376         18.9114 
        1.17811           18.03         7.14728         18.7062 
        1.18424          17.807         7.05877         18.5682 
        1.19038         17.7162          6.9715         18.4877 
        1.19652         17.5582         6.88575         18.2808 
        1.20267         17.4732         6.80145         18.1874 
        1.20881         17.3045         6.71857         18.0533 
        1.21495         17.2467         6.63722         17.9391 
        1.22108         17.1291         6.55722         17.7825 
         1.2272         16.9306         6.47874         17.6927 
        1.23334         16.8521         6.40136         17.5434 
        1.23949         16.7044         6.32507         17.3691 
        1.24562         16.5495         6.25023         17.2741 
        1.25174         16.4475         6.17672         17.1695 
        1.25789         16.3285         6.10417         17.0461 
        1.26402         16.2173         6.03291         16.8902 
        1.27014         16.1054         5.96297         16.7981 
        1.27628         15.9455         5.89393         16.6722 
        1.28244         15.9475         5.82584         16.6012 
        1.28858         15.7346         5.75893         16.4635 
        1.29471         15.5946         5.69322         16.3629 
        1.30084         15.4836         5.62859         16.2681 
        1.30697          15.403         5.56487         16.1153 
        1.31312         15.2815         5.50205         16.0186 
        1.31925         15.1742          5.4404         15.9223 
        1.32537         15.0417         5.37975         15.8355 
        1.33151         14.9168         5.31981         15.7278 
        1.33765         14.8981         5.26083         15.6103 
        1.34378         14.7924         5.20285          15.531 
        1.34992         14.6369         5.14572         15.4361 
        1.35606         14.5128         5.08931         15.3271 
         1.3622         14.4476         5.03386         15.2327 
        1.36833         14.3862         4.97936         15.1581 
        1.37445         14.2604          4.9257         15.0445 
        1.38059          14.144         4.87267         14.9526 
        1.38675         14.0918         4.82029         14.8761 
        1.39288         13.9581         4.76889         14.7651 
        1.39901         13.8499         4.71826         14.6704 
        1.40515         13.7861         4.66826         14.5704 
         1.4113         13.7158           4.619         14.4744 
        1.41742         13.6254         4.57063         14.4098 
        1.42355         13.4898         4.52287         14.3422 
         1.4297         13.4368         4.47565         14.2169 
        1.43585         13.3403         4.42913         14.1529 
        1.44198         13.2871         4.38344         14.0742 
        1.44809         13.1739         4.33848          13.998 
        1.45423         13.0975         4.29399         13.8794 
        1.46036         13.0299         4.25021          13.802 
        1.46649         12.9256         4.20702         13.7521 
        1.47263         12.8402         4.16439         13.6882 
        1.47877         12.7497         4.12238         13.5979 
        1.48491          12.682         4.08088         13.5173 
        1.49104         12.5991         4.04004         13.4328 
        1.49718         12.5769         3.99973         13.3689 
        1.50333         12.4925          3.9599         13.2898 
        1.50947         12.3592          3.9207         13.2193 
         1.5156         12.3366         3.88209         13.1539 
        1.52172         12.2526         3.84399         13.0707 
        1.52787         12.2045         3.80633         12.9858 
          1.534         12.1017         3.76922          12.919 
        1.54013         12.0655         3.73265         12.8433 
        1.54627         11.9547         3.69649         12.7632 
        1.55241         11.8758         3.66081         12.6985 
        1.55855         11.8161         3.62564         12.6441 
        1.56467         11.7323         3.59104         12.5889 
         1.5708         11.6996         3.55679         12.5098 
        1.57695         11.6291         3.52293         12.4315 
        1.58308         11.5364          3.4896         12.3789 
        1.58922         11.4763         3.45667         12.3218 
        1.59535         11.4102         3.42418          12.242 
         1.6015         11.3547         3.39206          12.181 
        1.60764         11.2856         3.36037         12.1169 
        1.61376         11.2232         3.32918         12.0436 
        1.61989         11.1222         3.29835         12.0146 
        1.62604         11.0748         3.26785         11.9555 
        1.63218         11.0082         3.23775         11.8916 
        1.63831         10.9517         3.20809         11.8469 
        1.64444         10.9066          3.1788         11.7834 
        1.65059         10.8383         3.14981         11.7085 
        1.65673         10.7759         3.12121         11.6476 
        1.66285         10.7088         3.09304         11.6006 
        1.66898          10.655         3.06521         11.5456 
        1.67512         10.6355         3.03767         11.4707 
        1.68127         10.5529         3.01045         11.4231 
         1.6874         10.5124         2.98361         11.3693 
        1.69353         10.4176         2.95712         11.2709 
        1.69967         10.3591         2.93089         11.2365 
        1.70581         10.3325         2.90499         11.2014 
        1.71193         10.2635          2.8795          11.147 
        1.71806         10.2048         2.85426         11.1167 
        1.72421         10.1594         2.82928         11.0546 
        1.73035         10.1049         2.80462         11.0021 
        1.73649         10.0325         2.78026         10.9657 
        1.74262         10.0063         2.75621         10.8842 
        1.74876          9.9516         2.73242          10.821 
        1.75489         9.88164         2.70897         10.7856 
        1.76101          9.8247          2.6858          10.749 
        1.76715         9.78543         2.66287         10.6918 
        1.77329         9.73412         2.64018         10.6273 
        1.77943          9.6905         2.61774         10.5713 
        1.78557         9.66692          2.5956          10.527 
        1.79171         9.58625         2.57371         10.4869 
        1.79785         9.52399         2.55207         10.4457 
        1.80399         9.47602         2.53068         10.4011 
        1.81012          9.4451         2.50957         10.3538 
        1.81625         9.39085          2.4887         10.3117 
        1.82239         9.33975         2.46804          10.272 
        1.82853         9.29729         2.44763         10.2257 
        1.83466         9.24014         2.42746         10.1822 
        1.84078         9.19488         2.40754         10.1357 
        1.84692         9.16865         2.38782         10.0736 
        1.85306          9.1212         2.36829         10.0348 
         1.8592         9.07878         2.34901         10.0082 
        1.86533         9.03191         2.32995           9.957 
        1.87147         8.97185         2.31109         9.90266 
