# k  (h/Mpc)    P(k)  (Mpc/h)^3    P_linear(k)  (Mpc/h)^3     P_NL(k)  ShotnoiseSubtracted = false
     0.00783031         19327.2         19446.8         19264.3 
       0.013688         21104.9         21689.9         21521.8 
       0.019231         19731.2         20030.3         19878.8 
      0.0249154         16993.2         16864.9         16756.3 
      0.0312784           13186         13232.3         13176.7 
      0.0375637         10322.7         10418.3         10398.4 
      0.0433917         8702.27         8670.36         8647.49 
      0.0492413         7588.26         7600.75         7584.05 
      0.0555754         6963.22         6923.18         6908.08 
      0.0619321         6278.28         6433.76          6415.2 
       0.067871         5886.71         5941.63         5930.09 
      0.0738098         5347.35         5335.06         5288.17 
      0.0800417         4666.51         4610.12         4602.31 
      0.0862327         3963.22         3903.73          3966.7 
      0.0921407         3443.74         3335.27         3420.32 
      0.0982031         3070.53          2907.3         3044.41 
       0.104506         2730.42         2625.96         2791.63 
       0.110769         2577.13         2468.55         2588.42 
       0.116806         2498.44         2374.21         2466.91 
       0.122832         2371.33         2282.04         2364.14 
       0.129052         2223.18         2151.36          2220.9 
       0.135211            2111         1977.55         2055.51 
       0.141259         1895.91         1780.79         1890.83 
       0.147318         1709.89         1586.35          1737.6 
       0.153489         1564.04         1417.14         1557.69 
       0.159709         1478.89         1289.97         1451.81 
       0.165845          1357.1         1206.69          1391.9 
       0.171974         1328.85         1154.42         1320.83 
       0.178125          1286.7         1116.97         1287.22 
       0.184229         1195.59         1079.35         1229.31 
        0.19034         1168.66         1031.14          1169.1 
       0.196428         1121.59         970.219         1102.34 
       0.202534         1032.78         900.626         1044.74 
       0.208729         1002.96         829.582         972.988 
       0.214876         943.281         766.526         937.121 
       0.220989         885.013         715.824         896.977 
       0.227147         858.279         677.541         861.496 
        0.23329         823.453          649.52         836.922 
       0.239377         816.203          627.43         803.927 
       0.245482         774.082         606.436         768.702 
       0.251667         744.502         582.994         748.079 
       0.257832          728.96         556.251         714.582 
       0.263955          688.61         527.176         685.062 
       0.270079         661.437         497.617         659.177 
        0.27624         631.732         469.755          631.89 
       0.282372         618.134         445.478         613.576 
        0.28843         607.598         425.469         596.321 
       0.294538         576.373         408.825         577.632 
       0.300721         562.108         394.439         560.847 
        0.30691         548.674         381.144         550.014 
       0.313033         523.027         367.965         529.729 
       0.319153         515.256          354.21         513.423 
       0.325316         505.421         339.772         499.485 
        0.33145         491.465         325.293         479.656 
       0.337538         472.387         311.431         466.985 
       0.343633         459.421         298.576          460.01 
       0.349808         447.464         286.918          449.83 
       0.355968         438.475         276.587         439.658 
       0.362074         421.037         267.415         429.164 
       0.368217         418.141         258.849         415.797 
       0.374374         410.724          250.58         405.723 
       0.380519         393.506         242.414          394.93 
       0.386598         388.793         234.313         390.339 
       0.392688         377.623         226.279         377.873 
        0.39888         368.618         218.319         370.177 
       0.405048         358.989          210.76         363.034 
       0.411186         358.421         203.737         353.423 
       0.417313         352.077         197.232           346.1 
       0.423458         343.179         191.168         340.084 
       0.429607         331.863         185.479         333.489 
       0.435692         326.707         180.107         324.207 
       0.441815         320.698         174.856         320.754 
       0.447964           313.1          169.71         315.111 
       0.454126         309.408          164.67         305.833 
       0.460267         303.961         159.775         303.552 
       0.466387         296.396          155.07         297.859 
        0.47254         293.212         150.556          292.21 
       0.478662         286.343          146.29         286.161 
       0.484765         281.542         142.248         280.735 
       0.490885         278.865         138.391         275.868 
       0.497035         271.971         134.685         271.969 
       0.503198         270.894         131.111         267.869 
       0.509342         264.997         127.654         263.463 
       0.515458          259.65         124.309         260.046 
       0.521598         255.682         121.053         255.473 
       0.527764         251.876          117.89         252.806 
       0.533884          249.01         114.862         249.006 
           0.54         245.463         111.948          244.17 
       0.546137         239.878         109.136         241.123 
       0.552299         238.252         106.425         237.081 
       0.558452         233.936         103.822         233.864 
       0.564573         232.763         101.325         231.756 
       0.570708         227.588         98.9026         228.925 
       0.576825         223.747          96.559         224.079 
       0.582926         222.556         94.2908         221.827 
       0.589034         217.853         92.0892         219.074 
       0.595184         216.297          89.943         214.967 
       0.601379         212.679         87.8529         212.465 
       0.607522         207.601         85.8488          209.19 
       0.613639         206.808         83.9176         208.528 
       0.619772         205.677          82.043         206.573 
       0.625918         201.446         80.2232         202.458 
       0.632068         199.312         78.4584         199.953 
       0.638161         197.738         76.7628         198.745 
         0.6443         194.402         75.1055         196.132 
       0.650464          192.12         73.4913         192.081 
       0.656582         189.649         71.9358         190.697 
       0.662703         188.966         70.4247         188.771 
       0.668861         184.588         68.9482         187.275 
       0.675024         183.874         67.5129          185.24 
       0.681124          181.09         66.1331         182.169 
       0.687237         179.942         64.7894         180.245 
       0.693381         176.382         63.4773          178.12 
       0.699536          176.01         62.1997         176.647 
       0.705665         173.571         60.9632         174.246 
       0.711789         170.905         59.7619         173.286 
       0.717957         169.973         58.5851         171.883 
        0.72409         167.369         57.4468         169.829 
       0.730186         167.893         56.3458         167.915 
       0.736317         165.144         55.2679         166.205 
       0.742472         163.344         54.2143         164.362 
       0.748622         161.374         53.1893         162.717 
        0.75476          160.91         52.1931         162.194 
       0.760888         158.829         51.2241         159.558 
       0.767043         156.164         50.2759         158.372 
       0.773185         154.408         49.3539         157.126 
       0.779291         153.616         48.4603         155.162 
       0.785407          152.21         47.5877         153.723 
       0.791564         150.957         46.7311         152.329 
       0.797719         148.419         45.8963         151.244 
       0.803834         148.551         45.0872         150.107 
       0.809972         146.464         44.2948         148.693 
       0.816124         144.132         43.5199         147.303 
       0.822261         143.181         42.7657         146.316 
       0.828378         142.515         42.0317         144.695 
       0.834502         140.938         41.3144         143.325 
       0.840667         140.572         40.6092         142.057 
       0.846816         138.028         39.9226         141.154 
       0.852925         137.662         39.2563         140.086 
       0.859047         135.954         38.6038         138.984 
       0.865192         135.268         37.9641         137.377 
       0.871341         134.094         37.3386         136.377 
       0.877463         132.727           36.73         135.621 
       0.883569         132.343         36.1366         135.024 
       0.889708         131.215         35.5533          133.31 
       0.895864         129.286         34.9815         132.485 
       0.902008         128.221         34.4235         131.191 
       0.908149         126.955          33.878         130.215 
       0.914301         125.925         33.3435         129.088 
       0.920448          125.63         32.8211         128.231 
       0.926574         123.962         32.3117         127.146 
       0.932687         123.672         31.8143         126.424 
       0.938823         122.564         31.3256          125.52 
       0.944975         122.076         30.8461         124.482 
       0.951105         120.478         30.3784         123.521 
       0.957225         119.641         29.9213         122.584 
       0.963368         119.111          29.472         121.724 
       0.969511         117.718          29.032         120.679 
       0.975621          115.98         28.6034         120.233 
       0.981748         115.898         28.1824         119.423 
       0.987916         115.142         27.7672         118.468 
        0.99406         114.075          27.362         117.514 
        1.00019         113.649         26.9657         116.602 
        1.00632         112.521         26.5777         115.759 
        1.01246          111.63         26.1967         114.666 
        1.01859         110.604         25.8239         114.235 
        1.02471         109.841         25.4588         113.624 
        1.03085         109.211         25.0995         112.946 
        1.03698         108.441          24.748         112.435 
        1.04314          107.85         24.4017         111.383 
        1.04929          107.13         24.0628         110.656 
        1.05541         106.674         23.7318         110.108 
        1.06154         105.385         23.4062         109.396 
        1.06769         104.744         23.0862         108.691 
        1.07382          103.82         22.7733         108.065 
        1.07993         103.352         22.4669          107.35 
        1.08607         103.125         22.1648         106.536 
        1.09222          101.76         21.8681         105.993 
        1.09836         101.208         21.5771         105.216 
        1.10449         100.725         21.2918         104.871 
        1.11063         99.5874         21.0113         104.016 
        1.11677         99.2826          20.736         103.255 
         1.1229         98.3624         20.4661         102.695 
        1.12903         97.3235         20.2008         102.031 
        1.13518         96.8316           19.94         101.505 
        1.14131         96.6129          19.684         100.654 
        1.14745         95.6042         19.4326         100.118 
        1.15359         95.1175         19.1855         99.6824 
        1.15973         94.5485         18.9427          99.124 
        1.16584         93.7741         18.7052          98.367 
        1.17197         93.3573         18.4714         98.0217 
        1.17811         92.6221         18.2409         97.2794 
        1.18424         91.9588          18.015         96.5902 
        1.19038         91.4857         17.7923         96.3774 
        1.19652         90.6756         17.5734          95.653 
        1.20267         90.0271         17.3582          95.168 
        1.20881          89.409         17.1467         94.4714 
        1.21495         89.2351         16.9391         94.1033 
        1.22108         88.3789          16.735         93.5053 
         1.2272         88.3115         16.5346         92.9242 
        1.23334          87.469         16.3372         92.6422 
        1.23949         86.7969         16.1425         92.0351 
        1.24562         86.1245         15.9515         91.2148 
        1.25174         86.1616         15.7639         90.7568 
        1.25789         85.3114         15.5787         90.2296 
        1.26402         84.7375         15.3968         89.9824 
        1.27014         84.1213         15.2183         89.5059 
        1.27628         83.8461         15.0421         89.2129 
        1.28244         83.2165         14.8684         88.5309 
        1.28858          82.823         14.6976         88.0288 
        1.29471         82.1963         14.5299         87.5689 
        1.30084         81.6452          14.365         86.9098 
        1.30697         81.0683         14.2023         86.5069 
        1.31312         80.7651          14.042         86.0696 
        1.31925         79.9059         13.8847         85.7309 
        1.32537         79.5671         13.7299         85.3714 
        1.33151         79.2294         13.5769         84.8478 
        1.33765         78.7505         13.4264         84.4207 
        1.34378         78.4066         13.2784          84.014 
        1.34992         77.7869         13.1326          83.465 
        1.35606          77.561         12.9886         83.0351 
         1.3622         77.0343         12.8471         82.6786 
        1.36833         76.4647          12.708         82.1361 
        1.37445         76.0274         12.5711         81.8383 
        1.38059         75.5113         12.4357         81.1649 
        1.38675         75.2067         12.3021         80.8499 
        1.39288         74.6423         12.1709         80.3292 
        1.39901         74.2489         12.0417         80.0763 
        1.40515         73.8068          11.914         79.8126 
         1.4113         73.3126         11.7883         79.4581 
        1.41742         73.2293         11.6649         79.0243 
        1.42355         72.6278          11.543          78.491 
         1.4297         72.1128         11.4225         78.2214 
        1.43585         71.8707         11.3038         77.7047 
        1.44198         71.3519         11.1872         77.5477 
        1.44809         70.8547         11.0724         77.0728 
        1.45423         70.7122         10.9589         76.5344 
        1.46036         70.0293         10.8471         76.1979 
        1.46649         69.6322         10.7369         75.9644 
        1.47263         69.2063         10.6281         75.6398 
        1.47877         69.0099         10.5209         75.1089 
        1.48491         68.4847          10.415         74.7486 
        1.49104         68.1049         10.3107         74.5747 
        1.49718         67.6655         10.2079         74.0236 
        1.50333         67.2133         10.1062         73.6471 
        1.50947         67.1307         10.0062         73.3948 
         1.5156         66.5672         9.90763          73.046 
        1.52172         65.9944         9.81041         72.6432 
        1.52787         65.8835          9.7143         72.3169 
          1.534         65.5579         9.61959         72.0456 
        1.54013         65.0971         9.52624         71.7372 
        1.54627         64.7548         9.43396          71.381 
        1.55241         64.5017         9.34289         71.0007 
        1.55855         63.8942         9.25315         70.6358 
        1.56467         63.5252         9.16483         70.3851 
         1.5708         63.1038         9.07742         70.0407 
        1.57695         62.8791         8.99102         69.7002 
        1.58308         62.5633         8.90594         69.4449 
        1.58922         62.2392          8.8219         69.1125 
        1.59535         62.0538         8.73898         68.8384 
         1.6015         61.4739         8.65702         68.4609 
        1.60764         61.1322         8.57614         68.0997 
        1.61376         61.0807         8.49652         67.9192 
        1.61989         60.5822         8.41785         67.6191 
        1.62604         60.3353            8.34         67.1112 
        1.63218         59.7967         8.26318         66.7875 
        1.63831         59.6452          8.1875         66.6835 
        1.64444         59.2215         8.11275         66.3514 
        1.65059          58.859         8.03875         66.0163 
        1.65673         58.6793         7.96576         65.6828 
        1.66285         58.3471         7.89387         65.4167 
        1.66898         57.8368         7.82285         65.2034 
        1.67512         57.5127         7.75257         64.8625 
        1.68127         57.2824         7.68308         64.6124 
         1.6874         57.1346          7.6146         64.3723 
        1.69353         56.6461         7.54699         63.9716 
        1.69967         56.3587         7.48005         63.7155 
        1.70581         56.0775         7.41394         63.4859 
        1.71193         55.8168         7.34889          63.207 
        1.71806          55.402         7.28447         62.9398 
        1.72421         55.1259          7.2207         62.6606 
        1.73035         54.8267         7.15777         62.3795 
        1.73649         54.5597          7.0956         62.1028 
        1.74262         54.2576         7.03422         61.8207 
        1.74876         53.8926         6.97353         61.5665 
        1.75489         53.8405         6.91367         61.3119 
        1.76101         53.4877         6.85454         61.0352 
        1.76715         53.1429         6.79602         60.7702 
        1.77329         52.8499         6.73811         60.4927 
        1.77943         52.5248         6.68085         60.2251 
        1.78557         52.3828         6.62434         59.9947 
        1.79171          51.924         6.56847         59.7539 
        1.79785         51.8405         6.51324         59.4772 
        1.80399         51.4888         6.45865         59.1854 
        1.81012         51.1415         6.40476         58.9561 
        1.81625         50.9475         6.35151         58.7308 
        1.82239         50.5478         6.29878         58.4761 
        1.82853         50.4315         6.24668         58.2393 
        1.83466         50.1281         6.19522         57.9775 
        1.84078         49.7405         6.14439          57.731 
        1.84692         49.5924         6.09404         57.5721 
        1.85306         49.5001          6.0442         57.3022 
         1.8592         49.1696         5.99499          56.985 
        1.86533         48.7965         5.94636          56.789 
        1.87147         48.5481         5.89821         56.5656 
        1.87761         48.1924         5.85057         56.3152 
