# k  (h/Mpc)    P(k)  (Mpc/h)^3    P_linear(k)  (Mpc/h)^3     P_NL(k)  ShotnoiseSubtracted = false
     0.00783031         27593.7         27755.6         27480.2 
       0.013688         30030.8         31010.2         30743.7 
       0.019231         28121.4         28648.2         28399.5 
      0.0249154         24314.7         24124.3         23928.6 
      0.0312784         18809.9         18929.4         18803.1 
      0.0375637         14720.5         14904.4         14848.3 
      0.0433917         12433.7         12404.1         12342.1 
      0.0492413         10841.8           10874         10824.6 
      0.0555754          9945.5         9904.68         9866.15 
      0.0619321         8932.11         9204.54         9163.14 
       0.067871            8379         8500.51         8474.72 
      0.0738098         7644.53         7632.72         7535.42 
      0.0800417         6678.24         6595.59         6575.26 
      0.0862327         5688.65         5584.99         5702.03 
      0.0921407          4978.2         4771.71         4931.92 
      0.0982031         4459.74         4159.42         4419.98 
       0.104506         3967.08         3756.91         4073.12 
       0.110769          3746.7         3531.72         3765.71 
       0.116806         3621.77         3396.74         3579.29 
       0.122832         3443.73         3264.87         3424.69 
       0.129052         3208.38         3077.92         3215.76 
       0.135211          3073.7         2829.25         2979.96 
       0.141259         2764.25         2547.75         2761.42 
       0.147318         2516.89         2269.57         2555.12 
       0.153489         2314.65         2027.49         2298.95 
       0.159709          2206.4         1845.54         2157.79 
       0.165845         2032.47          1726.4         2077.78 
       0.171974          1979.6         1651.61          1974.8 
       0.178125          1923.7         1598.03          1925.1 
       0.184229         1774.17         1544.21         1832.94 
        0.19034         1744.66         1475.24         1743.28 
       0.196428         1679.95         1388.08         1652.35 
       0.202534         1563.54         1288.51         1572.72 
       0.208729         1520.25         1186.87         1467.51 
       0.214876         1431.41         1096.66         1420.26 
       0.220989         1360.19         1024.12         1368.35 
       0.227147         1316.12          969.35         1323.05 
        0.23329         1262.65         929.261         1286.74 
       0.239377         1256.39         897.656         1236.85 
       0.245482         1194.59         867.621         1184.88 
       0.251667         1151.72         834.082         1152.74 
       0.257832         1124.96         795.821         1104.29 
       0.263955         1070.06         754.224         1062.83 
       0.270079            1036         711.934         1025.55 
        0.27624         991.901         672.073         987.346 
       0.282372         977.736          637.34         965.573 
        0.28843         953.087         608.713         944.452 
       0.294538          910.52         584.901         913.951 
       0.300721         892.801         564.319         887.206 
        0.30691         865.814         545.298             875 
       0.313033         832.084         526.443         843.583 
       0.319153         823.359         506.765         818.273 
       0.325316         808.443         486.108         799.428 
        0.33145         786.846         465.393         769.233 
       0.337538         759.859         445.561         752.494 
       0.343633         742.356          427.17         741.302 
       0.349808          726.36          410.49         727.966 
       0.355968          710.82          395.71         710.974 
       0.362074         686.601         382.587         697.718 
       0.368217         681.528         370.333         680.274 
       0.374374          670.95         358.501         664.472 
       0.380519          646.28         346.819         649.284 
       0.386598         640.341         335.229         641.329 
       0.392688          622.51         323.734         625.661 
        0.39888         611.784         312.347          611.58 
       0.405048         595.474         301.532         598.713 
       0.411186          595.26         291.485         587.918 
       0.417313         584.674         282.178         578.188 
       0.423458          571.44         273.501          567.13 
       0.429607         554.822         265.363         558.557 
       0.435692         546.757         257.677         542.962 
       0.441815         537.132         250.165         538.967 
       0.447964          528.62         242.802          532.13 
       0.454126         521.082         235.591         516.744 
       0.460267         514.525         228.588         513.462 
       0.466387         501.355         221.857         505.129 
        0.47254          498.32         215.398         496.144 
       0.478662          486.63         209.295         487.043 
       0.484765         479.668         203.512         480.614 
       0.490885         477.197         197.994         470.997 
       0.497035         464.456         192.693          465.79 
       0.503198         462.906         187.578         460.094 
       0.509342         454.231         182.633         451.509 
       0.515458         445.706         177.847         446.282 
       0.521598         443.424         173.189         440.952 
       0.527764         433.551         168.664         436.967 
       0.533884         427.013         164.332          431.17 
           0.54         424.332         160.163         424.435 
       0.546137         417.038         156.139         419.452 
       0.552299         413.625          152.26         413.513 
       0.558452         406.956         148.538         408.976 
       0.564573         406.259         144.965         405.075 
       0.570708         398.364         141.499         399.377 
       0.576825         392.281         138.146         393.111 
       0.582926         390.446         134.901         390.205 
       0.589034         383.086         131.751          384.68 
       0.595184         379.811          128.68         379.242 
       0.601379         373.241          125.69         374.883 
       0.607522         367.199         122.823         368.785 
       0.613639         365.705          120.06         368.022 
       0.619772         362.756         117.378         365.663 
       0.625918         356.682         114.774         359.816 
       0.632068         355.204          112.25         357.263 
       0.638161         349.857         109.824         353.457 
         0.6443         345.676         107.453         348.771 
       0.650464         342.542         105.143         343.397 
       0.656582          338.36         102.918         341.144 
       0.662703         336.889         100.756         338.124 
       0.668861         331.059         98.6434         336.633 
       0.675024         329.775         96.5899         333.172 
       0.681124         322.403         94.6159         328.434 
       0.687237         321.706         92.6935         324.856 
       0.693381         317.348         90.8162         321.618 
       0.699536         316.597         88.9884         319.597 
       0.705665         311.779         87.2194         314.591 
       0.711789         309.395         85.5007         312.943 
       0.717957         306.728         83.8171         311.634 
        0.72409         302.986         82.1885         307.094 
       0.730186         303.126         80.6134         303.825 
       0.736317         297.858         79.0711         302.331 
       0.742472         295.644         77.5638         300.228 
       0.748622         294.552         76.0973         296.462 
        0.75476         289.864         74.6721         296.496 
       0.760888         289.019         73.2857         292.724 
       0.767043          285.56         71.9292         289.262 
       0.773185         282.398           70.61         287.383 
       0.779291         280.401         69.3316         284.503 
       0.785407         278.624         68.0831         282.239 
       0.791564         276.889         66.8577         280.277 
       0.797719         272.646         65.6632         278.075 
       0.803834         271.414         64.5057         276.289 
       0.809972         267.863         63.3721         273.714 
       0.816124         266.358         62.2634         271.108 
       0.822261         263.892         61.1843         270.044 
       0.828378         262.331         60.1342         267.541 
       0.834502         258.903          59.108          265.64 
       0.840667         257.403         58.0992          263.39 
       0.846816         255.176         57.1169         261.635 
       0.852925         255.071         56.1635         259.759 
       0.859047         250.586         55.2301         257.196 
       0.865192          249.76         54.3149         255.122 
       0.871341         247.534         53.4199         253.249 
       0.877463         245.983         52.5492         252.061 
       0.883569          244.73         51.7002          251.64 
       0.889708         241.991         50.8658         248.281 
       0.895864         239.244         50.0476         247.187 
       0.902008         237.975         49.2493         244.569 
       0.908149         235.081         48.4688         242.656 
       0.914301         234.494         47.7041         240.682 
       0.920448         231.383         46.9567         239.724 
       0.926574         230.083          46.228         238.157 
       0.932687           229.1         45.5163         235.715 
       0.938823         227.095         44.8172         235.427 
       0.944975         226.713         44.1312         233.461 
       0.951105         224.492         43.4621         231.984 
       0.957225         222.294          42.808         230.091 
       0.963368         221.889         42.1653         228.535 
       0.969511         219.033         41.5358          227.21 
       0.975621         216.873         40.9225         225.645 
       0.981748         215.947         40.3202         224.878 
       0.987916         214.594         39.7262         222.896 
        0.99406         212.603         39.1465         221.566 
        1.00019         210.552         38.5795          220.03 
        1.00632         209.816         38.0243         218.277 
        1.01246         208.315         37.4793         216.744 
        1.01859           206.7         36.9459         215.693 
        1.02471         205.155         36.4236         214.208 
        1.03085         204.322         35.9096         213.174 
        1.03698         202.109         35.4066         212.405 
        1.04314         201.331         34.9112         210.585 
        1.04929         199.728         34.4264         208.977 
        1.05541         199.384         33.9528         207.983 
        1.06154          197.21          33.487         207.142 
        1.06769         195.861         33.0292         205.654 
        1.07382         193.838         32.5815         204.358 
        1.07993          193.53         32.1431         203.298 
        1.08607          191.95          31.711         201.698 
        1.09222         190.601         31.2864         200.644 
        1.09836         189.058         30.8701         199.585 
        1.10449         188.156         30.4619         198.985 
        1.11063         187.073         30.0606         197.236 
        1.11677         185.244         29.6667         196.126 
         1.1229         184.761         29.2806         194.853 
        1.12903         182.719         28.9011         193.615 
        1.13518         181.423         28.5279         192.471 
        1.14131          180.29         28.1616         191.638 
        1.14745         179.446          27.802         189.955 
        1.15359         177.899         27.4485         189.538 
        1.15973         177.268         27.1011         188.195 
        1.16584          176.25         26.7613         187.757 
        1.17197         175.096         26.4268         186.547 
        1.17811         173.042          26.097         185.182 
        1.18424         172.372         25.7738         184.093 
        1.19038          171.29         25.4552         183.573 
        1.19652         169.797         25.1421         181.877 
        1.20267         168.629         24.8342         181.523 
        1.20881         168.027         24.5316         180.369 
        1.21495         166.777         24.2346         179.206 
        1.22108         165.547         23.9425         178.287 
         1.2272         164.587         23.6559         177.677 
        1.23334         163.255         23.3734          176.59 
        1.23949         162.922         23.0948         175.504 
        1.24562         161.334         22.8216         174.201 
        1.25174         160.695         22.5532         173.425 
        1.25789         159.464         22.2883         172.314 
        1.26402         158.462         22.0281         171.731 
        1.27014         157.593         21.7727         170.759 
        1.27628          156.66         21.5206          170.36 
        1.28244         155.453          21.272         169.213 
        1.28858          154.56         21.0277         168.454 
        1.29471         153.463         20.7877         167.574 
        1.30084         152.704         20.5518         166.274 
        1.30697         151.624         20.3191         165.458 
        1.31312         151.257         20.0897         164.629 
        1.31925         149.983         19.8646           163.9 
        1.32537         149.407         19.6432         163.019 
        1.33151         148.035         19.4243         162.288 
        1.33765         147.533          19.209         161.466 
        1.34378         146.451         18.9973         160.525 
        1.34992         145.543         18.7886         159.695 
        1.35606         144.633         18.5827         158.711 
         1.3622         143.542         18.3802         158.341 
        1.36833         143.066         18.1812         157.396 
        1.37445         142.159         17.9853         156.366 
        1.38059          140.85         17.7917         155.777 
        1.38675         139.792         17.6004         154.805 
        1.39288         139.217         17.4127         154.309 
        1.39901         138.636         17.2279         153.469 
        1.40515         137.419         17.0453         152.504 
         1.4113         136.936         16.8654         151.655 
        1.41742         135.818         16.6888         150.978 
        1.42355          134.89         16.5144         150.283 
         1.4297         134.121          16.342         149.498 
        1.43585         133.573         16.1721         149.017 
        1.44198         132.654         16.0053         148.309 
        1.44809         132.163         15.8412         147.368 
        1.45423         131.122         15.6787         146.633 
        1.46036         130.516         15.5188          145.91 
        1.46649         129.492         15.3611         145.273 
        1.47263         129.115         15.2055         144.599 
        1.47877         127.829         15.0521         143.582 
        1.48491         127.251         14.9006         142.946 
        1.49104         126.461         14.7515         142.433 
        1.49718         125.376         14.6043         141.779 
        1.50333         124.763         14.4589          140.89 
        1.50947          123.87         14.3157         140.208 
         1.5156         123.311         14.1747         139.746 
        1.52172         122.676         14.0356          139.19 
        1.52787         121.761         13.8981         138.342 
          1.534          121.29         13.7626         137.673 
        1.54013         120.919         13.6291         137.216 
        1.54627          119.77         13.4971         136.622 
        1.55241         119.185         13.3668          135.87 
        1.55855          118.31         13.2384         135.108 
        1.56467         117.732          13.112         134.476 
         1.5708         117.364          12.987         133.792 
        1.57695         116.458         12.8633         133.169 
        1.58308         115.632         12.7416          132.69 
        1.58922         114.915         12.6214         132.091 
        1.59535         114.156         12.5028         131.411 
         1.6015         113.506         12.3855         130.857 
        1.60764         112.908         12.2698         130.235 
        1.61376         112.303         12.1559         129.539 
        1.61989         111.641         12.0433         129.076 
        1.62604         111.235         11.9319         128.307 
        1.63218         110.103          11.822         127.614 
        1.63831         109.607         11.7138         127.207 
        1.64444         109.288         11.6068         126.647 
        1.65059         108.253         11.5009         126.054 
        1.65673         107.723         11.3965          125.39 
        1.66285         107.345         11.2937          124.86 
        1.66898         106.556         11.1921         124.489 
        1.67512         105.662         11.0915         123.821 
        1.68127         105.327         10.9921         123.206 
         1.6874         104.613         10.8941         122.708 
        1.69353         103.861         10.7974         122.155 
        1.69967         103.498         10.7016         121.632 
        1.70581         102.585          10.607         121.042 
        1.71193         102.287          10.514         120.441 
        1.71806         101.675         10.4218         119.991 
        1.72421         100.886         10.3306         119.527 
        1.73035         100.554         10.2405         118.994 
        1.73649         100.017         10.1516         118.361 
        1.74262         99.2195         10.0638         117.618 
        1.74876         98.5122         9.97694         117.102 
        1.75489         98.1394         9.89131         116.755 
        1.76101         97.7465         9.80671         116.346 
        1.76715         97.2082         9.72298         115.757 
        1.77329         96.6286         9.64013         115.226 
        1.77943         95.7901         9.55821         114.798 
        1.78557         95.1658         9.47736         114.332 
        1.79171         94.6546         9.39743         113.716 
        1.79785         94.0919         9.31841         113.139 
        1.80399         93.5571         9.24031         112.776 
        1.81012         93.1227         9.16321         112.333 
        1.81625         92.3968         9.08703         111.786 
        1.82239         92.0333         9.01159         111.277 
        1.82853         91.5191         8.93705         110.829 
        1.83466          91.031         8.86342         110.325 
        1.84078         90.6296          8.7907         109.809 
        1.84692         89.8811         8.71867         109.415 
        1.85306         89.2686         8.64736         108.912 
         1.8592         88.7259         8.57696         108.369 
        1.86533         88.1836         8.50739         107.962 
        1.87147         87.8699          8.4385         107.483 
        1.87761         87.4161         8.37035         106.982 
