# k  (h/Mpc)    Pcb(k)  (Mpc/h)^3    Pcb_linear(k) (Mpc/h)^3    Pcb_NL(k) (Mpc/h)^3   ShotnoiseSubtracted = false
     0.00783031         23770.8         23913.6         23684.1 
       0.013688         25910.5         26694.5         26476.7 
       0.019231         24244.5         24656.5         24456.2 
      0.0249154         20923.5         20761.5         20610.3 
      0.0312784           16210         16290.1         16201.3 
      0.0375637         12687.4         12826.1         12789.6 
      0.0433917         10706.9         10674.3         10633.3 
      0.0492413         9335.79          9357.5         9325.78 
      0.0555754            8566         8523.36         8497.37 
      0.0619321         7706.86         7920.84         7891.45 
       0.067871         7228.78         7314.98         7296.78 
      0.0738098         6580.87          6568.2         6497.29 
      0.0800417         5746.45         5675.72            5662 
      0.0862327         4887.49         4806.06          4895.4 
      0.0921407         4262.33          4106.2         4227.74 
      0.0982031          3809.8         3579.31         3776.43 
       0.104506         3388.06         3232.94         3471.82 
       0.110769         3198.83         3039.15         3213.83 
       0.116806         3097.03         2922.99         3058.64 
       0.122832         2941.67         2809.51         2928.92 
       0.129052         2749.19         2648.64         2750.68 
       0.135211         2622.85         2434.65         2547.57 
       0.141259         2356.97         2192.41         2352.35 
       0.147318         2135.89         1953.03         2169.81 
       0.153489         1959.28         1744.71         1948.53 
       0.159709         1860.78         1588.14         1822.83 
       0.165845         1710.45         1485.61         1751.89 
       0.171974         1670.68         1421.26         1663.42 
       0.178125         1620.71         1375.15         1621.57 
       0.184229         1499.53         1328.83         1545.94 
        0.19034         1470.28         1269.48         1470.16 
       0.196428         1413.87         1194.48         1389.78 
       0.202534         1308.58          1108.8         1320.26 
       0.208729         1272.41         1021.34         1230.63 
       0.214876         1197.14          943.71          1188.8 
       0.220989         1130.57         881.283         1141.83 
       0.227147         1095.18         834.151         1100.52 
        0.23329         1050.59         799.653         1069.96 
       0.239377         1043.98         772.458          1027.8 
       0.245482         991.002         746.613         983.643 
       0.251667         954.497         717.753         957.283 
       0.257832          933.23         684.829         915.627 
       0.263955         884.858         649.031         879.561 
       0.270079         853.479         612.638         847.653 
        0.27624          816.08         578.336         814.556 
       0.282372         801.747         548.448         793.822 
        0.28843         784.895         523.815         774.118 
       0.294538         746.913         503.324         749.496 
       0.300721         730.744         485.611         727.434 
        0.30691         710.875         469.244         715.653 
       0.313033         680.142          453.02         689.612 
       0.319153         671.644         436.086         668.736 
       0.325316         659.519          418.31         651.877 
        0.33145         641.716         400.484         626.567 
       0.337538         618.087         383.417         611.653 
       0.343633         602.768         367.591         602.763 
       0.349808         588.387         353.237         590.652 
       0.355968         576.381         340.521         577.168 
       0.362074         554.409         329.227         565.054 
       0.368217         550.901         318.681         549.047 
       0.374374         542.268         308.501         536.167 
       0.380519         520.605         298.445         522.728 
       0.386598         515.308         288.475         516.857 
       0.392688         500.753         278.582         501.976 
        0.39888         490.153         268.783         491.518 
       0.405048         477.202         259.477         481.495 
       0.411186         477.007         250.831         470.741 
       0.417313         468.899         242.822         462.148 
       0.423458         457.605         235.355         453.942 
       0.429607         443.047         228.353         445.999 
       0.435692         436.551         221.737          433.47 
       0.441815         428.679         215.274           429.6 
       0.447964         420.274         208.938         423.065 
       0.454126         415.057         202.733         410.724 
       0.460267         408.392         196.706         408.037 
       0.466387         398.281         190.914         400.974 
        0.47254         394.862         185.356         393.601 
       0.478662         385.894         180.104         385.799 
       0.484765         379.762         175.128         379.852 
       0.490885         377.258         170.379         372.656 
       0.497035         367.141         165.817         367.937 
       0.503198         366.067         161.416         362.974 
       0.509342         358.772         157.161         356.534 
       0.515458         351.461         153.042         352.234 
       0.521598         348.363         149.034         347.237 
       0.527764         341.469          145.14         343.908 
       0.533884         337.059         141.412         338.958 
           0.54          333.65         137.825         332.971 
       0.546137         327.014         134.363         328.814 
       0.552299          324.95         131.024         323.833 
       0.558452           319.2         127.821         319.977 
       0.564573         317.905         124.746         317.086 
       0.570708         311.604         121.763         313.031 
       0.576825         306.417         118.878         307.132 
       0.582926         305.251         116.086         304.545 
       0.589034          298.81         113.375         300.352 
       0.595184         296.745         110.733         295.515 
       0.601379         291.479          108.16         291.987 
       0.607522         285.697         105.692         287.391 
       0.613639         284.624         103.315         286.942 
       0.619772         283.004         101.007         284.811 
       0.625918         277.084         98.7666         279.473 
       0.632068         275.683         96.5938         276.894 
       0.638161         272.364         94.5063          274.55 
         0.6443         268.164          92.466         270.996 
       0.650464         265.832         90.4785          265.91 
       0.656582         262.308         88.5635         264.244 
       0.662703          261.54         86.7031         261.744 
       0.668861         256.025         84.8854         260.236 
       0.675024         255.052         83.1183         257.579 
       0.681124         250.093         81.4196         253.356 
       0.687237         249.268         79.7653         250.677 
       0.693381         245.072         78.1499         248.088 
       0.699536           244.6          76.577         246.331 
       0.705665         240.993         75.0547         242.473 
       0.711789          238.16         73.5757         241.398 
       0.717957         236.738         72.1269         240.139 
        0.72409         233.401         70.7255         236.749 
       0.730186         233.722           69.37         234.101 
       0.736317         229.598         68.0429         232.459 
       0.742472         227.897         66.7458         230.194 
       0.748622         226.149         65.4838         227.679 
        0.75476         224.043         64.2574         227.659 
       0.760888         222.051         63.0643         224.205 
       0.767043         218.907          61.897         222.053 
       0.773185         216.481         60.7619         220.457 
       0.779291         215.256         59.6617         217.996 
       0.785407          213.57         58.5874          216.23 
       0.791564         212.071         57.5329         214.314 
       0.797719         208.754          56.505         212.538 
       0.803834         208.268         55.5089          211.34 
       0.809972         205.246         54.5334           209.4 
       0.816124         203.305         53.5794         207.285 
       0.822261         201.483         52.6508         206.363 
       0.828378         200.532         51.7472         204.263 
       0.834502         197.732         50.8641         202.632 
       0.840667         197.326         49.9959         200.662 
       0.846816         194.519         49.1506         199.374 
       0.852925         194.291         48.3303         197.972 
       0.859047         191.398          47.527         196.281 
       0.865192         190.649         46.7394         194.265 
       0.871341         188.941         45.9693         193.048 
       0.877463         187.418         45.2201         191.977 
       0.883569         186.528         44.4895         191.567 
       0.889708         184.926         43.7714         188.945 
       0.895864         182.211         43.0674         187.943 
       0.902008         181.065         42.3803         186.013 
       0.908149         179.085         41.7088         184.667 
       0.914301         178.297         41.0507         183.133 
       0.920448         176.663         40.4076         182.179 
       0.926574         175.153         39.7805         180.689 
       0.932687         174.805         39.1681         179.324 
       0.938823         173.029         38.5664         178.787 
       0.944975         172.627         37.9761         177.076 
       0.951105         170.476         37.4003          175.87 
       0.957225          169.09         36.8375         174.532 
       0.963368         168.842         36.2844         173.396 
       0.969511         166.572         35.7427         172.205 
       0.975621         164.387          35.215         171.168 
       0.981748         164.163         34.6966         170.263 
       0.987916         163.074         34.1855         168.884 
        0.99406         161.542         33.6866           167.7 
        1.00019         160.634         33.1987         166.441 
        1.00632         159.567          32.721         165.209 
        1.01246         158.301          32.252         163.791 
        1.01859          156.66          31.793         163.093 
        1.02471         155.441         31.3435         162.141 
        1.03085         154.798         30.9012         161.243 
        1.03698         153.906         30.4684         160.624 
        1.04314         152.923         30.0421         159.242 
        1.04929         151.687         29.6249         157.985 
        1.05541         151.489         29.2174         157.257 
        1.06154         149.857         28.8165         156.549 
        1.06769         148.866         28.4225         155.448 
        1.07382         147.007         28.0373         154.573 
        1.07993         146.673           27.66         153.638 
        1.08607         146.092         27.2882         152.362 
        1.09222         144.464         26.9228         151.607 
        1.09836         143.536         26.5646         150.683 
        1.10449          142.94         26.2133         150.166 
        1.11063         141.633          25.868         148.942 
        1.11677          140.57         25.5291          147.95 
         1.1229         140.186         25.1968         147.051 
        1.12903         138.411         24.8702         146.172 
        1.13518         137.744         24.5491         145.473 
        1.14131          137.14         24.2339         144.462 
        1.14745         135.935         23.9244         143.411 
        1.15359         135.108         23.6202         142.937 
        1.15973         134.412         23.3212         142.055 
        1.16584         133.561         23.0288         141.457 
        1.17197         132.867          22.741         140.638 
        1.17811         131.407         22.4572          139.62 
        1.18424         130.845         22.1791         138.741 
        1.19038         130.056         21.9049         138.473 
        1.19652         128.674         21.6354         137.184 
        1.20267          128.07         21.3706          136.78 
        1.20881         127.259         21.1102         135.816 
        1.21495         126.773         20.8545         135.097 
        1.22108         125.636         20.6032         134.261 
         1.2272         125.325         20.3566         133.685 
        1.23334          124.05         20.1135         133.077 
        1.23949          123.58         19.8737         132.218 
        1.24562         122.602         19.6386         131.132 
        1.25174         122.191         19.4076         130.461 
        1.25789          121.16         19.1797         129.685 
        1.26402         120.405         18.9558         129.336 
        1.27014         119.791          18.736         128.596 
        1.27628         119.341         18.5191         128.316 
        1.28244          118.15         18.3051         127.403 
        1.28858         117.439         18.0949         126.758 
        1.29471         116.515         17.8884         126.023 
        1.30084         116.081         17.6854         125.127 
        1.30697         115.322         17.4852         124.465 
        1.31312         114.836         17.2878          123.73 
        1.31925         113.709         17.0941         123.352 
        1.32537         113.342         16.9035         122.723 
        1.33151         112.226         16.7152         122.049 
        1.33765         112.059         16.5298         121.506 
        1.34378         111.324         16.3477         120.883 
        1.34992         110.451         16.1681         120.186 
        1.35606         109.949         15.9909         119.419 
         1.3622         109.272         15.8167         119.039 
        1.36833         108.672         15.6455         118.298 
        1.37445         107.807         15.4768         117.596 
        1.38059          107.19         15.3102          116.95 
        1.38675         106.526         15.1456         116.355 
        1.39288         105.839         14.9841         115.816 
        1.39901          105.13         14.8251         115.305 
        1.40515         104.589         14.6679         114.724 
         1.4113         104.121         14.5132         114.176 
        1.41742         103.603         14.3612         113.637 
        1.42355         102.645         14.2111         112.867 
         1.4297         102.072         14.0628         112.481 
        1.43585         101.855         13.9166         111.982 
        1.44198         101.058          13.773         111.574 
        1.44809         100.419         13.6318         110.875 
        1.45423         99.9511          13.492         110.155 
        1.46036          99.286         13.3544         109.663 
        1.46649         98.4527         13.2187         109.279 
        1.47263         98.2684         13.0848         108.781 
        1.47877         97.5112         12.9528         108.046 
        1.48491         96.7612         12.8224         107.504 
        1.49104          96.303          12.694          107.18 
        1.49718          95.647         12.5674         106.536 
        1.50333          94.994         12.4422         105.959 
        1.50947         94.7243         12.3191          105.53 
         1.5156           94.03         12.1977         105.076 
        1.52172         93.4245          12.078         104.555 
        1.52787         93.0007         11.9597         104.033 
          1.534         92.5087         11.8431         103.573 
        1.54013         92.1168         11.7282         103.162 
        1.54627         91.3829         11.6146         102.687 
        1.55241          90.906         11.5025         102.124 
        1.55855         90.1854          11.392         101.572 
        1.56467         89.7751         11.2833         101.179 
         1.5708         89.3729         11.1756         100.668 
        1.57695         88.8728         11.0693         100.171 
        1.58308         88.0356         10.9645         99.8144 
        1.58922         87.6984         10.8611         99.3536 
        1.59535         87.2758          10.759         98.9264 
         1.6015         86.6092         10.6581         98.4235 
        1.60764         86.2589         10.5585          97.938 
        1.61376          85.935         10.4605         97.5939 
        1.61989         85.3072         10.3636         97.1342 
        1.62604         85.0052         10.2678         96.4465 
        1.63218         84.1993         10.1732         95.9642 
        1.63831         83.9973           10.08         95.7608 
        1.64444         83.2546         9.98798         95.3361 
        1.65059          82.776         9.89688         94.8537 
        1.65673          82.429         9.80702         94.3714 
        1.66285         82.2495         9.71852         93.9763 
        1.66898         81.5726         9.63108         93.6334 
        1.67512         80.7506         9.54455         93.1418 
        1.68127          80.635           9.459         92.7761 
         1.6874         80.3194         9.37469         92.4208 
        1.69353         79.5637         9.29145         91.8583 
        1.69967         79.2648         9.20903         91.4964 
        1.70581         78.6942         9.12765         91.1273 
        1.71193         78.4135         9.04756          90.663 
        1.71806         77.6569         8.96825         90.2704 
        1.72421          77.294         8.88975         89.9642 
        1.73035         76.9847         8.81227         89.5895 
        1.73649         76.5656         8.73573         89.0944 
        1.74262         75.9616         8.66016         88.6071 
        1.74876         75.5742         8.58543         88.2332 
        1.75489         75.4255         8.51175          87.919 
        1.76101          74.948         8.43894         87.5916 
        1.76715         74.4471         8.36689         87.2394 
        1.77329         74.0315          8.2956         86.8101 
        1.77943         73.5208          8.2251         86.3982 
        1.78557         73.1487         8.15553         86.0723 
        1.79171         72.7327         8.08675         85.6741 
        1.79785         72.3231         8.01875         85.2424 
        1.80399           71.82         7.95154         84.8964 
        1.81012         71.4951          7.8852         84.5993 
        1.81625         70.9316         7.81964         84.2161 
        1.82239         70.7343         7.75473         83.7831 
        1.82853          70.258         7.69058         83.4404 
        1.83466         69.8428         7.62722          83.056 
        1.84078         69.5584         7.56464         82.6809 
        1.84692          69.171         7.50266         82.4654 
        1.85306         68.8007          7.4413         82.0276 
         1.8592          68.492         7.38072         81.5429 
        1.86533         67.9868         7.32084         81.3498 
        1.87147          67.587         7.26156         81.0612 
