# k  (h/Mpc)    P(k)  (Mpc/h)^3    P_linear(k)  (Mpc/h)^3     P_NL(k)  ShotnoiseSubtracted = false
     0.00783031         1764.35         1779.33         1763.47 
       0.013688         1959.78         1983.29         1971.08 
       0.019231         1822.72         1831.54         1821.78 
      0.0249154         1547.03         1542.17         1537.46 
      0.0312784         1212.58         1210.05         1211.09 
      0.0375637         952.656         952.753         954.497 
      0.0433917         796.341         792.924         794.662 
      0.0492413         695.941         695.119         696.711 
      0.0555754         635.929         633.162         633.594 
      0.0619321         584.239         588.409          588.21 
       0.067871         542.895         543.406         542.817 
      0.0738098         488.303         487.934         487.099 
      0.0800417         423.483         421.636         421.513 
      0.0862327         358.282         357.032         357.929 
      0.0921407         306.289         305.042         306.367 
      0.0982031         268.704         265.901         267.793 
       0.104506         240.691          240.17         242.236 
       0.110769         226.472         225.775         227.183 
       0.116806         218.845         217.146         218.047 
       0.122832          208.98         208.716         209.416 
       0.129052         197.621         196.765         197.256 
       0.135211         182.568         180.868         181.521 
       0.141259         163.957         162.873         163.907 
       0.147318         145.756          145.09         146.724 
       0.153489         130.893         129.614         131.117 
       0.159709         119.847         117.982         119.701 
       0.165845         110.975         110.366         112.365 
       0.171974         107.545         105.585         107.247 
       0.178125         103.687          102.16         103.844 
       0.184229         99.4877         98.7187         100.197 
        0.19034         95.7252           94.31         95.6167 
       0.196428         90.1153         88.7379         89.8605 
       0.202534         82.8229         82.3729          83.663 
       0.208729         77.3991         75.8751         77.2997 
       0.214876         72.1119         70.1079         71.9161 
       0.220989         66.6593         65.4706         67.3751 
       0.227147         63.8779         61.9693         63.8036 
        0.23329          61.268         59.4064         61.2941 
       0.239377         59.3418          57.386         59.1753 
       0.245482          57.096         55.4659         56.9773 
       0.251667         54.5588         53.3218          54.914 
       0.257832          52.721         50.8758         52.3855 
       0.263955         49.5836         48.2166         49.6941 
       0.270079         46.8589         45.5131          47.032 
        0.27624         44.1956         42.9648         44.4694 
       0.282372         42.0802         40.7444         42.3873 
        0.28843         40.7399         38.9143         40.5738 
       0.294538         39.0192         37.3921         39.0093 
       0.300721         37.3694         36.0762         37.7016 
        0.30691         36.4395         34.8603         36.4638 
       0.313033         35.0369         33.6549         35.1528 
       0.319153         34.1254         32.3969          33.889 
       0.325316         32.3853         31.0763          32.607 
        0.33145         31.0182         29.7521         31.2307 
       0.337538         29.8098         28.4842         29.9418 
       0.343633         28.7537         27.3085         28.7772 
       0.349808         27.5907         26.2422         27.7746 
       0.355968         26.5872         25.2973         26.9236 
       0.362074          25.954         24.4584          25.987 
       0.368217         25.0909          23.675         25.0801 
       0.374374         24.4338         22.9186         24.3519 
       0.380519         23.4439         22.1717         23.5407 
       0.386598         22.6238         21.4309         22.8134 
       0.392688         21.8079          20.696         22.0831 
        0.39888         21.2467          19.968         21.3568 
       0.405048         20.5978         19.2766         20.6032 
       0.411186         19.8977         18.6343         20.0442 
       0.417313         19.2645         18.0393         19.4032 
       0.423458         18.6208         17.4847         18.8549 
       0.429607         18.2392         16.9644         18.2857 
       0.435692         17.8169          16.473         17.7967 
       0.441815         17.1526         15.9928         17.3464 
       0.447964         16.5313         15.5221         16.8149 
       0.454126         16.2083         15.0611         16.3321 
       0.460267         15.8815         14.6134         15.9304 
       0.466387         15.3795         14.1831         15.4393 
        0.47254         15.0437         13.7702         15.0412 
       0.478662         14.5451           13.38         14.6282 
       0.484765         14.1703         13.0103         14.2276 
       0.490885          13.725         12.6575         13.9338 
       0.497035         13.3819         12.3186         13.6086 
       0.503198         13.1134         11.9917         13.1996 
       0.509342         12.6842         11.6755         12.8923 
       0.515458         12.4444         11.3696         12.6225 
       0.521598          12.144         11.0718         12.2411 
       0.527764         11.9062         10.7825         11.9259 
       0.533884         11.5293         10.5056         11.6414 
           0.54         11.2929         10.2391         11.3683 
       0.546137         10.9343         9.98184         11.1332 
       0.552299         10.7104         9.73386         10.8156 
       0.558452          10.438         9.49586         10.5821 
       0.564573         10.2465         9.26745         10.3966 
       0.570708         10.0029         9.04588         10.1531 
       0.576825         9.80447         8.83152         9.91681 
       0.582926         9.56793         8.62407         9.71077 
       0.589034         9.36165         8.42271         9.53564 
       0.595184         9.21374         8.22641         9.25531 
       0.601379         8.94467         8.03525          9.1266 
       0.607522         8.75324         7.85194         8.90377 
       0.613639         8.56026         7.67532         8.71207 
       0.619772         8.39554         7.50386         8.56224 
       0.625918           8.208         7.33742         8.36643 
       0.632068         8.08245           7.176         8.18072 
       0.638161         7.89057         7.02092         8.02277 
         0.6443         7.73076         6.86934         7.84776 
       0.650464         7.54161          6.7217         7.72958 
       0.656582         7.44736         6.57943         7.57002 
       0.662703         7.31052         6.44122         7.40986 
       0.668861          7.1089         6.30618         7.29616 
       0.675024          6.9724          6.1749         7.12989 
       0.681124         6.93609          6.0487         6.99163 
       0.687237         6.76267         5.92581         6.84362 
       0.693381         6.58324         5.80579         6.70961 
       0.699536         6.51506         5.68894         6.59769 
       0.705665         6.37285         5.57585         6.51333 
       0.711789         6.23355         5.46598         6.37053 
       0.717957         6.09471         5.35835         6.24447 
        0.72409         6.02092         5.25423         6.15012 
       0.730186         5.96072         5.15354         6.02836 
       0.736317         5.80546         5.05494         5.91461 
       0.742472         5.73058         4.95858         5.83854 
       0.748622         5.62236         4.86483         5.73518 
        0.75476          5.4695         4.77372          5.6258 
       0.760888         5.41917         4.68508         5.53832 
       0.767043          5.2869         4.59837         5.45151 
       0.773185          5.2096         4.51403         5.36175 
       0.779291         5.16829          4.4323         5.27682 
       0.785407         5.05609         4.35249         5.17914 
       0.791564         4.97077         4.27415         5.09859 
       0.797719         4.87123         4.19779          5.0068 
       0.803834         4.81909         4.12379         4.92619 
       0.809972         4.71814         4.05132         4.86876 
       0.816124         4.64831         3.98044         4.77489 
       0.822261         4.57897         3.91146         4.69684 
       0.828378         4.50727         3.84433         4.62811 
       0.834502         4.43442         3.77872         4.55473 
       0.840667         4.37988         3.71423         4.48299 
       0.846816         4.28049         3.65143         4.42297 
       0.852925         4.23237         3.59048         4.35962 
       0.859047         4.15987         3.53081         4.29995 
       0.865192         4.09371          3.4723         4.23008 
       0.871341         4.03295         3.41509         4.17237 
       0.877463         3.96478         3.35942          4.1035 
       0.883569         3.92029         3.30515         4.04478 
       0.889708         3.85349          3.2518         3.98966 
       0.895864         3.79655          3.1995          3.9274 
       0.902008          3.7327         3.14846         3.87645 
       0.908149         3.67729         3.09857         3.81371 
       0.914301         3.63068         3.04968         3.77336 
       0.920448         3.58563          3.0019          3.7064 
       0.926574         3.54594         2.95531         3.66587 
       0.932687         3.47979         2.90982         3.59062 
       0.938823         3.41587         2.86512         3.56037 
       0.944975         3.39217         2.82127         3.50819 
       0.951105         3.31938         2.77849         3.45449 
       0.957225         3.29658         2.73668          3.4181 
       0.963368         3.24363         2.69559         3.36555 
       0.969511         3.19908         2.65534         3.32546 
       0.975621         3.14898         2.61614         3.27297 
       0.981748         3.09547         2.57763         3.22903 
       0.987916         3.06206         2.53966         3.19291 
        0.99406         3.02797          2.5026         3.15529 
        1.00019          2.9906         2.46635         3.11953 
        1.00632         2.95738         2.43086         3.07338 
        1.01246         2.91099         2.39602         3.04091 
        1.01859         2.87103         2.36192         2.99567 
        1.02471         2.82326         2.32853         2.94611 
        1.03085         2.79812         2.29567         2.91366 
        1.03698         2.76136         2.26351         2.88341 
        1.04314         2.72372         2.23184         2.84446 
        1.04929          2.6855         2.20085         2.81116 
        1.05541         2.64848         2.17058         2.78076 
        1.06154         2.62195          2.1408         2.74603 
        1.06769         2.60008         2.11153         2.71655 
        1.07382         2.55089         2.08291         2.68031 
        1.07993         2.51841         2.05488         2.64437 
        1.08607         2.49876         2.02726         2.62013 
        1.09222         2.45897         2.00011         2.58458 
        1.09836         2.44688          1.9735         2.54825 
        1.10449         2.39163          1.9474         2.52458 
        1.11063         2.37405         1.92175         2.49201 
        1.11677         2.34739         1.89657         2.46533 
         1.1229          2.3181         1.87189         2.44059 
        1.12903         2.29491         1.84762         2.41525 
        1.13518          2.2591         1.82377         2.38405 
        1.14131         2.23152         1.80035          2.3522 
        1.14745         2.20321         1.77736         2.32505 
        1.15359         2.17571         1.75476          2.3064 
        1.15973         2.15023         1.73255         2.27715 
        1.16584         2.13254         1.71083         2.25418 
        1.17197         2.10018         1.68944         2.22855 
        1.17811         2.07561         1.66836         2.20324 
        1.18424         2.05207          1.6477         2.17627 
        1.19038         2.03389         1.62733         2.15361 
        1.19652         2.01171         1.60731         2.13476 
        1.20267         1.99209         1.58763         2.10707 
        1.20881         1.96416         1.56829         2.08588 
        1.21495         1.94411          1.5493         2.06826 
        1.22108          1.9217         1.53062         2.04424 
         1.2272         1.89495          1.5123         2.01827 
        1.23334         1.88425         1.49424         2.00229 
        1.23949         1.85595         1.47643         1.98554 
        1.24562         1.83898         1.45896         1.96365 
        1.25174         1.82637         1.44181         1.93848 
        1.25789         1.79368         1.42487         1.91731 
        1.26402         1.77849         1.40824         1.89692 
        1.27014         1.75955         1.39191         1.88176 
        1.27628         1.73921         1.37579         1.86191 
        1.28244         1.72212          1.3599         1.84143 
        1.28858         1.70693         1.34428         1.82326 
        1.29471         1.68263         1.32894         1.80575 
        1.30084         1.66522         1.31386         1.79211 
        1.30697         1.65359         1.29898         1.76957 
        1.31312         1.63354         1.28432         1.75205 
        1.31925         1.61591         1.26993         1.74154 
        1.32537          1.6017         1.25577         1.72377 
        1.33151         1.58217         1.24178          1.7058 
        1.33765         1.56684         1.22801         1.68936 
        1.34378         1.55607         1.21448         1.67377 
        1.34992         1.53918         1.20114         1.65696 
        1.35606         1.52318         1.18798         1.63865 
         1.3622         1.50831         1.17503         1.62298 
        1.36833           1.489         1.16231         1.61435 
        1.37445         1.47232         1.14979         1.59776 
        1.38059         1.45842         1.13741          1.5809 
        1.38675         1.44442         1.12518         1.56357 
        1.39288         1.43644         1.11318         1.55458 
        1.39901         1.41545         1.10136         1.53894 
        1.40515         1.40404         1.08969         1.52394 
         1.4113         1.39256         1.07819          1.5119 
        1.41742         1.37578          1.0669         1.49795 
        1.42355         1.36263         1.05576         1.48105 
         1.4297         1.35063         1.04473          1.4727 
        1.43585         1.33912         1.03387         1.46049 
        1.44198         1.32397         1.02321         1.44403 
        1.44809         1.31397         1.01271         1.43305 
        1.45423         1.29972         1.00233         1.41804 
        1.46036         1.28984        0.992108         1.40593 
        1.46649         1.27391        0.982027         1.39575 
        1.47263         1.26689        0.972077         1.38365 
        1.47877         1.25685         0.96227         1.36948 
        1.48491         1.23819        0.952583         1.36016 
        1.49104         1.22984         0.94305         1.34539 
        1.49718         1.21903         0.93364         1.33569 
        1.50333         1.20618        0.924344         1.32496 
        1.50947         1.19508        0.915193         1.31227 
         1.5156         1.18547         0.90618         1.30266 
        1.52172         1.17388        0.897288         1.29449 
        1.52787         1.16518        0.888497         1.27843 
          1.534         1.15467        0.879835         1.26901 
        1.54013         1.14419        0.871297         1.25891 
        1.54627         1.13217        0.862857         1.24691 
        1.55241         1.12148        0.854527         1.23751 
        1.55855           1.113        0.846319         1.22625 
        1.56467         1.10475        0.838242         1.21818 
         1.5708         1.09317        0.830247         1.20818 
        1.57695         1.08188        0.822344         1.19718 
        1.58308         1.07095        0.814563          1.1888 
        1.58922         1.06625        0.806877         1.17941 
        1.59535         1.05381        0.799293         1.17095 
         1.6015         1.04474        0.791796          1.1611 
        1.60764         1.03862        0.784398         1.15155 
        1.61376         1.02554        0.777116         1.14397 
        1.61989         1.01676        0.769921         1.13473 
        1.62604         1.00802          0.7628         1.12558 
        1.63218          1.0022        0.755774         1.11758 
        1.63831         0.99423        0.748853         1.10902 
        1.64444        0.983948        0.742016          1.0989 
        1.65059         0.97811        0.735248         1.09102 
        1.65673        0.966505        0.728571         1.08233 
        1.66285        0.958645        0.721997         1.07309 
        1.66898        0.950852        0.715501         1.06499 
        1.67512        0.941914        0.709072         1.05767 
        1.68127        0.935248        0.702717         1.05147 
         1.6874        0.929537        0.696453         1.04475 
        1.69353        0.919567         0.69027         1.03553 
        1.69967        0.911106        0.684147         1.02614 
        1.70581        0.907169        0.678101         1.01943 
        1.71193        0.893891        0.672151         1.01347 
        1.71806        0.891008        0.666259         1.00417 
        1.72421        0.884594        0.660427        0.996396 
        1.73035        0.873985        0.654671        0.989739 
        1.73649        0.869266        0.648985        0.982636 
        1.74262        0.861647        0.643371        0.975492 
        1.74876        0.854766        0.637819        0.969731 
        1.75489        0.847316        0.632345        0.962743 
        1.76101        0.839192        0.626936        0.953692 
        1.76715        0.835492        0.621584        0.946758 
        1.77329        0.827485        0.616287         0.94065 
        1.77943        0.821398         0.61105        0.934026 
        1.78557        0.815547        0.605881        0.927153 
        1.79171        0.809184        0.600772        0.920433 
        1.79785        0.803619         0.59572        0.914142 
        1.80399        0.796036        0.590727        0.908057 
        1.81012        0.790221        0.585798        0.901103 
        1.81625        0.781813        0.580928        0.894344 
        1.82239        0.777455        0.576105        0.888798 
        1.82853        0.772112         0.57134        0.883916 
        1.83466         0.76464        0.566633         0.87856 
        1.84078        0.758882        0.561984        0.872302 
        1.84692        0.752864        0.557379        0.865449 
        1.85306        0.748309        0.552821        0.858279 
         1.8592         0.74115         0.54832        0.852574 
        1.86533         0.73692        0.543872        0.848368 
        1.87147        0.731556        0.539468        0.842304 
        1.87761        0.725836        0.535111        0.836343 
