# k  (h/Mpc)    Pcb(k)  (Mpc/h)^3    Pcb_linear(k) (Mpc/h)^3    Pcb_NL(k) (Mpc/h)^3   ShotnoiseSubtracted = false
     0.00783031         22431.8         22567.7         22352.7 
       0.013688         24463.5         25184.4         24982.2 
       0.019231         22884.3         23260.1         23075.3 
      0.0249154           19737         19585.2         19447.8 
      0.0312784         15298.3           15367         15289.3 
      0.0375637         11974.5         12099.1         12068.3 
      0.0433917         10102.1         10069.3         10034.4 
      0.0492413          8808.5          8827.1         8800.53 
      0.0555754         8082.58         8040.22         8017.94 
      0.0619321         7276.58         7471.85         7446.08 
       0.067871         6824.62         6900.33         6884.38 
      0.0738098          6208.6         6195.88         6132.95 
      0.0800417         5420.43         5353.99         5342.27 
      0.0862327         4608.03         4533.62         4614.39 
      0.0921407         4014.02         3873.43         3983.07 
      0.0982031         3585.12         3376.41         3553.95 
       0.104506          3188.1         3049.68         3264.66 
       0.110769         3009.74         2866.87         3023.52 
       0.116806         2915.29          2757.3         2878.79 
       0.122832         2768.28         2650.25          2757.4 
       0.129052         2589.75         2498.49          2589.8 
       0.135211         2467.17         2296.63         2398.08 
       0.141259         2216.62         2068.13         2211.69 
       0.147318         2005.63         1842.32         2037.77 
       0.153489         1838.18         1645.81          1828.9 
       0.159709         1743.46         1498.12         1708.97 
       0.165845         1601.65          1401.4         1641.28 
       0.171974         1565.74         1340.69         1558.03 
       0.178125         1518.02          1297.2         1518.74 
       0.184229         1406.27          1253.5         1448.64 
        0.19034          1377.5         1197.52         1377.62 
       0.196428         1323.91         1126.77         1301.21 
       0.202534         1223.24         1045.95         1235.25 
       0.208729         1189.15         963.442         1151.06 
       0.214876         1118.63         890.213         1111.03 
       0.220989         1054.25         831.326            1066 
       0.227147         1021.63         786.865         1026.32 
        0.23329         980.058         754.323         997.615 
       0.239377         973.238          728.67         958.237 
       0.245482          923.49         704.289         916.788 
       0.251667          889.11         677.066         892.254 
       0.257832         869.672         646.008         853.042 
       0.263955         823.657         612.239         818.925 
       0.270079         793.423          577.91         788.861 
        0.27624         758.368         545.552         757.514 
       0.282372         744.147         517.358         737.378 
        0.28843         729.497         494.121          718.32 
       0.294538         693.414         474.792         695.594 
       0.300721         677.789         458.083         675.167 
        0.30691         660.066         442.644         663.606 
       0.313033         630.724         427.339         639.358 
       0.319153         622.388         411.365         619.915 
       0.325316         611.037         394.597         603.879 
        0.33145         594.459         377.781         580.248 
       0.337538         572.147         361.682         565.996 
       0.343633         557.542         346.753          557.76 
       0.349808         543.842         333.213         546.181 
       0.355968         532.849         321.218         533.786 
       0.362074         512.089         310.564          522.11 
       0.368217         508.867         300.616         506.808 
       0.374374         500.681         291.013         494.825 
       0.380519         480.277         281.527         482.146 
       0.386598         475.167         272.122         476.766 
       0.392688         461.686         262.789          462.47 
        0.39888         451.428         253.547          452.99 
       0.405048         439.544         244.768         443.901 
       0.411186         439.276         236.612         433.369 
       0.417313         431.786         229.057         425.152 
       0.423458         421.217         222.013          417.72 
       0.429607         407.574         215.408         410.121 
       0.435692         401.513         209.168         398.614 
       0.441815         394.232         203.071         394.842 
       0.447964         386.005         197.094         388.528 
       0.454126         381.365          191.24          377.17 
       0.460267         374.945         185.555          374.62 
       0.466387         365.703         180.092         367.982 
        0.47254         362.279         174.849         361.155 
       0.478662         354.045         169.894         353.861 
       0.484765          348.29           165.2         348.054 
       0.490885         345.721         160.721         341.627 
       0.497035         336.582         156.417         337.133 
       0.503198         335.564         152.266         332.424 
       0.509342          328.71         148.252         326.667 
       0.515458         321.966         144.367         322.645 
       0.521598         318.532         140.585         317.749 
       0.527764          312.67         136.913         314.637 
       0.533884         308.817         133.396         310.029 
           0.54          305.31         130.012         304.359 
       0.546137          298.94         126.746         300.536 
       0.552299         297.108         123.597          295.86 
       0.558452         291.766         120.575         292.206 
       0.564573         290.448         117.675          289.59 
       0.570708         284.544         114.861         285.973 
       0.576825         279.722         112.139         280.332 
       0.582926         278.608         109.505         277.841 
       0.589034         272.652         106.948         274.118 
       0.595184         270.822         104.456         269.492 
       0.601379         266.078         102.028         266.267 
       0.607522          260.43          99.701         262.128 
       0.613639         259.476         97.4583         261.652 
       0.619772         258.103         95.2812         259.574 
       0.625918         252.573         93.1677         254.541 
       0.632068         251.002         91.1181         251.954 
       0.638161         248.311          89.149         250.045 
         0.6443         244.277         87.2243           246.8 
       0.650464         242.019         85.3495         241.979 
       0.656582         238.789         83.5431         240.409 
       0.662703         238.113         81.7881         238.112 
       0.668861         232.866         80.0734         236.587 
       0.675024         231.964         78.4065         234.141 
       0.681124         227.803         76.8041         230.227 
       0.687237         226.857         75.2436         227.816 
       0.693381         222.788         73.7197         225.387 
       0.699536         222.372          72.236          223.72 
       0.705665         219.145            70.8         220.298 
       0.711789         216.282         69.4049          219.32 
       0.717957         215.097         68.0382         218.008 
        0.72409         211.963         66.7162         215.053 
       0.730186         212.385         65.4376         212.623 
       0.736317         208.702         64.1857         210.935 
       0.742472         206.998         62.9621         208.741 
       0.748622         205.115         61.7717         206.559 
        0.75476          203.64         60.6148         206.401 
       0.760888         201.507         59.4894         203.159 
       0.767043         198.479         58.3882          201.37 
       0.773185         196.287         57.3174          199.87 
       0.779291         195.245         56.2796         197.548 
       0.785407         193.618         55.2662         195.909 
       0.791564         192.195         54.2715         194.111 
       0.797719          189.12         53.3019         192.546 
       0.803834         188.886         52.3623          191.42 
       0.809972         186.144         51.4421         189.653 
       0.816124         183.991         50.5421         187.756 
       0.822261         182.449         49.6662         186.817 
       0.828378         181.639         48.8137         184.868 
       0.834502         179.218         47.9807          183.31 
       0.840667         178.913         47.1618         181.529 
       0.846816          176.07         46.3644         180.383 
       0.852925         175.816         45.5905         179.094 
       0.859047         173.372         44.8328         177.646 
       0.865192         172.639         44.0899         175.718 
       0.871341         171.108         43.3634           174.6 
       0.877463         169.584         42.6566         173.623 
       0.883569         168.869         41.9675         173.142 
       0.889708         167.465         41.2901         170.809 
       0.895864         164.945          40.626         169.844 
       0.902008          163.84         39.9779         168.133 
       0.908149         162.127         39.3444         166.921 
       0.914301         161.206         38.7237          165.52 
       0.920448         160.057         38.1169         164.578 
       0.926574         158.501         37.5254         163.195 
       0.932687         158.183         36.9477         162.095 
       0.938823         156.607         36.3802         161.416 
       0.944975         156.196         35.8233         159.905 
       0.951105         154.147         35.2802         158.776 
       0.957225          152.97         34.7492         157.573 
       0.963368         152.686         34.2275         156.543 
       0.969511         150.657         33.7165         155.371 
       0.975621         148.575         33.2187         154.538 
       0.981748         148.452         32.7298          153.64 
       0.987916         147.474         32.2476         152.414 
        0.99406         146.079          31.777         151.297 
        1.00019         145.405         31.3168          150.14 
        1.00632         144.272         30.8661         149.059 
        1.01246           143.1         30.4237         147.728 
        1.01859         141.612         29.9907          147.11 
        1.02471         140.547         29.5667          146.28 
        1.03085         139.921         29.1495         145.464 
        1.03698         139.157         28.7412         144.889 
        1.04314          138.25          28.339         143.606 
        1.04929         137.199         27.9455         142.516 
        1.05541         136.923         27.5611         141.859 
        1.06154         135.412          27.183         141.144 
        1.06769         134.543         26.8113         140.163 
        1.07382         132.947         26.4479         139.384 
        1.07993         132.544          26.092         138.515 
        1.08607         132.175         25.7413         137.382 
        1.09222         130.559         25.3966         136.702 
        1.09836         129.783         25.0587         135.808 
        1.10449         129.235         24.7273         135.355 
        1.11063         127.914         24.4016         134.283 
        1.11677         127.157         24.0819         133.338 
         1.1229         126.596         23.7684         132.553 
        1.12903         125.042         23.4603         131.768 
        1.13518         124.476         23.1575         131.136 
        1.14131         124.013         22.8601          130.14 
        1.14745         122.788         22.5681         129.274 
        1.15359         122.116         22.2812         128.796 
        1.15973         121.436         21.9992         128.035 
        1.16584         120.634         21.7234         127.356 
        1.17197         120.023         21.4518         126.709 
        1.17811         118.818         21.1841         125.784 
        1.18424         118.216         20.9218         124.954 
        1.19038         117.546         20.6631         124.726 
        1.19652         116.282          20.409         123.616 
        1.20267         115.698         20.1591         123.167 
        1.20881         114.927         19.9135         122.288 
        1.21495         114.605         19.6723         121.707 
        1.22108         113.534         19.4352         120.927 
         1.2272         113.362         19.2026         120.343 
        1.23334         112.146         18.9733         119.862 
        1.23949         111.601         18.7471          119.09 
        1.24562         110.738         18.5253         118.084 
        1.25174         110.484         18.3074         117.471 
        1.25789         109.545         18.0924         116.776 
        1.26402         108.806         17.8812         116.476 
        1.27014         108.236         17.6739         115.817 
        1.27628         107.846         17.4693         115.539 
        1.28244         106.776         17.2675         114.702 
        1.28858          106.21         17.0691         114.099 
        1.29471         105.352         16.8744         113.442 
        1.30084         104.923         16.6828         112.632 
        1.30697         104.184          16.494         112.045 
        1.31312         103.784         16.3078         111.396 
        1.31925         102.655          16.125         111.061 
        1.32537         102.351         15.9453         110.526 
        1.33151         101.441         15.7676          109.88 
        1.33765         101.242         15.5928         109.382 
        1.34378         100.614          15.421         108.843 
        1.34992         99.8174         15.2516          108.18 
        1.35606          99.424         15.0844         107.533 
         1.3622         98.7859         14.9201          107.14 
        1.36833         98.1814         14.7585         106.463 
        1.37445          97.446         14.5995         105.905 
        1.38059         96.8953         14.4423         105.219 
        1.38675         96.3679         14.2871         104.748 
        1.39288         95.7047         14.1347         104.184 
        1.39901         95.0173         13.9847          103.78 
        1.40515         94.6098         13.8365         103.315 
         1.4113         94.0827         13.6904         102.829 
        1.41742         93.7611         13.5471         102.326 
        1.42355         92.9167         13.4055         101.614 
         1.4297         92.3621         13.2656         101.286 
        1.43585          92.113         13.1277         100.772 
        1.44198          91.465         12.9923          100.47 
        1.44809         90.7951          12.859         99.8354 
        1.45423         90.4522         12.7271          99.145 
        1.46036         89.7436         12.5974         98.7153 
        1.46649         89.0877         12.4694         98.3995 
        1.47263         88.8316          12.343         97.9602 
        1.47877         88.2602         12.2185         97.2904 
        1.48491         87.5943         12.0955         96.7923 
        1.49104         87.1818         11.9744         96.5365 
        1.49718         86.5899          11.855         95.9014 
        1.50333         85.9703         11.7369         95.3927 
        1.50947         85.8272         11.6207          95.042 
         1.5156         85.1307         11.5063         94.6156 
        1.52172         84.5153         11.3934         94.1068 
        1.52787         84.2239         11.2818         93.6685 
          1.534         83.7936         11.1718          93.274 
        1.54013         83.3126         11.0634         92.8921 
        1.54627         82.7578         10.9562         92.4604 
        1.55241         82.3535         10.8504         91.9503 
        1.55855         81.6782         10.7462         91.4512 
        1.56467         81.2806         10.6436           91.13 
         1.5708         80.8228         10.5421         90.6697 
        1.57695         80.4447         10.4418         90.2119 
        1.58308         79.7512          10.343         89.9047 
        1.58922         79.4358         10.2454          89.485 
        1.59535         79.1454         10.1491         89.1058 
         1.6015         78.4741         10.0539         88.6339 
        1.60764          78.131         9.95995          88.194 
        1.61376         77.9356         9.86748         87.9218 
        1.61989         77.3086         9.77612          87.499 
        1.62604         77.0257          9.6857         86.8485 
        1.63218         76.3168         9.59649         86.4225 
        1.63831         76.1262         9.50861         86.2777 
        1.64444         75.4565         9.42179          85.889 
        1.65059          75.035         9.33585         85.4451 
        1.65673         74.7626         9.25108         85.0083 
        1.66285          74.537          9.1676         84.6505 
        1.66898         73.8693         9.08512         84.3368 
        1.67512         73.2419         9.00349         83.9022 
        1.68127         73.0713         8.92279         83.5984 
         1.6874         72.8479         8.84326         83.2823 
        1.69353         72.1333         8.76474         82.7369 
        1.69967         71.8401           8.687         82.4218 
        1.70581         71.3918         8.61023         82.1124 
        1.71193         71.0824         8.53467         81.7031 
        1.71806         70.4336         8.45987         81.3526 
        1.72421         70.1111         8.38581         81.0519 
        1.73035         69.7909         8.31272         80.7136 
        1.73649         69.4305         8.24052         80.3009 
        1.74262         68.9304         8.16924          79.869 
        1.74876         68.5463         8.09875         79.5334 
        1.75489         68.4634         8.02924         79.2461 
        1.76101         68.0032         7.96056         78.9378 
        1.76715         67.5624          7.8926         78.6173 
        1.77329         67.1716         7.82534         78.2273 
        1.77943          66.732         7.75884         77.8509 
        1.78557         66.4492         7.69321         77.5589 
        1.79171         66.0174         7.62833         77.2116 
        1.79785         65.7139         7.56419         76.8323 
        1.80399         65.2319         7.50079         76.5144 
        1.81012         64.8992         7.43821         76.2282 
        1.81625         64.4865         7.37636         75.8933 
        1.82239         64.2359         7.31513         75.5275 
        1.82853          63.835         7.25462         75.2053 
        1.83466         63.4837         7.19485         74.8587 
        1.84078         63.1671         7.13582         74.5391 
        1.84692          62.864         7.07735         74.3407 
        1.85306         62.5982         7.01947         73.9484 
         1.8592         62.2988         6.96232         73.5209 
        1.86533         61.8042         6.90584         73.3409 
        1.87147         61.4496         6.84992         73.0759 
