# k  (h/Mpc)    Pcb(k)  (Mpc/h)^3    Pcb_linear(k) (Mpc/h)^3    Pcb_NL(k) (Mpc/h)^3   ShotnoiseSubtracted = false
     0.00783031           17283         17392.3         17230.8 
       0.013688         18896.1         19392.2         19246.2 
       0.019231           17658         17907.2         17777.1 
      0.0249154         15189.1         15076.9         14986.8 
      0.0312784           11797         11829.3         11787.7 
      0.0375637         9236.83         9313.64          9300.6 
      0.0433917         7781.96         7751.03         7735.68 
      0.0492413          6786.2         6794.82         6784.29 
      0.0555754         6227.04         6189.09         6178.47 
      0.0619321         5622.07         5751.56         5737.54 
       0.067871          5269.7         5311.61         5302.76 
      0.0738098         4781.17         4769.36         4732.58 
      0.0800417         4170.74         4121.29         4115.87 
      0.0862327         3539.52          3489.8         3541.23 
      0.0921407         3069.32         2981.62         3050.82 
      0.0982031         2732.75         2599.03         2710.05 
       0.104506         2430.23         2347.52         2481.35 
       0.110769         2293.37          2206.8         2303.12 
       0.116806         2224.62         2122.46         2196.79 
       0.122832         2110.96         2040.06         2106.12 
       0.129052         1982.43         1923.24         1978.93 
       0.135211          1877.1         1767.86         1830.75 
       0.141259         1685.42         1591.96         1680.47 
       0.147318         1516.23         1418.14         1540.73 
       0.153489         1384.54         1266.88         1380.06 
       0.159709          1305.6         1153.19         1283.46 
       0.165845         1197.31         1078.74         1228.53 
       0.171974         1173.62         1032.01         1165.67 
       0.178125         1135.23         998.531         1135.65 
       0.184229         1057.79         964.898         1085.77 
        0.19034         1032.19         921.802         1032.69 
       0.196428         989.221         867.342         972.476 
       0.202534         908.685         805.129         920.285 
       0.208729         881.188         741.619         856.724 
       0.214876         828.667          685.25         823.337 
       0.220989         774.684         639.921         786.427 
       0.227147         751.664         605.697         753.815 
        0.23329         721.263         580.647          731.85 
       0.239377         713.565         560.901         703.178 
       0.245482         676.713         542.133          672.12 
       0.251667         650.216         521.178         653.946 
       0.257832         637.144         497.271         624.299 
       0.263955          600.58         471.277         597.826 
       0.270079         575.519         444.852         574.614 
        0.27624         549.368         419.944          549.97 
       0.282372         536.191         398.241         532.999 
        0.28843         527.988         380.354         517.014 
       0.294538         500.285         365.476         500.866 
       0.300721          486.84         352.614         486.474 
        0.30691          476.05          340.73         476.143 
       0.313033         453.126         328.949         458.455 
       0.319153         445.775         316.652         444.176 
       0.325316         436.699         303.745         431.722 
        0.33145          424.36         290.801         414.421 
       0.337538          407.56         278.408          402.76 
       0.343633         395.643         266.917         396.433 
       0.349808          384.89         256.494         387.252 
       0.355968          377.08         247.261         378.419 
       0.362074         362.238         239.059          368.77 
       0.368217         359.317         231.402         356.862 
       0.374374         352.204          224.01         347.989 
       0.380519         337.308         216.708         338.498 
       0.386598         332.793         209.469         334.199 
       0.392688         323.051         202.285         323.254 
        0.39888         315.191          195.17         316.472 
       0.405048          306.99         188.412         310.525 
       0.411186         306.035         182.134         301.771 
       0.417313           300.3         176.319          295.02 
       0.423458         292.558         170.897         289.764 
       0.429607         282.955         165.812         283.955 
       0.435692         278.389         161.009         276.137 
       0.441815         273.137         156.316         272.919 
       0.447964         266.006         151.715         267.766 
       0.454126         262.716         147.209         259.798 
       0.460267         258.193         142.833         257.672 
       0.466387         251.619         138.627         252.579 
        0.47254         248.723         134.592         247.669 
       0.478662         242.553         130.778         242.527 
       0.484765         238.448         127.164         237.366 
       0.490885         235.685         123.716         233.458 
       0.497035         230.395         120.404         229.993 
       0.503198         229.093         117.208         226.306 
       0.509342         223.791         114.118         222.684 
       0.515458          219.43         111.128          219.67 
       0.521598         215.243         108.217         215.346 
       0.527764         212.647          105.39         212.902 
       0.533884         210.312         102.683          209.67 
           0.54          206.75         100.078         205.472 
       0.546137         201.826         97.5639         202.938 
       0.552299         200.133         95.1398         199.253 
       0.558452         196.566         92.8137         196.316 
       0.564573         195.542         90.5812          194.49 
       0.570708         190.819         88.4153         192.064 
       0.576825         187.721         86.3205         187.873 
       0.582926         186.388         84.2927         185.773 
       0.589034         182.607         82.3245         183.621 
       0.595184          181.08          80.406         179.905 
       0.601379         178.118         78.5374         177.921 
       0.607522         173.648         76.7458           175.1 
       0.613639         172.863         75.0195         174.237 
       0.619772         171.644         73.3436          172.35 
       0.625918         168.576         71.7168         169.012 
       0.632068         165.952         70.1391         166.636 
       0.638161         164.903         68.6233         165.696 
         0.6443         162.289         67.1418         163.474 
       0.650464         159.872         65.6986         160.013 
       0.656582         158.006         64.3081         158.782 
       0.662703          157.19         62.9572         157.001 
       0.668861         153.541         61.6373         155.576 
       0.675024         153.008         60.3542         153.759 
       0.681124          150.79         59.1207         151.348 
       0.687237         149.592         57.9195          149.68 
       0.693381         146.561         56.7465         147.748 
       0.699536          146.11         55.6044         146.382 
       0.705665         144.164          54.499         144.713 
       0.711789         141.804         53.4251         143.595 
       0.717957         140.837         52.3731         142.169 
        0.72409           138.7         51.3555         140.688 
       0.730186         139.079         50.3712         139.134 
       0.736317         136.952         49.4076         137.455 
       0.742472         135.048         48.4657         135.947 
       0.748622         133.164         47.5494         134.516 
        0.75476          133.17         46.6588         133.726 
       0.760888          131.31         45.7925         131.579 
       0.767043          128.98         44.9449          130.68 
       0.773185         127.462         44.1206         129.639 
       0.779291          126.71         43.3218         127.964 
       0.785407         125.531         42.5417         126.624 
       0.791564         124.367          41.776         125.554 
       0.797719         122.258         41.0297         124.743 
       0.803834         122.437         40.3064         123.516 
       0.809972         120.798          39.598         122.331 
       0.816124          118.62         38.9053          121.27 
       0.822261         117.955          38.231         120.268 
       0.828378         117.327         37.5749         118.855 
       0.834502         116.206         36.9336         117.656 
       0.840667         115.662         36.3033         116.768 
       0.846816         113.587         35.6895         115.945 
       0.852925         113.085         35.0938          115.01 
       0.859047         111.751         34.5105         114.043 
       0.865192         111.078         33.9386         112.732 
       0.871341          110.15         33.3794         111.784 
       0.877463         109.007         32.8354         111.126 
       0.883569         108.751         32.3049         110.536 
       0.889708         107.753         31.7835         109.221 
       0.895864          106.31         31.2722         108.532 
       0.902008         105.189         30.7734         107.439 
       0.908149         104.162         30.2857         106.594 
       0.914301         103.293         29.8079         105.662 
       0.920448         103.316         29.3409         104.918 
       0.926574         101.584         28.8856         104.004 
       0.932687         101.339         28.4409         103.425 
       0.938823         100.543          28.004         102.485 
       0.944975         99.9061         27.5754         101.706 
       0.951105         98.7363         27.1573          100.86 
       0.957225         98.0798         26.7486         100.111 
       0.963368         97.3575          26.347         99.3311 
       0.969511         96.4338         25.9536         98.4583 
       0.975621          94.972         25.5704         98.2014 
       0.981748         94.8374         25.1941         97.4738 
       0.987916         94.1623         24.8229         96.6741 
        0.99406         93.4122         24.4607         95.8306 
        1.00019         92.9195         24.1064         95.0634 
        1.00632         91.9301         23.7595         94.3438 
        1.01246         91.2523          23.419         93.4393 
        1.01859         90.5798         23.0856         93.1502 
        1.02471         89.9968         22.7593         92.6769 
        1.03085         89.3043         22.4381         92.0205 
        1.03698         88.5322         22.1238         91.5025 
        1.04314         88.1006         21.8143         90.6586 
        1.04929         87.5543         21.5114         90.1543 
        1.05541          86.954         21.2154         89.6713 
        1.06154         85.9034         20.9243           89.01 
        1.06769         85.4225         20.6383         88.4685 
        1.07382         84.8644         20.3585         87.9229 
        1.07993         84.4378         20.0846         87.3079 
        1.08607         84.0854         19.8146         86.6907 
        1.09222         83.0733         19.5493         86.2279 
        1.09836          82.577         19.2892         85.5593 
        1.10449         82.1258         19.0341         85.2165 
        1.11063         81.2897         18.7834         84.4385 
        1.11677         81.0673         18.5373         83.8665 
         1.1229         80.0764          18.296         83.4698 
        1.12903         79.3947         18.0588         82.8487 
        1.13518         78.8569         17.8257         82.3868 
        1.14131         78.6966         17.5968         81.6915 
        1.14745          78.038         17.3721         81.3236 
        1.15359         77.4882         17.1512         80.9156 
        1.15973         77.0948         16.9341         80.4874 
        1.16584         76.4135         16.7218         79.7524 
        1.17197          76.046         16.5128         79.5293 
        1.17811         75.5087         16.3067         78.9232 
        1.18424         74.9022         16.1048         78.3725 
        1.19038         74.5206         15.9057         78.1191 
        1.19652         74.0461           15.71         77.6031 
        1.20267         73.4213         15.5177         77.1737 
        1.20881         72.8659         15.3286         76.5717 
        1.21495         72.6612          15.143         76.2645 
        1.22108         72.0503         14.9605         75.8372 
         1.2272         71.9322         14.7814         75.3126 
        1.23334         71.3935         14.6049         75.1048 
        1.23949         70.7238         14.4308         74.5434 
        1.24562         70.1561         14.2601         73.8965 
        1.25174          70.241         14.0923         73.5494 
        1.25789         69.4826         13.9268         73.1352 
        1.26402         69.0808         13.7642         72.9001 
        1.27014          68.462         13.6047         72.5582 
        1.27628         68.2353         13.4471         72.2301 
        1.28244         67.9207         13.2918         71.6431 
        1.28858         67.4855         13.1391         71.2238 
        1.29471          67.014         12.9892          70.895 
        1.30084         66.4698         12.8418         70.3406 
        1.30697         66.0838         12.6964         70.0669 
        1.31312         65.8292         12.5531         69.7513 
        1.31925         65.1723         12.4124         69.3881 
        1.32537         64.8461          12.274         69.1019 
        1.33151         64.7446         12.1373          68.679 
        1.33765         64.1434         12.0027         68.3263 
        1.34378         63.8762         11.8704         67.9763 
        1.34992         63.4361         11.7401         67.5287 
        1.35606         63.2467         11.6114         67.1909 
         1.3622         62.7995         11.4849         66.9076 
        1.36833         62.3553         11.3605         66.4605 
        1.37445         62.0196         11.2381         66.2583 
        1.38059         61.5783         11.1171         65.7122 
        1.38675         61.3019         10.9976         65.4322 
        1.39288         60.8546         10.8803         64.9903 
        1.39901         60.6161         10.7648         64.7895 
        1.40515         60.1174         10.6507         64.6198 
         1.4113         59.7936         10.5384         64.3422 
        1.41742         59.6399          10.428         63.9394 
        1.42355         59.2494         10.3191         63.5338 
         1.4297          58.816         10.2113         63.3017 
        1.43585         58.6607         10.1052         62.8335 
        1.44198         58.0995         10.0009         62.6754 
        1.44809         57.7273         9.89836         62.3443 
        1.45423         57.7122         9.79685         61.9398 
        1.46036          57.192         9.69695         61.6541 
        1.46649         56.8033         9.59841          61.454 
        1.47263         56.4059         9.50117         61.1923 
        1.47877         56.2644         9.40531         60.7519 
        1.48491         55.8171         9.31063         60.4985 
        1.49104         55.5511         9.21745         60.3198 
        1.49718         55.1715         9.12548         59.8907 
        1.50333         54.9249         9.03461         59.6033 
        1.50947         54.7146         8.94517         59.3768 
         1.5156         54.4067         8.85708         59.0842 
        1.52172         53.9031         8.77017          58.778 
        1.52787         53.7796         8.68425         58.5147 
          1.534         53.4849         8.59958         58.3006 
        1.54013         53.1933         8.51613          58.033 
        1.54627         52.8016         8.43363         57.7215 
        1.55241         52.7012         8.35222         57.4339 
        1.55855         52.1478         8.27199          57.182 
        1.56467         51.7976         8.19304         56.9453 
         1.5708          51.619          8.1149         56.6679 
        1.57695         51.3286         8.03766         56.4227 
        1.58308         51.1729          7.9616         56.1846 
        1.58922         50.8512         7.88648         55.8993 
        1.59535         50.7376         7.81235         55.6884 
         1.6015         50.2839         7.73908         55.3859 
        1.60764         50.0251         7.66677         55.0983 
        1.61376         49.8862          7.5956         54.9665 
        1.61989          49.449         7.52527         54.7199 
        1.62604         49.3327         7.45567         54.3378 
        1.63218         48.9265           7.387         54.0756 
        1.63831         48.7762         7.31935         53.9547 
        1.64444          48.522         7.25252         53.6951 
        1.65059         48.2069         7.18637         53.4284 
        1.65673         47.9901         7.12111          53.155 
        1.66285         47.6556         7.05685         52.9485 
        1.66898         47.3306         6.99336            52.8 
        1.67512         47.0929         6.93053         52.5172 
        1.68127         46.9102         6.86841         52.2661 
         1.6874         46.7312         6.80719         52.0656 
        1.69353         46.4373         6.74675         51.8238 
        1.69967         46.1829          6.6869          51.597 
        1.70581         45.9445         6.62781         51.3912 
        1.71193         45.6714         6.56965         51.1918 
        1.71806         45.4504         6.51207          50.981 
        1.72421         45.1824         6.45506          50.748 
        1.73035         44.9599          6.3988         50.5037 
        1.73649         44.7162         6.34322         50.2755 
        1.74262         44.4979         6.28835         50.0883 
        1.74876         44.2906         6.23409         49.8813 
        1.75489         44.1146         6.18059         49.6467 
        1.76101         43.8669         6.12772         49.4089 
        1.76715         43.5952         6.07541         49.1895 
        1.77329         43.3847         6.02364         49.0025 
        1.77943         43.1567         5.97245         48.8209 
        1.78557         43.0211         5.92193         48.6215 
        1.79171         42.5963         5.87199         48.4256 
        1.79785         42.5737         5.82261         48.2123 
        1.80399         42.3244         5.77381          47.973 
        1.81012         42.0175         5.72564         47.7931 
        1.81625         41.8754         5.67803         47.6127 
        1.82239         41.5363          5.6309         47.4102 
        1.82853         41.4547         5.58432         47.2471 
        1.83466          41.162         5.53831         47.0374 
        1.84078         40.8936         5.49287         46.8143 
        1.84692          40.827         5.44787          46.687 
        1.85306         40.7036         5.40331         46.4865 
         1.8592         40.3848         5.35932         46.2364 
        1.86533         40.1906         5.31584         46.0595 
        1.87147         39.9109          5.2728         45.8517 
