# k  (h/Mpc)    P(k)  (Mpc/h)^3    P_linear(k)  (Mpc/h)^3     P_NL(k)  ShotnoiseSubtracted = false
     0.00783031         7480.18         7534.57         7467.13 
       0.013688         8240.45         8396.01         8340.17 
       0.019231         7682.67         7752.49         7705.62 
      0.0249154         6565.49         6527.12         6500.37 
      0.0312784         5123.39         5121.18         5117.66 
      0.0375637         4016.82         4032.11         4034.89 
      0.0433917         3371.81         3355.64         3358.12 
      0.0492413         2942.51         2941.69         2944.76 
      0.0555754         2696.78         2679.46         2679.54 
      0.0619321         2454.37         2490.05         2488.05 
       0.067871         2293.21         2299.59          2297.5 
      0.0738098         2069.83         2064.83         2057.55 
      0.0800417         1800.82         1784.26         1783.97 
      0.0862327         1524.15         1510.87         1522.76 
      0.0921407         1309.79         1290.86         1306.83 
      0.0982031         1157.39         1125.22         1149.84 
       0.104506          1031.4         1016.33         1045.36 
       0.110769         972.141         955.412         975.897 
       0.116806         943.205         918.898         934.379 
       0.122832          896.24         883.225         897.035 
       0.129052         846.842         832.649         843.986 
       0.135211         790.667         765.379         778.694 
       0.141259         709.515         689.227          707.77 
       0.147318         632.341         613.974         640.596 
       0.153489         572.267         548.484         572.465 
       0.159709         531.334         499.264         526.707 
       0.165845         487.953         467.032         499.181 
       0.171974         478.009           446.8         474.572 
       0.178125         460.678         432.306         461.009 
       0.184229         436.192         417.745         443.272 
        0.19034         422.335         399.089         422.183 
       0.196428         400.975         375.509         396.265 
       0.202534         366.483         348.575         371.734 
       0.208729         349.889         321.078         345.134 
       0.214876         328.406         296.673         326.467 
       0.220989         303.136         277.049          308.45 
       0.227147         293.596         262.233         293.218 
        0.23329         281.881         251.388         283.258 
       0.239377         275.597         242.838          272.94 
       0.245482         262.663         234.713         261.212 
       0.251667         251.053          225.64         253.219 
       0.257832         245.839         215.289         241.478 
       0.263955         230.047         204.036         229.933 
       0.270079         218.422         192.596          219.29 
        0.27624         207.487         181.812         208.287 
       0.282372         199.748         172.416         200.237 
        0.28843         196.536         164.672         192.679 
       0.294538         186.695          158.23           186.1 
       0.300721         179.377         152.662         180.654 
        0.30691         176.035         147.517         175.342 
       0.313033         167.768         142.416         168.737 
       0.319153         164.317         137.092         163.094 
       0.325316         158.344         131.504         157.899 
        0.33145         152.671           125.9         151.387 
       0.337538         146.586         120.535         145.808 
       0.343633         141.487          115.56         141.905 
       0.349808          136.68         111.048         137.935 
       0.355968         133.034         107.049         134.375 
       0.362074         129.484         103.499         130.084 
       0.368217         126.548         100.184         125.508 
       0.374374         122.964         96.9835         122.061 
       0.380519         117.726          93.823         118.305 
       0.386598         114.929         90.6879         115.442 
       0.392688         110.982         87.5781         112.059 
        0.39888         108.779         84.4976         108.744 
       0.405048         105.772          81.572         106.102 
       0.411186         103.646         78.8538         103.323 
       0.417313         100.777          76.336         100.152 
       0.423458         98.1083         73.9889         97.8539 
       0.429607         95.5884         71.7874          95.492 
       0.435692         93.9419          69.708          93.025 
       0.441815         90.9869         67.6758         91.3336 
       0.447964         87.8332          65.684         88.8746 
       0.454126          86.176         63.7332          86.183 
       0.460267         85.2079         61.8387         84.9497 
       0.466387         82.7501         60.0178         82.6906 
        0.47254         81.6318         58.2706         80.9327 
       0.478662         78.6568         56.6195         79.1985 
       0.484765         77.2413          55.055         76.8987 
       0.490885         75.3157         53.5623         75.6832 
       0.497035         74.4321         52.1281         74.3519 
       0.503198         72.8071         50.7446         72.6075 
       0.509342          70.804         49.4067         71.2688 
       0.515458         69.4702         48.1121         70.1687 
       0.521598         67.6579         46.8518         68.1476 
       0.527764         66.8861         45.6279         66.5779 
       0.533884         66.0704          44.456         65.4889 
           0.54         64.1471         43.3281         64.2292 
       0.546137         62.4621         42.2396         63.2401 
       0.552299         61.2248         41.1902          61.616 
       0.558452         60.0697         40.1831         60.3587 
       0.564573         59.5802         39.2166         59.6007 
       0.570708         57.8247          38.279         58.5516 
       0.576825         57.1406         37.3719         57.3357 
       0.582926         56.3486          36.494         56.2852 
       0.589034         55.1455         35.6419         55.6239 
       0.595184         54.2845         34.8113         54.4583 
       0.601379         53.0195         34.0023         53.7032 
       0.607522         51.8364         33.2266         52.4096 
       0.613639          51.336         32.4792         51.7682 
       0.619772         50.2299         31.7537         50.8504 
       0.625918         49.6902         31.0494         50.1363 
       0.632068         48.7279         30.3663         49.2262 
       0.638161         47.8266         29.7101         48.5286 
         0.6443         47.4207         29.0686         47.6335 
       0.650464         46.1884         28.4438         46.6973 
       0.656582         45.9484         27.8418         46.2187 
       0.662703         45.1408         27.2569         45.3379 
       0.668861          44.126         26.6855         44.7959 
       0.675024         43.8442           26.13         43.9674 
       0.681124         43.1827          25.596          43.314 
       0.687237         42.3396         25.0759         42.6794 
       0.693381         41.7362         24.5681         41.9523 
       0.699536         41.2618         24.0736         41.5995 
       0.705665         40.6063          23.595           41.08 
       0.711789         39.9146         23.1301         40.1704 
       0.717957         39.2587         22.6746         39.7836 
        0.72409         38.7968          22.234         39.3411 
       0.730186         38.4965         21.8079         38.7848 
       0.736317         37.7874         21.3907         38.1399 
       0.742472         37.2065         20.9829         37.6555 
       0.748622         36.5976         20.5862         37.1226 
        0.75476         36.1635         20.2007         36.6256 
       0.760888         35.9715         19.8256         36.1115 
       0.767043         35.1515         19.4586         35.8276 
       0.773185         34.6106         19.1018         35.3795 
       0.779291         34.2137         18.7559         34.9193 
       0.785407         33.7867         18.4182         34.3611 
       0.791564         33.6454         18.0867         33.9437 
       0.797719         32.8898         17.7636         33.6941 
       0.803834         32.6952         17.4504         33.1508 
       0.809972         32.2583         17.1437         32.7315 
       0.816124         31.8279         16.8438         32.3977 
       0.822261         31.3235         16.5519         31.9483 
       0.828378         31.1831         16.2678         31.4801 
       0.834502          30.748         15.9902         31.2338 
       0.840667          30.421         15.7173         30.9327 
       0.846816         30.0104         15.4515          30.562 
       0.852925         29.6531         15.1936         30.2346 
       0.859047         29.4744         14.9411         29.8318 
       0.865192         28.9697         14.6935         29.5226 
       0.871341         28.6426         14.4514         29.1975 
       0.877463         28.2958         14.2159         28.8852 
       0.883569         28.1656         13.9862         28.6491 
       0.889708         27.7895         13.7605         28.2919 
       0.895864         27.4783         13.5391         27.9677 
       0.902008         27.1922         13.3232         27.6471 
       0.908149         26.8145          13.112         27.4503 
       0.914301         26.5508         12.9052         27.2283 
       0.920448         26.4045          12.703         26.8419 
       0.926574         25.9669         12.5058          26.543 
       0.932687         25.6807         12.3133         26.3096 
       0.938823         25.3482         12.1242         25.9574 
       0.944975         25.0831         11.9386         25.7406 
       0.951105         24.9005         11.7576         25.5179 
       0.957225         24.6677         11.5806         25.2377 
       0.963368            24.4         11.4068         24.9705 
       0.969511         24.1511         11.2365         24.7042 
       0.975621         23.9412         11.0706         24.5488 
       0.981748         23.6743         10.9076         24.3121 
       0.987916         23.4395         10.7469         24.1046 
        0.99406         23.2095         10.5901          23.819 
        1.00019         22.9861         10.4367         23.5863 
        1.00632          22.807         10.2865         23.3855 
        1.01246         22.5549         10.1391         23.1599 
        1.01859         22.3525          9.9948         23.0254 
        1.02471          22.123         9.85349         22.8172 
        1.03085          21.949         9.71444         22.5507 
        1.03698         21.8031         9.57838         22.3359 
        1.04314         21.5652         9.44436         22.1063 
        1.04929         21.2432         9.31322         21.9778 
        1.05541         21.2129          9.1851         21.8646 
        1.06154         20.9943         9.05908         21.6009 
        1.06769         20.6984         8.93523         21.3887 
        1.07382         20.5599         8.81411         21.2328 
        1.07993         20.4198         8.69552         21.0343 
        1.08607         20.1965         8.57862         20.8833 
        1.09222           20.05         8.46376         20.7312 
        1.09836         19.8437         8.35114         20.5502 
        1.10449         19.7321         8.24071         20.3653 
        1.11063         19.5236         8.13216         20.1677 
        1.11677          19.448          8.0256         19.9868 
         1.1229         19.2244         7.92115         19.8692 
        1.12903         19.0365         7.81847         19.7143 
        1.13518         18.9782         7.71753         19.5384 
        1.14131         18.7741         7.61843         19.3783 
        1.14745         18.5827         7.52113         19.2599 
        1.15359         18.3546         7.42552         19.0594 
        1.15973         18.2968         7.33153         18.9497 
        1.16584          18.127          7.2396         18.7724 
        1.17197          17.931         7.14911         18.6802 
        1.17811         17.8096         7.05989         18.4775 
        1.18424         17.5893         6.97246         18.3412 
        1.19038         17.4996         6.88627         18.2617 
        1.19652         17.3435         6.80156         18.0573 
        1.20267         17.2596         6.71829          17.965 
        1.20881         17.0929         6.63643         17.8326 
        1.21495         17.0358         6.55607         17.7198 
        1.22108         16.9196         6.47705         17.5651 
         1.2272         16.7236         6.39953         17.4763 
        1.23334         16.6461         6.32309         17.3289 
        1.23949         16.5002         6.24773         17.1568 
        1.24562         16.3472         6.17381         17.0629 
        1.25174         16.2464          6.1012         16.9596 
        1.25789         16.1289         6.02954         16.8377 
        1.26402         16.0191         5.95915         16.6837 
        1.27014         15.9085         5.89006         16.5927 
        1.27628         15.7506         5.82186         16.4684 
        1.28244         15.7525         5.75462         16.3982 
        1.28858         15.5423         5.68852         16.2622 
        1.29471         15.4039         5.62361         16.1628 
        1.30084         15.2943         5.55977         16.0692 
        1.30697         15.2147         5.49683         15.9182 
        1.31312         15.0946         5.43478         15.8227 
        1.31925         14.9887         5.37388         15.7276 
        1.32537         14.8578         5.31398         15.6419 
        1.33151         14.7344         5.25477         15.5355 
        1.33765          14.716         5.19651         15.4194 
        1.34378         14.6115         5.13924         15.3412 
        1.34992         14.4579          5.0828         15.2474 
        1.35606         14.3353         5.02709         15.1397 
         1.3622          14.271         4.97231         15.0465 
        1.36833         14.2104         4.91848         14.9728 
        1.37445          14.086         4.86548         14.8606 
        1.38059         13.9711         4.81309         14.7698 
        1.38675         13.9195         4.76136         14.6942 
        1.39288         13.7874         4.71058         14.5846 
        1.39901         13.6806         4.66058         14.4911 
        1.40515         13.6175         4.61118         14.3923 
         1.4113         13.5481         4.56252         14.2974 
        1.41742         13.4588         4.51475         14.2336 
        1.42355         13.3248         4.46758         14.1669 
         1.4297         13.2725         4.42093         14.0431 
        1.43585         13.1772         4.37497         13.9799 
        1.44198         13.1246         4.32985         13.9021 
        1.44809         13.0128         4.28544         13.8268 
        1.45423         12.9373         4.24149         13.7097 
        1.46036         12.8706         4.19824         13.6333 
        1.46649         12.7675         4.15558         13.5839 
        1.47263         12.6832         4.11348         13.5209 
        1.47877         12.5938         4.07198         13.4317 
        1.48491          12.527         4.03098          13.352 
        1.49104         12.4451         3.99064         13.2685 
        1.49718         12.4231         3.95082         13.2054 
        1.50333         12.3397         3.91149         13.1273 
        1.50947         12.2081         3.87276         13.0577 
         1.5156         12.1858         3.83462         12.9931 
        1.52172         12.1028         3.79699         12.9109 
        1.52787         12.0553          3.7598          12.827 
          1.534         11.9537         3.72314          12.761 
        1.54013         11.9179         3.68701         12.6862 
        1.54627         11.8085          3.6513         12.6072 
        1.55241         11.7306         3.61605         12.5432 
        1.55855         11.6716         3.58131         12.4895 
        1.56467         11.5889         3.54713         12.4349 
         1.5708         11.5566          3.5133         12.3569 
        1.57695         11.4869         3.47986         12.2795 
        1.58308         11.3953         3.44693         12.2275 
        1.58922          11.336         3.41441         12.1711 
        1.59535         11.2707         3.38231         12.0923 
         1.6015         11.2159         3.35059         12.0321 
        1.60764         11.1476         3.31929         11.9688 
        1.61376          11.086         3.28847         11.8964 
        1.61989         10.9862         3.25802         11.8677 
        1.62604         10.9394         3.22789         11.8093 
        1.63218         10.8736         3.19816         11.7462 
        1.63831         10.8178         3.16887          11.702 
        1.64444         10.7732         3.13994         11.6394 
        1.65059         10.7058          3.1113         11.5654 
        1.65673         10.6441         3.08305         11.5052 
        1.66285         10.5779         3.05523         11.4587 
        1.66898         10.5247         3.02774         11.4044 
        1.67512         10.5055         3.00053         11.3304 
        1.68127         10.4239         2.97364         11.2834 
         1.6874         10.3839         2.94714         11.2303 
        1.69353         10.2902         2.92097         11.1331 
        1.69967         10.2325         2.89506         11.0991 
        1.70581         10.2062         2.86947         11.0645 
        1.71193          10.138          2.8443         11.0107 
        1.71806         10.0801         2.81936         10.9808 
        1.72421         10.0352         2.79468         10.9195 
        1.73035         9.98133         2.77033         10.8676 
        1.73649         9.90981         2.74627         10.8317 
        1.74262         9.88399         2.72251         10.7511 
        1.74876         9.82993         2.69902         10.6887 
        1.75489         9.76083         2.67585         10.6538 
        1.76101         9.70458         2.65297         10.6176 
        1.76715         9.66579         2.63031          10.561 
        1.77329         9.61511          2.6079         10.4974 
        1.77943         9.57202         2.58574          10.442 
        1.78557         9.54873         2.56387         10.3983 
        1.79171         9.46904         2.54225         10.3587 
        1.79785         9.40754         2.52087          10.318 
        1.80399         9.36017         2.49974         10.2739 
        1.81012         9.32962         2.47888         10.2272 
        1.81625         9.27603         2.45827         10.1856 
        1.82239         9.22556         2.43787         10.1464 
        1.82853         9.18362          2.4177         10.1007 
        1.83466         9.12717         2.39778         10.0578 
        1.84078         9.08246         2.37811         10.0118 
        1.84692         9.05655         2.35862         9.95047 
        1.85306         9.00968         2.33933         9.91212 
         1.8592         8.96778         2.32029          9.8858 
        1.86533         8.92148         2.30147         9.83526 
        1.87147         8.86215         2.28283         9.78159 
        1.87761         8.83067         2.26439         9.74505 
