# k  (h/Mpc)    P(k)  (Mpc/h)^3    P_linear(k)  (Mpc/h)^3     P_NL(k)  ShotnoiseSubtracted = false
     0.00783031         10511.4         10583.9         10488.1 
       0.013688         11546.7         11794.8         11713.1 
       0.019231         10774.1         10890.7         10820.7 
      0.0249154         9229.52          9169.2         9126.25 
      0.0312784         7190.19         7194.09         7182.79 
      0.0375637         5634.05         5664.16         5664.42 
      0.0433917         4735.92         4713.85         4713.39 
      0.0492413         4131.54         4132.33         4133.43 
      0.0555754         3788.97         3763.96          3762.2 
      0.0619321         3437.78         3497.88          3493.5 
       0.067871         3216.66         3230.32         3226.93 
      0.0738098         2908.23         2900.54         2886.78 
      0.0800417         2532.91         2506.42          2505.4 
      0.0862327         2145.33         2122.37         2144.14 
      0.0921407         1848.97         1813.31         1842.42 
      0.0982031         1638.29         1580.64         1626.29 
       0.104506         1458.37         1427.68         1482.08 
       0.110769         1375.25          1342.1         1380.72 
       0.116806         1334.94         1290.81         1320.33 
       0.122832         1267.22         1240.69         1267.11 
       0.129052         1195.44         1169.65         1191.58 
       0.135211         1121.55         1075.15         1100.53 
       0.141259         1006.52         968.178         1003.55 
       0.147318         899.377         862.468         912.595 
       0.153489         816.532         770.472         815.924 
       0.159709         762.502          701.33         753.469 
       0.165845         699.237         656.053         716.824 
       0.171974         686.017         627.633         680.709 
       0.178125         661.737         607.273         662.064 
       0.184229          622.92         586.819         635.378 
        0.19034         604.682         560.611          604.76 
       0.196428         576.191         527.489         567.921 
       0.202534         526.834         489.653         534.497 
       0.208729         506.501         451.027         496.844 
       0.214876          475.97         416.745         472.979 
       0.220989         440.709         389.179         448.596 
       0.227147         427.575         368.366         427.516 
        0.23329         410.477         353.131         413.846 
       0.239377         403.073         341.121         398.315 
       0.245482         383.143         329.708         380.754 
       0.251667          366.82         316.962         369.756 
       0.257832         359.765         302.423         352.636 
       0.263955          337.14         286.615         336.438 
       0.270079         320.943         270.544          321.88 
        0.27624         305.586         255.397         306.488 
       0.282372         295.642         242.198         295.437 
        0.28843         291.605         231.319         284.991 
       0.294538         276.358          222.27         275.741 
       0.300721         266.678         214.449         267.903 
        0.30691         261.704         207.221         260.667 
       0.313033         248.894         200.055         250.828 
       0.319153         244.046         192.577         242.655 
       0.325316         236.951         184.728         235.293 
        0.33145         229.266         176.856         225.671 
       0.337538         220.015         169.319         217.982 
       0.343633         212.541          162.33         213.265 
       0.349808         205.887         155.992         207.699 
       0.355968          201.09         150.375         202.573 
       0.362074          194.63         145.388         196.503 
       0.368217         191.446         140.731         189.749 
       0.374374         186.309         136.235         184.642 
       0.380519         178.422         131.796         179.217 
       0.386598         174.977         127.392         175.667 
       0.392688         169.265         123.023         170.232 
        0.39888         165.618         118.696         165.733 
       0.405048         161.172         114.586         162.352 
       0.411186         159.128         110.768         157.725 
       0.417313         155.253         107.231         153.288 
       0.423458         151.209         103.934         150.055 
       0.429607         146.799         100.842         146.786 
       0.435692         144.257         97.9206         142.911 
       0.441815         140.691         95.0661          140.69 
       0.447964         136.087         92.2681         137.335 
       0.454126         133.721         89.5277         133.132 
       0.460267         132.063         86.8665         131.603 
       0.466387         128.389         84.3087         128.448 
        0.47254         126.796         81.8543          125.75 
       0.478662         122.619          79.535         123.196 
       0.484765         120.555         77.3373         119.798 
       0.490885         118.173         75.2404         117.963 
       0.497035         116.576         73.2258         116.022 
       0.503198         114.639         71.2823         113.693 
       0.509342         111.603         69.4029          111.75 
       0.515458         109.527         67.5844         110.102 
       0.521598          106.69          65.814         107.233 
       0.527764          105.76         64.0948          105.29 
       0.533884         104.633         62.4485         103.678 
           0.54         101.809         60.8641         101.616 
       0.546137         99.3267         59.3351         100.248 
       0.552299          97.642          57.861         97.8793 
       0.558452         95.9769         56.4463         96.0541 
       0.564573         95.3238         55.0885         94.9915 
       0.570708         92.6121         53.7715         93.5113 
       0.576825         91.3927         52.4973         91.4999 
       0.582926         90.3399         51.2641         90.0439 
       0.589034         88.5809         50.0671         89.1046 
       0.595184         87.3448         48.9003           87.21 
       0.601379         85.6257          47.764         86.2125 
       0.607522         83.5769         46.6743         84.4017 
       0.613639         82.8985         45.6244         83.5346 
       0.619772         81.4714         44.6052         82.1978 
       0.625918         80.7602         43.6159         80.9475 
       0.632068         78.7673         42.6564         79.5984 
       0.638161         77.8466         41.7345         78.7775 
         0.6443         77.2145         40.8335         77.4998 
       0.650464           75.36         39.9558         75.8404 
       0.656582          74.925         39.1101         75.2216 
       0.662703          73.872         38.2886         73.9387 
       0.668861         72.2663         37.4858         73.1034 
       0.675024         72.0741         36.7055         71.9424 
       0.681124         70.7733         35.9553         70.9661 
       0.687237         69.7012         35.2248         70.0057 
       0.693381         68.6783         34.5114         68.9162 
       0.699536         67.9892         33.8168         68.2389 
       0.705665         67.0649         33.1446         67.6407 
       0.711789         65.9484         32.4914         66.3916 
       0.717957         65.0601         31.8516         65.6129 
        0.72409         64.2994         31.2328         65.0735 
       0.730186         63.9685         30.6342         64.2966 
       0.736317         63.0079         30.0481         63.2544 
       0.742472         61.7791         29.4753         62.5595 
       0.748622         60.8442          28.918         61.7259 
        0.75476         60.7704         28.3764         60.8995 
       0.760888         60.1086         27.8496         60.0444 
       0.767043         58.8527         27.3341         59.6877 
       0.773185         57.9587         26.8328         59.1182 
       0.779291         57.4074         26.3469         58.3378 
       0.785407         56.8191         25.8725          57.504 
       0.791564         56.3757         25.4068          56.955 
       0.797719         55.3667         24.9529         56.5527 
       0.803834         55.1075         24.5131         55.6758 
       0.809972         54.5594         24.0823         55.0689 
       0.816124          53.641         23.6609         54.5931 
       0.822261         52.9633         23.2509         53.9134 
       0.828378          52.794         22.8518         53.1844 
       0.834502         52.1358         22.4618         52.7176 
       0.840667          51.618         22.0785         52.4028 
       0.846816         51.0215         21.7052         51.8067 
       0.852925         50.3891         21.3429         51.2377 
       0.859047         50.0305         20.9882         50.6664 
       0.865192         49.3759         20.6404         50.2078 
       0.871341         48.8789         20.3003         49.6396 
       0.877463         48.3522         19.9694         49.1775 
       0.883569         48.2394         19.6468         48.8888 
       0.889708         47.6484         19.3297         48.3242 
       0.895864         47.2522         19.0188         47.9285 
       0.902008          46.614         18.7154         47.3185 
       0.908149         46.0295         18.4188         46.9678 
       0.914301         45.7485         18.1282         46.6033 
       0.920448         45.6642         17.8442          46.146 
       0.926574         44.6581         17.5673         45.6526 
       0.932687         44.4013         17.2968         45.2744 
       0.938823         44.0213         17.0311         44.7481 
       0.944975         43.4563         16.7705         44.3912 
       0.951105         43.0741         16.5162         44.0263 
       0.957225         42.8427         16.2676         43.6352 
       0.963368         42.4033         16.0234         43.2051 
       0.969511         42.0623         15.7842         42.8267 
       0.975621         41.5384         15.5511         42.6644 
       0.981748          41.248         15.3222         42.2779 
       0.987916          40.806         15.0965         41.9603 
        0.99406         40.6519         14.8762         41.4606 
        1.00019         40.0969         14.6607         41.0478 
        1.00632          39.765         14.4498         40.7362 
        1.01246         39.4937         14.2427         40.3705 
        1.01859         39.2238           14.04         40.2236 
        1.02471         38.8635         13.8415         39.9549 
        1.03085          38.467         13.6461         39.5026 
        1.03698         38.2198          13.455         39.1533 
        1.04314         37.8906         13.2667         38.8166 
        1.04929         37.4824         13.0825         38.5961 
        1.05541         37.2813         12.9025         38.4083 
        1.06154         36.9285         12.7255         38.0559 
        1.06769           36.62         12.5516         37.7418 
        1.07382         36.2272         12.3814         37.4808 
        1.07993         36.0979         12.2148         37.1975 
        1.08607         35.7375         12.0506         36.9364 
        1.09222         35.5562         11.8893         36.6047 
        1.09836           35.26         11.7311         36.3129 
        1.10449         34.9963         11.5759         36.0913 
        1.11063         34.6735         11.4235         35.7051 
        1.11677         34.5685         11.2738         35.4395 
         1.1229         34.1535          11.127          35.323 
        1.12903         33.9524         10.9828         35.0326 
        1.13518         33.7322          10.841         34.7642 
        1.14131         33.4446         10.7018         34.5079 
        1.14745         33.2314         10.5651         34.3367 
        1.15359         32.8018         10.4308         34.0203 
        1.15973         32.7768         10.2988         33.8588 
        1.16584         32.4829         10.1697         33.5017 
        1.17197         32.1868         10.0425         33.3944 
        1.17811         31.9785         9.91722          33.132 
        1.18424          31.543          9.7944         32.9252 
        1.19038         31.3887         9.67332         32.6733 
        1.19652         31.2689         9.55434         32.4029 
        1.20267         30.9621         9.43736         32.2632 
        1.20881         30.7672         9.32237         32.0632 
        1.21495         30.6499         9.20948          31.811 
        1.22108         30.5434         9.09848         31.6407 
         1.2272         30.1511         8.98958         31.4551 
        1.23334         30.0448         8.88222          31.244 
        1.23949         29.8044         8.77635         30.9706 
        1.24562         29.5877         8.67252         30.7785 
        1.25174         29.4067         8.57052         30.6493 
        1.25789         29.2085         8.46985         30.4306 
        1.26402         29.0168         8.37098         30.2278 
        1.27014         28.8915         8.27393         30.1058 
        1.27628         28.6036         8.17813          29.881 
        1.28244         28.6083         8.08366         29.6756 
        1.28858         28.2528         7.99081         29.4863 
        1.29471         27.9922         7.89963         29.3781 
        1.30084         27.7775         7.80996           29.15 
        1.30697         27.7693         7.72155         28.9542 
        1.31312         27.5561         7.63438         28.8126 
        1.31925         27.3193         7.54883         28.6165 
        1.32537         27.1241         7.46468         28.4918 
        1.33151         26.9377         7.38152         28.2898 
        1.33765         26.8697         7.29967         28.1198 
        1.34378          26.712         7.21923         27.9909 
        1.34992         26.4736         7.13995         27.8144 
        1.35606         26.2119         7.06168          27.654 
         1.3622         26.1538         6.98474         27.5168 
        1.36833         26.0764         6.90912         27.3989 
        1.37445         25.7896         6.83467         27.2308 
        1.38059          25.639         6.76108         27.0869 
        1.38675         25.5176          6.6884          26.922 
        1.39288         25.3896         6.61708         26.7824 
        1.39901           25.16         6.54683          26.615 
        1.40515         25.0479         6.47745         26.4946 
         1.4113         24.9735          6.4091         26.3483 
        1.41742         24.7795         6.34199         26.1447 
        1.42355         24.5588         6.27572          26.056 
         1.4297          24.542          6.2102         25.8802 
        1.43585         24.3592         6.14564         25.7668 
        1.44198         24.1582         6.08225         25.6396 
        1.44809         23.9714         6.01987         25.4704 
        1.45423         23.9177         5.95814         25.3274 
        1.46036         23.8258         5.89738         25.2072 
        1.46649         23.5912         5.83745         25.1054 
        1.47263         23.4701         5.77831         24.9944 
        1.47877         23.3488         5.72001         24.8357 
        1.48491         23.1793         5.66243         24.7152 
        1.49104          23.066         5.60576         24.5979 
        1.49718         22.9783         5.54983         24.4814 
        1.50333          22.882         5.49457         24.3286 
        1.50947         22.6335         5.44017         24.1986 
         1.5156         22.6248         5.38659         24.0973 
        1.52172         22.4198         5.33374         23.9867 
        1.52787         22.4052         5.28148          23.861 
          1.534         22.1574         5.22999         23.7334 
        1.54013         22.1907         5.17924         23.5944 
        1.54627         21.9627         5.12907         23.4763 
        1.55241         21.8791         5.07956         23.3778 
        1.55855         21.7261         5.03077          23.264 
        1.56467         21.5523         4.98275         23.1739 
         1.5708          21.546         4.93523         23.0606 
        1.57695         21.4208         4.88825         22.9395 
        1.58308         21.2488           4.842         22.8378 
        1.58922         21.1319         4.79631         22.7196 
        1.59535         21.0743         4.75123         22.6123 
         1.6015         21.0087         4.70666         22.4859 
        1.60764         20.8029         4.66269         22.3747 
        1.61376         20.6831          4.6194         22.3026 
        1.61989         20.5767         4.57663         22.2014 
        1.62604         20.4529          4.5343         22.0895 
        1.63218         20.2727         4.49254         21.9936 
        1.63831          20.258          4.4514         21.9082 
        1.64444         20.1659         4.41075         21.7978 
        1.65059         20.0243         4.37052         21.6807 
        1.65673         19.9543         4.33084         21.5926 
        1.66285         19.8597         4.29175         21.5213 
        1.66898         19.7593         4.25314         21.4278 
        1.67512         19.6329         4.21493         21.3031 
        1.68127         19.5482         4.17715         21.2041 
         1.6874         19.4821         4.13992         21.1092 
        1.69353         19.3253         4.10316         20.9813 
        1.69967         19.2555         4.06676         20.9073 
        1.70581         19.1662         4.03082         20.8435 
        1.71193         19.0608         3.99545         20.7556 
        1.71806         18.9873         3.96043         20.6549 
        1.72421         18.8625         3.92576         20.5606 
        1.73035         18.7941         3.89155          20.493 
        1.73649         18.6613         3.85775         20.4225 
        1.74262         18.5465         3.82438          20.287 
        1.74876         18.5742         3.79138         20.1716 
        1.75489         18.3693         3.75884         20.1096 
        1.76101         18.3449         3.72669         20.0608 
        1.76715         18.1683         3.69487         19.9566 
        1.77329         18.0887         3.66339         19.8543 
        1.77943         18.0714         3.63225         19.7706 
        1.78557         18.0066         3.60153         19.6837 
        1.79171         17.8798         3.57116         19.6053 
        1.79785         17.7989         3.54113         19.5355 
        1.80399         17.6742         3.51145         19.4633 
        1.81012         17.6247         3.48215          19.376 
        1.81625         17.4836          3.4532          19.285 
        1.82239          17.419         3.42453         19.2101 
        1.82853         17.3576         3.39621         19.1519 
        1.83466         17.2471         3.36823         19.0698 
        1.84078         17.1765         3.34059         18.9674 
        1.84692         17.0707         3.31322         18.8876 
        1.85306         17.0003         3.28612         18.8307 
         1.8592         16.9573         3.25937         18.7654 
        1.86533         16.8664         3.23293         18.6764 
        1.87147         16.7742         3.20675          18.592 
        1.87761         16.6892         3.18085         18.5167 
