# k  (h/Mpc)    Pcb(k)  (Mpc/h)^3    Pcb_linear(k) (Mpc/h)^3    Pcb_NL(k) (Mpc/h)^3   ShotnoiseSubtracted = false
     0.00783031          312.62         315.513         312.641 
       0.013688          348.91          351.85         349.689 
       0.019231         324.077         324.983         323.287 
      0.0249154         274.001         273.662         272.865 
      0.0312784         215.267         214.738         214.968 
      0.0375637         169.378         169.083         169.431 
      0.0433917         141.241         140.721         141.064 
      0.0492413         123.573         123.365         123.661 
      0.0555754         112.661          112.37         112.443 
      0.0619321         104.093         104.428         104.376 
       0.067871         96.3644         96.4418         96.3134 
      0.0738098         86.5753         86.5972         86.4688 
      0.0800417         74.9566         74.8312         74.7897 
      0.0862327         63.4717         63.3657         63.4239 
      0.0921407         54.2237         54.1388         54.2484 
      0.0982031          47.404         47.1921         47.3372 
       0.104506         42.6422         42.6255         42.7597 
       0.110769         40.0804         40.0705         40.1562 
       0.116806         38.6046         38.5391         38.5658 
       0.122832         36.9916          37.043           37.04 
       0.129052         34.9269         34.9219         34.9007 
       0.135211         32.1573         32.1006         32.0912 
       0.141259         28.9233         28.9068          28.928 
       0.147318         25.7418         25.7507         25.8121 
       0.153489         23.0459          23.004         23.0718 
       0.159709         21.0065         20.9397         21.0194 
       0.165845         19.5647         19.5879          19.673 
       0.171974         18.8095         18.7393         18.8039 
       0.178125         18.1642         18.1314         18.1888 
       0.184229         17.5092         17.5207         17.5631 
        0.19034         16.7826         16.7382         16.7712 
       0.196428          15.777         15.7493         15.7762 
       0.202534         14.5832         14.6197         14.6569 
       0.208729         13.5008         13.4665         13.5146 
       0.214876         12.5151         12.4429         12.5088 
       0.220989         11.6334         11.6198         11.6911 
       0.227147          11.064         10.9984         11.0656 
        0.23329         10.6055         10.5435         10.6111 
       0.239377         10.2469          10.185         10.2465 
       0.245482          9.8966         9.84418         9.89274 
       0.251667         9.48428         9.46367         9.51453 
       0.257832          9.0865         9.02956         9.07715 
       0.263955         8.59024         8.55757         8.60466 
       0.270079         8.10878         8.07773         8.12754 
        0.27624         7.64286         7.62545         7.67587 
       0.282372         7.25324         7.23138         7.28863 
        0.28843         6.95882         6.90658         6.96457 
       0.294538         6.68212         6.63641         6.69176 
       0.300721         6.42402         6.40287         6.45817 
        0.30691          6.2298         6.18707         6.24095 
       0.313033         6.00937         5.97315         6.02242 
       0.319153         5.81603         5.74986         5.79897 
       0.325316         5.53827         5.51549         5.56636 
        0.33145         5.30369         5.28045         5.32963 
       0.337538          5.0859         5.05543         5.10409 
       0.343633         4.89028         4.84676         4.89516 
       0.349808         4.69111          4.6575         4.70901 
       0.355968         4.51728         4.48983         4.54616 
       0.362074         4.38318         4.34092         4.39242 
       0.368217         4.23907         4.20188         4.24782 
       0.374374         4.11805         4.06764         4.11548 
       0.380519         3.96905         3.93506         3.97983 
       0.386598         3.83014          3.8036         3.84928 
       0.392688         3.69295         3.67315         3.71876 
        0.39888         3.57509         3.54396         3.59071 
       0.405048         3.45505         3.42125         3.46415 
       0.411186         3.33742         3.30725         3.35426 
       0.417313         3.23261         3.20165         3.24757 
       0.423458         3.12406         3.10321         3.14902 
       0.429607         3.04517         3.01088         3.05428 
       0.435692         2.95982         2.92365         2.96764 
       0.441815         2.86827         2.83843         2.88395 
       0.447964         2.77313         2.75489         2.79768 
       0.454126         2.70273         2.67307         2.71544 
       0.460267         2.62935         2.59361         2.63783 
       0.466387         2.55011         2.51724         2.55862 
        0.47254         2.48077         2.44396         2.48569 
       0.478662         2.40684         2.37471         2.41513 
       0.484765         2.34284          2.3091         2.34901 
       0.490885          2.2736         2.24649         2.28971 
       0.497035         2.20755         2.18634         2.23021 
       0.503198         2.15803         2.12831         2.16773 
       0.509342           2.093          2.0722         2.11204 
       0.515458         2.04489          2.0179         2.05945 
       0.521598         1.99352         1.96504         2.00277 
       0.527764         1.94783         1.91371         1.95134 
       0.533884         1.88622         1.86455         1.90152 
           0.54         1.84328         1.81725         1.85361 
       0.546137         1.79303          1.7716         1.80939 
       0.552299          1.7515         1.72758          1.7615 
       0.558452         1.70848         1.68534         1.72019 
       0.564573         1.66827         1.64481         1.68251 
       0.570708         1.62977         1.60548         1.64168 
       0.576825         1.59208         1.56744         1.60233 
       0.582926          1.5512         1.53062          1.5661 
       0.589034         1.52054         1.49488         1.53207 
       0.595184         1.48807         1.46004         1.49202 
       0.601379         1.44941         1.42611         1.46221 
       0.607522         1.41493         1.39358         1.42834 
       0.613639         1.38094         1.36223         1.39594 
       0.619772         1.35486          1.3318         1.36694 
       0.625918         1.32478         1.30226          1.3353 
       0.632068         1.29633         1.27361         1.30552 
       0.638161         1.26717         1.24609         1.27842 
         0.6443         1.23936         1.21919         1.25023 
       0.650464         1.21466         1.19298         1.22596 
       0.656582         1.19128         1.16773         1.19973 
       0.662703         1.16537          1.1432         1.17413 
       0.668861         1.13647         1.11923         1.15127 
       0.675024         1.11474         1.09593         1.12725 
       0.681124          1.0998         1.07354         1.10372 
       0.687237         1.07335         1.05172         1.08026 
       0.693381         1.04771         1.03042         1.05809 
       0.699536         1.03157         1.00969         1.03784 
       0.705665         1.01135        0.989614         1.02022 
       0.711789        0.987353        0.970113        0.999514 
       0.717957        0.969491         0.95101        0.979002 
        0.72409        0.950932        0.932532        0.961017 
       0.730186        0.937036         0.91466        0.942042 
       0.736317        0.914528        0.897162        0.923602 
       0.742472        0.900495        0.880059        0.908059 
       0.748622        0.884203         0.86342        0.891955 
        0.75476        0.864915        0.847249        0.874019 
       0.760888        0.851736        0.831519        0.858131 
       0.767043        0.829228        0.816127        0.843087 
       0.773185        0.817585         0.80116        0.828477 
       0.779291        0.806865        0.786654        0.813551 
       0.785407        0.790457        0.772489        0.798591 
       0.791564        0.775365        0.758585        0.784643 
       0.797719        0.761743        0.745033         0.76985 
       0.803834         0.74843        0.731899        0.756989 
       0.809972        0.735578        0.719036        0.745176 
       0.816124        0.722516        0.706457        0.731117 
       0.822261        0.711082        0.694214        0.718197 
       0.828378        0.698416        0.682299        0.706561 
       0.834502         0.68591        0.670655        0.694053 
       0.840667        0.676092        0.659209        0.683058 
       0.846816        0.663772        0.648063        0.673166 
       0.852925        0.651713        0.637246        0.661003 
       0.859047        0.641157        0.626655        0.651525 
       0.865192        0.631044        0.616271        0.640015 
       0.871341        0.622067        0.606116        0.629418 
       0.877463        0.609612        0.596238        0.618854 
       0.883569         0.60065        0.586605        0.609986 
       0.889708        0.591997        0.577137        0.600313 
       0.895864         0.58257        0.567854        0.590328 
       0.902008        0.571864        0.558795        0.581272 
       0.908149        0.564078        0.549941        0.572202 
       0.914301        0.556273        0.541264        0.563108 
       0.920448        0.547964        0.532784        0.554405 
       0.926574        0.540327        0.524515        0.546439 
       0.932687        0.531998        0.516441        0.537082 
       0.938823        0.521569        0.508508        0.530528 
       0.944975         0.51508        0.500724        0.521256 
       0.951105        0.505183        0.493132        0.513647 
       0.957225        0.498485        0.485711        0.506611 
       0.963368        0.492173        0.478419        0.498745 
       0.969511        0.485532        0.471276        0.491697 
       0.975621        0.476679        0.464318        0.483599 
       0.981748        0.468357        0.457484        0.476542 
       0.987916        0.462553        0.450744        0.470938 
        0.99406        0.456887        0.444167        0.464618 
        1.00019        0.449984        0.437734        0.457728 
        1.00632        0.444874        0.431435        0.450555 
        1.01246        0.438212        0.425251        0.444176 
        1.01859         0.43208        0.419199        0.438681 
        1.02471        0.424771        0.413272         0.43245 
        1.03085        0.418243         0.40744         0.42568 
        1.03698         0.41375        0.401733        0.419698 
        1.04314        0.407544        0.396112        0.414122 
        1.04929         0.40333        0.390612        0.408687 
        1.05541        0.396097        0.385238        0.403588 
        1.06154        0.391504        0.379953        0.398075 
        1.06769        0.386572        0.374759        0.392812 
        1.07382        0.381146        0.369679        0.387421 
        1.07993        0.376231        0.364705        0.382227 
        1.08607        0.371207        0.359802        0.377683 
        1.09222        0.365971        0.354984        0.372041 
        1.09836        0.361517        0.350261        0.367544 
        1.10449        0.355984        0.345629        0.362875 
        1.11063        0.351358        0.341076        0.357653 
        1.11677        0.347565        0.336607        0.353646 
         1.1229        0.341928        0.332226        0.349005 
        1.12903        0.338325         0.32792        0.344502 
        1.13518         0.33385        0.323686        0.340044 
        1.14131        0.329915         0.31953        0.335944 
        1.14745        0.326871        0.315449        0.331079 
        1.15359        0.321667        0.311439        0.327629 
        1.15973        0.318167        0.307497        0.323695 
        1.16584        0.313836        0.303641        0.319136 
        1.17197        0.309364        0.299846        0.315709 
        1.17811         0.30546        0.296104        0.311991 
        1.18424        0.301957        0.292437        0.307727 
        1.19038        0.297659        0.288822        0.304032 
        1.19652        0.295203        0.285269        0.300718 
        1.20267        0.291777        0.281776        0.296502 
        1.20881        0.286805        0.278343         0.29331 
        1.21495        0.284054        0.274973        0.290457 
        1.22108        0.280931        0.271658        0.286334 
         1.2272        0.276915        0.268407        0.282826 
        1.23334        0.273938        0.265201        0.279713 
        1.23949        0.271202        0.262041        0.276653 
        1.24562        0.267839         0.25894        0.273442 
        1.25174        0.264966        0.255895        0.270127 
        1.25789        0.260857        0.252889        0.267107 
        1.26402        0.258701        0.249937        0.264085 
        1.27014        0.254755        0.247039        0.260808 
        1.27628        0.252572        0.244179        0.257691 
        1.28244         0.24954        0.241358        0.254983 
        1.28858        0.246257        0.238586        0.251907 
        1.29471        0.243763        0.235864         0.24925 
        1.30084        0.240908        0.233186        0.246919 
        1.30697        0.239001        0.230547           0.244 
        1.31312        0.236111        0.227944        0.241129 
        1.31925        0.233222         0.22539        0.238711 
        1.32537        0.230741        0.222877        0.236184 
        1.33151        0.228144        0.220394        0.233592 
        1.33765        0.225524         0.21795        0.231023 
        1.34378         0.22282        0.215549        0.228465 
        1.34992        0.221123        0.213181        0.226049 
        1.35606         0.21821        0.210845        0.223423 
         1.3622        0.216021        0.208547        0.221134 
        1.36833         0.21409         0.20629        0.218984 
        1.37445        0.211767        0.204067         0.21674 
        1.38059        0.209456        0.201869         0.21432 
        1.38675        0.206838        0.199699        0.211892 
        1.39288        0.204322         0.19757        0.209649 
        1.39901        0.202737        0.195473         0.20757 
        1.40515        0.200447        0.193401        0.205381 
         1.4113        0.198822         0.19136        0.203503 
        1.41742        0.196695        0.189356        0.201723 
        1.42355        0.193708        0.187378        0.198907 
         1.4297        0.192585        0.185422        0.197489 
        1.43585        0.190139        0.183494        0.195178 
        1.44198        0.188583        0.181601        0.192782 
        1.44809        0.186453        0.179739        0.191535 
        1.45423        0.184487        0.177896        0.189051 
        1.46036        0.182667        0.176082        0.187355 
        1.46649        0.180832        0.174292        0.185807 
        1.47263        0.178387        0.172526        0.183787 
        1.47877        0.177828        0.170786         0.18209 
        1.48491        0.175047        0.169067        0.180445 
        1.49104        0.174294        0.167375        0.178125 
        1.49718        0.171965        0.165704        0.176973 
        1.50333        0.170469        0.164055        0.174807 
        1.50947        0.168839         0.16243        0.173008 
         1.5156        0.167132        0.160831        0.171701 
        1.52172        0.165533        0.159253         0.16983 
        1.52787        0.163481        0.157692        0.168164 
          1.534        0.162362        0.156155        0.166792 
        1.54013        0.160657         0.15464        0.165142 
        1.54627        0.159366        0.153142         0.16345 
        1.55241        0.157731        0.151663        0.161916 
        1.55855          0.1562        0.150207        0.160364 
        1.56467        0.154859        0.148773        0.158975 
         1.5708        0.153224        0.147354        0.157344 
        1.57695        0.151781        0.145951         0.15573 
        1.58308        0.149911         0.14457        0.154504 
        1.58922        0.149007        0.143206        0.153202 
        1.59535        0.147414         0.14186        0.151679 
         1.6015        0.146197         0.14053        0.150101 
        1.60764        0.144651        0.139217        0.148917 
        1.61376        0.143447        0.137924        0.147903 
        1.61989         0.14201        0.136647        0.146424 
        1.62604        0.140665        0.135383        0.144994 
        1.63218        0.139607        0.134136        0.143745 
        1.63831        0.138179        0.132908        0.142443 
        1.64444        0.137126        0.131695        0.141007 
        1.65059        0.135447        0.130493        0.139812 
        1.65673        0.134469        0.129308        0.138677 
        1.66285        0.133398        0.128142        0.137447 
        1.66898        0.131988        0.126989         0.13614 
        1.67512        0.130793        0.125848        0.134939 
        1.68127        0.129576         0.12472        0.133781 
         1.6874         0.12865        0.123608         0.13273 
        1.69353        0.127312        0.122511        0.131736 
        1.69967        0.126129        0.121424        0.130321 
        1.70581        0.125383        0.120351        0.129063 
        1.71193        0.124353        0.119295        0.128069 
        1.71806        0.123036        0.118249        0.126938 
        1.72421        0.121852        0.117214        0.126011 
        1.73035        0.120876        0.116192        0.124921 
        1.73649        0.119941        0.115183        0.123611 
        1.74262        0.118729        0.114187        0.122634 
        1.74876        0.117963        0.113202        0.121796 
        1.75489        0.116863         0.11223         0.12078 
        1.76101        0.115881         0.11127        0.119632 
        1.76715        0.114882         0.11032        0.118764 
        1.77329        0.113774         0.10938        0.117848 
        1.77943        0.112802        0.108451        0.116783 
        1.78557        0.112153        0.107533        0.115722 
        1.79171        0.111132        0.106626        0.114682 
        1.79785        0.110009         0.10573         0.11378 
        1.80399         0.10891        0.104844        0.112999 
        1.81012        0.108336        0.103969        0.111867 
        1.81625        0.107507        0.103104        0.110884 
        1.82239        0.106799        0.102248        0.110244 
        1.82853         0.10561        0.101403        0.109418 
        1.83466        0.104723        0.100567        0.108424 
        1.84078         0.10394       0.0997422        0.107481 
        1.84692        0.103145       0.0989249        0.106741 
        1.85306        0.102315       0.0981159        0.105768 
         1.8592        0.101534       0.0973171        0.104748 
        1.86533        0.100765       0.0965276        0.104058 
        1.87147       0.0997774        0.095746        0.103307 
