# k  (h/Mpc)    Pcb(k)  (Mpc/h)^3    Pcb_linear(k) (Mpc/h)^3    Pcb_NL(k) (Mpc/h)^3   ShotnoiseSubtracted = false
     0.00783031         18815.9         18933.1         18756.1 
       0.013688         20554.5         21114.5         20952.4 
       0.019231         19213.8         19498.5         19352.9 
      0.0249154           16541         16416.9         16313.7 
      0.0312784         12838.9         12880.8         12829.6 
      0.0375637         10051.5         10141.5         10123.9 
      0.0433917         8471.96         8440.01         8419.58 
      0.0492413         7387.56         7398.82         7384.14 
      0.0555754         6779.04         6739.24         6725.59 
      0.0619321         6114.83         6262.82         6245.69 
       0.067871          5732.9         5783.77         5773.07 
      0.0738098         5205.59         5193.31         5149.52 
      0.0800417         4542.23         4487.64          4480.6 
      0.0862327         3856.71         3800.02         3859.59 
      0.0921407         3348.96         3246.66         3327.02 
      0.0982031         2984.64         2830.06         2959.43 
       0.104506         2654.08          2556.2          2712.4 
       0.110769         2504.93         2402.97         2515.78 
       0.116806         2428.93         2311.13         2398.32 
       0.122832         2305.15          2221.4         2298.72 
       0.129052         2162.35          2094.2         2159.58 
       0.135211         2051.38         1925.01         1998.48 
       0.141259          1842.2         1733.48         1837.09 
       0.147318         1660.07         1544.21         1686.97 
       0.153489         1517.63         1379.49         1511.88 
       0.159709         1433.77          1255.7         1408.13 
       0.165845         1315.38         1174.63         1349.34 
       0.171974         1288.49         1123.75         1280.37 
       0.178125         1247.19         1087.29         1247.68 
       0.184229          1159.9         1050.67         1191.97 
        0.19034         1133.14         1003.74         1133.61 
       0.196428         1087.02         944.441         1068.42 
       0.202534         1000.12         876.698         1012.11 
       0.208729         970.851         807.543         942.475 
       0.214876         913.048         746.164         907.126 
       0.220989         855.633         696.805         867.684 
       0.227147         829.936         659.539         832.819 
        0.23329         796.294         632.262         808.909 
       0.239377         788.824          610.76         777.069 
       0.245482         748.077         590.325         742.922 
       0.251667         719.271         567.506         722.954 
       0.257832         704.443         541.474         690.442 
       0.263955         664.983          513.17         661.673 
       0.270079          638.25         484.395         636.458 
        0.27624         609.475         457.273         609.808 
       0.282372         595.878         433.642         591.756 
        0.28843         586.088         414.165         574.753 
       0.294538         555.732         397.963         556.771 
       0.300721         541.611         383.959         540.649 
        0.30691         528.982         371.018         529.873 
       0.313033         503.986          358.19         510.285 
       0.319153         496.272           344.8         494.519 
       0.325316         486.625         330.745         480.943 
        0.33145           473.1         316.651         461.787 
       0.337538         454.603         303.157         449.338 
       0.343633         441.867         290.643         442.536 
       0.349808         430.201         279.294         432.589 
       0.355968         421.544          269.24         422.795 
       0.362074          404.79          260.31         412.475 
       0.368217         401.878         251.972         399.459 
       0.374374         394.504         243.923         389.703 
       0.380519         377.899         235.972         379.246 
       0.386598          373.21         228.089         374.735 
       0.392688         362.434         220.266         362.635 
        0.39888         353.702         212.519         355.205 
       0.405048         344.477         205.161         348.417 
       0.411186         343.788         198.324         338.975 
       0.417313         337.604         191.992         331.776 
       0.423458         329.008         186.088         325.978 
       0.429607         318.157         180.552         319.577 
       0.435692         313.151         175.321          310.71 
       0.441815         307.355         170.211         307.302 
       0.447964         299.835         165.201         301.767 
       0.454126         296.266         160.295         292.856 
       0.460267         291.058          155.53         290.607 
       0.466387         283.768          150.95         285.065 
        0.47254         280.639         146.556         279.619 
       0.478662         273.962         142.403         273.815 
       0.484765         269.348         138.468         268.419 
       0.490885         266.611         134.714         263.847 
       0.497035         260.196         131.107         260.054 
       0.503198          259.05         127.627         256.054 
       0.509342         253.301         124.262         251.889 
       0.515458         248.241         121.006         248.575 
       0.521598         244.132         117.836         244.035 
       0.527764         240.732         114.758         241.427 
       0.533884         238.032         111.811         237.782 
           0.54          234.44         108.974         233.109 
       0.546137         229.013         106.236         230.213 
       0.552299         227.364         103.597         226.258 
       0.558452          223.26         101.064         223.104 
       0.564573         222.126         98.6331         221.078 
       0.570708         217.049         96.2747         218.368 
       0.576825         213.423         93.9936         213.689 
       0.582926         212.172         91.7856         211.467 
       0.589034         207.737         89.6425         208.901 
       0.595184         206.187         87.5534         204.879 
       0.601379         202.774         85.5187          202.53 
       0.607522          197.83         83.5679         199.393 
       0.613639         197.041         81.6881         198.657 
       0.619772         195.892         79.8633         196.705 
       0.625918         191.999         78.0918         192.804 
       0.632068         189.671         76.3739         190.307 
       0.638161         188.292         74.7234         189.202 
         0.6443         185.149         73.1101         186.701 
       0.650464           182.8         71.5387         182.808 
       0.656582         180.504         70.0246         181.457 
       0.662703         179.778         68.5536         179.572 
       0.668861         175.597         67.1163         178.078 
       0.675024         174.933         65.7192         176.104 
       0.681124         172.356          64.376         173.224 
       0.687237         171.169         63.0681         171.375 
       0.693381         167.734         61.7908         169.293 
       0.699536         167.342         60.5471         167.842 
       0.705665         165.056         59.3435         165.672 
       0.711789         162.451         58.1741         164.662 
       0.717957         161.515         57.0286         163.229 
        0.72409         159.032         55.9205         161.357 
       0.730186         159.537         54.8488         159.549 
       0.736317         156.977         53.7995         157.826 
       0.742472         155.121         52.7739         156.074 
       0.748622         153.143         51.7761         154.499 
        0.75476         152.861         50.8064         153.876 
       0.760888         150.819         49.8631         151.375 
       0.767043         148.233         48.9402         150.286 
       0.773185         146.546         48.0426         149.097 
       0.779291         145.771         47.1728         147.207 
       0.785407         144.422         46.3233         145.788 
       0.791564         143.187         45.4896         144.491 
       0.797719         140.764         44.6769         143.499 
       0.803834         140.937         43.8893         142.321 
       0.809972         138.982          43.118         140.973 
       0.816124         136.648         42.3636         139.687 
       0.822261         135.808         41.6294          138.68 
       0.828378         135.146          40.915         137.116 
       0.834502          133.73         40.2167         135.784 
       0.840667         133.306         39.5303         134.635 
       0.846816         130.875         38.8619          133.76 
       0.852925         130.459         38.2133         132.728 
       0.859047         128.871         37.5782         131.667 
       0.865192         128.187         36.9555          130.14 
       0.871341         127.085         36.3466         129.147 
       0.877463         125.772         35.7542         128.425 
       0.883569          125.44         35.1765         127.812 
       0.889708         124.348         34.6087         126.222 
       0.895864         122.561         34.0521         125.433 
       0.902008         121.471         33.5089         124.205 
       0.908149         120.281         32.9779         123.266 
       0.914301         119.267         32.4576         122.191 
       0.920448         119.116         31.9491         121.359 
       0.926574         117.401         31.4532         120.328 
       0.932687          117.12          30.969         119.659 
       0.938823         116.111         30.4933         118.716 
       0.944975         115.573         30.0266         117.769 
       0.951105         114.105         29.5713         116.837 
       0.957225         113.322         29.1263         115.954 
       0.963368         112.711          28.689         115.114 
       0.969511         111.468         28.2607          114.11 
       0.975621         109.807         27.8434         113.734 
       0.981748         109.709         27.4336         112.942 
       0.987916         108.984         27.0295         112.033 
        0.99406         108.003          26.635         111.108 
        1.00019         107.574         26.2493          110.24 
        1.00632         106.467         25.8715         109.432 
        1.01246         105.638         25.5007         108.391 
        1.01859          104.73         25.1378         108.005 
        1.02471         104.021         24.7824         107.436 
        1.03085         103.368         24.4327         106.765 
        1.03698         102.576         24.0904          106.25 
        1.04314         102.048         23.7534         105.254 
        1.04929         101.388         23.4235         104.601 
        1.05541         100.878         23.1013         104.069 
        1.06154         99.6405         22.7843         103.361 
        1.06769         99.0478         22.4729         102.711 
        1.07382         98.2614         22.1682         102.106 
        1.07993         97.7972           21.87         101.417 
        1.08607          97.538          21.576         100.667 
        1.09222         96.2659         21.2871         100.148 
        1.09836         95.7334         21.0038         99.3993 
        1.10449         95.2594         20.7261         99.0579 
        1.11063         94.2006         20.4531         98.2254 
        1.11677         93.9435         20.1851         97.5168 
         1.1229         92.9628         19.9224         97.0051 
        1.12903         92.0342         19.6641         96.3513 
        1.13518         91.5273         19.4102         95.8414 
        1.14131         91.3442          19.161         95.0314 
        1.14745         90.4279         18.9163         94.5557 
        1.15359         89.9351         18.6758         94.1266 
        1.15973         89.4125         18.4394         93.6058 
        1.16584         88.6442         18.2082         92.8413 
        1.17197          88.254         17.9806         92.5431 
        1.17811          87.592         17.7562         91.8369 
        1.18424         86.9305         17.5363         91.1835 
        1.19038         86.4851         17.3195         90.9613 
        1.19652         85.7908         17.1065         90.3101 
        1.20267         85.1329         16.8971          89.829 
        1.20881         84.5359         16.6912         89.1597 
        1.21495         84.3585         16.4891         88.8191 
        1.22108         83.5666         16.2903          88.271 
         1.2272         83.4944         16.0953         87.6944 
        1.23334         82.7528         15.9031         87.4424 
        1.23949         82.0611         15.7136         86.8527 
        1.24562         81.4204         15.5277         86.0777 
        1.25174         81.4946          15.345         85.6521 
        1.25789         80.6495         15.1648           85.16 
        1.26402         80.1381         14.9878         84.9157 
        1.27014         79.4981          14.814         84.4803 
        1.27628         79.2405         14.6425         84.1748 
        1.28244         78.7195         14.4733         83.5187 
        1.28858          78.318         14.3071         83.0374 
        1.29471         77.7484         14.1439         82.6204 
        1.30084         77.1741         13.9833         81.9892 
        1.30697         76.6541          13.825         81.6274 
        1.31312         76.3612         13.6689         81.2324 
        1.31925         75.5776         13.5158         80.8819 
        1.32537         75.2236         13.3651         80.5476 
        1.33151         74.9972         13.2162         80.0542 
        1.33765         74.4443         13.0697          79.645 
        1.34378         74.1444         12.9256         79.2547 
        1.34992         73.5719         12.7837         78.7341 
        1.35606          73.369         12.6436         78.3364 
         1.3622         72.8631         12.5058         77.9992 
        1.36833         72.3201         12.3704          77.482 
        1.37445         71.9247         12.2371         77.2235 
        1.38059         71.4179         12.1053         76.5748 
        1.38675         71.1376         11.9752         76.2746 
        1.39288         70.5997         11.8475          75.772 
        1.39901         70.2761         11.7217         75.5385 
        1.40515         69.7911         11.5975         75.3099 
         1.4113         69.3421         11.4751         74.9815 
        1.41742         69.2549          11.355         74.5552 
        1.42355         68.7143         11.2363         74.0594 
         1.4297         68.2127          11.119         73.7998 
        1.43585         67.9976         11.0034         73.2868 
        1.44198         67.4603         10.8899         73.1363 
        1.44809         67.0125         10.7782         72.7062 
        1.45423         66.9145         10.6677         72.2079 
        1.46036         66.2674         10.5589          71.885 
        1.46649         65.8789         10.4516         71.6604 
        1.47263         65.4425         10.3457         71.3555 
        1.47877         65.2899         10.2414         70.8533 
        1.48491         64.7841         10.1383         70.5277 
        1.49104         64.4215         10.0368         70.3515 
        1.49718         64.0069         9.93665          69.832 
        1.50333          63.619         9.83772         69.4825 
        1.50947         63.4997         9.74032         69.2382 
         1.5156         63.0097          9.6444         68.9059 
        1.52172         62.4481         9.54976         68.5337 
        1.52787          62.349          9.4562         68.2254 
          1.534         62.0338         9.36401         67.9742 
        1.54013         61.6119         9.27314         67.6776 
        1.54627         61.2646         9.18331          67.332 
        1.55241         61.0618         9.09466         66.9802 
        1.55855         60.4576          9.0073         66.6504 
        1.56467         60.0911         8.92134         66.4014 
         1.5708         59.7312         8.83625         66.0797 
        1.57695            59.5         8.75214         65.7687 
        1.58308         59.2522         8.66932         65.5143 
        1.58922         58.9191         8.58752         65.1977 
        1.59535         58.7481          8.5068         64.9445 
         1.6015         58.2001         8.42701         64.5886 
        1.60764         57.8803         8.34828         64.2458 
        1.61376         57.8106         8.27078         64.0799 
        1.61989         57.3342          8.1942         63.8011 
        1.62604         57.1262         8.11841         63.3308 
        1.63218         56.6216         8.04364         63.0248 
        1.63831         56.4783         7.96997         62.9147 
        1.64444         56.1069         7.89721         62.5995 
        1.65059         55.7595         7.82517         62.2871 
        1.65673         55.5652         7.75412         61.9726 
        1.66285         55.2202         7.68414         61.7252 
        1.66898         54.7699         7.61501         61.5346 
        1.67512          54.479         7.54659         61.2105 
        1.68127         54.2526         7.47895         60.9573 
         1.6874         54.0978         7.41229          60.729 
        1.69353         53.6781         7.34648         60.3792 
        1.69967         53.3949         7.28131          60.129 
        1.70581         53.1285         7.21696         59.9051 
        1.71193         52.8689         7.15364         59.6529 
        1.71806         52.5115         7.09093         59.4032 
        1.72421         52.2387         7.02886         59.1345 
        1.73035         51.9539          6.9676         58.8623 
        1.73649         51.6964         6.90708         58.6032 
        1.74262         51.4294         6.84733         58.3556 
        1.74876         51.1021         6.78825         58.1159 
        1.75489         51.0147         6.72999         57.8621 
        1.76101         50.6857         6.67243         57.5918 
        1.76715         50.3634         6.61546         57.3406 
        1.77329         50.0979         6.55909         57.0923 
        1.77943         49.8059         6.50335         56.8512 
        1.78557         49.6731         6.44834         56.6306 
        1.79171         49.2074         6.39396         56.4068 
        1.79785          49.159         6.34019         56.1493 
        1.80399         48.8437         6.28705         55.8657 
        1.81012         48.4979          6.2346         55.6531 
        1.81625         48.3283         6.18276         55.4461 
        1.82239         47.9222         6.13143         55.2074 
        1.82853         47.8408         6.08072         54.9942 
        1.83466         47.5308         6.03062         54.7485 
        1.84078         47.1687         5.98114         54.5082 
        1.84692         47.0526         5.93213          54.359 
        1.85306         46.9652         5.88362         54.1124 
         1.8592         46.6302         5.83572         53.8147 
        1.86533          46.307         5.78838         53.6187 
        1.87147         46.0518         5.74151         53.3984 
