# k  (h/Mpc)    Pcb(k)  (Mpc/h)^3    Pcb_linear(k) (Mpc/h)^3    Pcb_NL(k) (Mpc/h)^3   ShotnoiseSubtracted = false
     0.00783031         13571.8         13661.5         13536.6 
       0.013688         14874.4           15227         15117.6 
       0.019231         13888.8         14060.1         13964.6 
      0.0249154           11921         11837.6         11775.5 
      0.0312784         9273.79          9287.7         9265.19 
      0.0375637         7263.84         7312.51         7308.25 
      0.0433917         6112.58         6085.64         6080.05 
      0.0492413         5331.36         5334.88         5332.12 
      0.0555754         4891.05          4859.3         4854.48 
      0.0619321         4427.07         4515.78          4507.9 
       0.067871         4146.26         4170.36         4165.04 
      0.0738098         3754.56         3744.62         3722.11 
      0.0800417         3272.61          3235.8         3233.35 
      0.0862327         2774.12         2739.99         2773.77 
      0.0921407         2397.46         2340.99         2386.22 
      0.0982031         2129.11          2040.6         2112.39 
       0.104506         1894.13         1843.14         1929.22 
       0.110769         1786.82         1732.65         1794.12 
       0.116806          1734.3         1666.43         1713.67 
       0.122832         1645.66         1601.74         1643.92 
       0.129052         1549.54         1510.02          1545.3 
       0.135211         1459.97         1388.02         1428.38 
       0.141259         1310.46         1249.92         1306.39 
       0.147318          1174.3         1113.45         1192.65 
       0.153489         1069.03         994.679         1067.06 
       0.159709         1002.98         905.418         988.595 
       0.165845          919.41         846.965         943.352 
       0.171974         902.126         810.274         895.281 
       0.178125         871.201         783.989         871.539 
       0.184229         816.085         757.582          834.95 
        0.19034         794.051         723.746         794.376 
       0.196428          758.81         680.987         746.737 
       0.202534          694.86         632.141         704.661 
       0.208729          671.23         582.277         655.515 
       0.214876         631.077          538.02         627.049 
       0.220989         586.632          502.43         596.697 
       0.227147         569.414         475.559         570.092 
        0.23329         546.533         455.891         552.701 
       0.239377         538.632         440.387         531.471 
       0.245482         511.225         425.652         507.871 
       0.251667         490.266         409.199         493.749 
       0.257832         480.859         390.429         471.034 
       0.263955         451.691          370.02         450.168 
       0.270079         431.187         349.272         431.711 
        0.27624         411.135         329.716         412.037 
       0.282372         399.422         312.677         398.116 
        0.28843         394.019         298.633         384.969 
       0.294538         373.105         286.951         372.817 
       0.300721         361.497         276.853         362.255 
        0.30691          354.35         267.522         353.382 
       0.313033         336.861         258.272         340.114 
       0.319153         330.716         248.617         329.272 
       0.325316         322.736         238.483         319.624 
        0.33145         313.039          228.32         306.658 
       0.337538         300.422         218.591         297.045 
       0.343633         290.747         209.568         291.633 
       0.349808         282.235         201.385         284.415 
       0.355968         276.198         194.135         277.683 
       0.362074         266.138         187.696          269.89 
       0.368217         263.028         181.684         260.824 
       0.374374         256.735          175.88         254.024 
       0.380519         245.869         170.147         246.825 
       0.386598         241.866         164.463         242.873 
       0.392688         234.392         158.823         235.001 
        0.39888         228.914         153.236         229.484 
       0.405048         222.908         147.931         225.164 
       0.411186         221.256         143.001         218.549 
       0.417313         216.509         138.435         212.981 
       0.423458          210.86         134.179         208.851 
       0.429607         204.234         130.187          204.51 
       0.435692         200.762         126.415         199.004 
       0.441815         196.562          122.73         196.303 
       0.447964         190.645         119.118         192.115 
       0.454126         187.821          115.58          186.28 
       0.460267         185.037         112.144         184.466 
       0.466387         180.084         108.842         180.436 
        0.47254         177.906         105.674         176.751 
       0.478662         172.779         102.679         173.151 
       0.484765         169.872         99.8423         168.806 
       0.490885         167.212         97.1352         166.193 
       0.497035         164.302         94.5343         163.569 
       0.503198         162.514         92.0252         160.642 
       0.509342         158.386         89.5991         158.043 
       0.515458         155.453         87.2513         155.784 
       0.521598         151.727         84.9658         152.167 
       0.527764         150.382         82.7462             150 
       0.533884         148.763         80.6209         147.719 
           0.54         145.446         78.5754         144.719 
       0.546137         141.893         76.6016         142.912 
       0.552299          140.07         74.6984         139.888 
       0.558452         137.675          72.872         137.528 
       0.564573         136.874         71.1192         136.135 
       0.570708         133.189         69.4187         134.252 
       0.576825         131.238         67.7739         131.296 
       0.582926         129.936         66.1818         129.515 
       0.589034         127.465         64.6366         128.153 
       0.595184         126.009         63.1302         125.381 
       0.601379         123.823         61.6632         124.083 
       0.607522         120.722         60.2565         121.841 
       0.613639         119.929         58.9011         120.837 
       0.619772         118.467         57.5853         119.193 
       0.625918         117.082          56.308         117.145 
       0.632068         114.366         55.0693         115.277 
       0.638161         113.558         53.8792         114.442 
         0.6443         112.243         52.7159         112.787 
       0.650464         109.926         51.5829         110.353 
       0.656582         109.003         50.4911         109.478 
       0.662703         107.964         49.4304         107.902 
       0.668861         105.557         48.3941          106.77 
       0.675024         105.317         47.3867         105.293 
       0.681124          103.55         46.4182         103.848 
       0.687237         102.401         45.4751         102.558 
       0.693381         100.554         44.5541         101.069 
       0.699536         99.8967         43.6574         100.006 
       0.705665         98.5833         42.7896         99.1836 
       0.711789         96.9576         41.9464         97.8433 
       0.717957         95.9144         41.1204          96.663 
        0.72409         94.6455         40.3214         95.8715 
       0.730186         94.5438         39.5487         94.8215 
       0.736317         93.2277         38.7921         93.4147 
       0.742472         91.4716         38.0526         92.4404 
       0.748622         90.0859         37.3331         91.2945 
        0.75476          90.294         36.6339         90.3169 
       0.760888         89.0436         35.9537         88.9817 
       0.767043         87.3496         35.2882         88.4191 
       0.773185          86.177          34.641         87.6932 
       0.779291         85.4729         34.0138         86.5476 
       0.785407         84.6996         33.4014         85.4591 
       0.791564         83.8387         32.8002         84.7682 
       0.797719         82.4469         32.2142         84.2087 
       0.803834         82.3557         31.6463         83.0542 
       0.809972         81.4344         31.0901         82.2232 
       0.816124         79.9255         30.5462         81.5496 
       0.822261         79.3043         30.0168         80.6743 
       0.828378         78.9208         29.5017         79.6365 
       0.834502         78.1396         28.9982         78.8487 
       0.840667         77.4671         28.5033         78.4112 
       0.846816         76.3386         28.0213         77.6538 
       0.852925         75.6846         27.5537         76.9297 
       0.859047         74.9157         27.0957         76.1757 
       0.865192          74.248         26.6467         75.3936 
       0.871341         73.6066         26.2076          74.616 
       0.877463         72.8735         25.7805         74.0436 
       0.883569           72.71          25.364         73.6354 
       0.889708         71.9183         24.9546          72.822 
       0.895864          71.187         24.5532         72.3424 
       0.902008         70.2038         24.1615         71.4821 
       0.908149         69.4427         23.7787          70.891 
       0.914301         69.0736         23.4035         70.3114 
       0.920448         69.0367         23.0368         69.7877 
       0.926574         67.5419         22.6793         69.0876 
       0.932687         67.3387         22.3302         68.6054 
       0.938823         66.8875         21.9872         67.8924 
       0.944975         66.1583         21.6506         67.3528 
       0.951105          65.489         21.3223          66.759 
       0.957225         65.1713         21.0015         66.2657 
       0.963368         64.4719         20.6861         65.6673 
       0.969511          64.049         20.3773         65.1265 
       0.975621          63.075         20.0765         64.9788 
       0.981748         62.8387          19.781         64.4309 
       0.987916         62.2308         19.4896         63.8988 
        0.99406         61.9984         19.2051          63.236 
        1.00019          61.285          18.927         62.6546 
        1.00632         60.6792         18.6546         62.1763 
        1.01246         60.3203         18.3872         61.5994 
        1.01859         59.9632         18.1255         61.4377 
        1.02471         59.5545         17.8693          61.118 
        1.03085         58.9179         17.6171         60.5225 
        1.03698         58.4274         17.3704         60.0396 
        1.04314          58.041         17.1273         59.5477 
        1.04929         57.6379         16.8895         59.2565 
        1.05541         57.0782         16.6572         58.9295 
        1.06154         56.5626         16.4286         58.4449 
        1.06769         56.2433          16.204         58.0403 
        1.07382         55.7784         15.9844         57.6686 
        1.07993         55.5315         15.7693          57.259 
        1.08607         55.0821         15.5573         56.8572 
        1.09222         54.6959          15.349         56.4519 
        1.09836         54.2517         15.1448         55.9829 
        1.10449         53.8586         14.9445         55.6759 
        1.11063         53.4352         14.7476          55.085 
        1.11677         53.2434         14.5544         54.7597 
         1.1229         52.5609          14.365         54.5892 
        1.12903          52.306         14.1788         54.1067 
        1.13518         51.8423         13.9957         53.7495 
        1.14131         51.5601          13.816         53.3351 
        1.14745          51.337         13.6396         53.0979 
        1.15359         50.7105         13.4662         52.7223 
        1.15973         50.5821         13.2957          52.505 
        1.16584         50.2021          13.129         51.9392 
        1.17197         49.8483         12.9649         51.8079 
        1.17811          49.494         12.8031         51.4288 
        1.18424         48.9717         12.6446          51.133 
        1.19038         48.7945         12.4882         50.7617 
        1.19652         48.5415         12.3346         50.4323 
        1.20267         48.0866         12.1836         50.2015 
        1.20881         47.7218         12.0352         49.8264 
        1.21495         47.4507         11.8894         49.4931 
        1.22108          47.288         11.7461         49.2825 
         1.2272         46.9055         11.6055         48.9667 
        1.23334         46.7133         11.4669         48.7643 
        1.23949         46.2671         11.3303         48.3171 
        1.24562         45.8885         11.1962         47.9594 
        1.25174         45.8159         11.0645         47.7727 
        1.25789          45.478         10.9346         47.4903 
        1.26402         45.1204         10.8069          47.273 
        1.27014         44.8319         10.6816         47.0948 
        1.27628         44.5763         10.5579         46.7595 
        1.28244         44.5162          10.436           46.36 
        1.28858          44.081         10.3161          46.097 
        1.29471         43.6865         10.1984         45.9258 
        1.30084         43.3411         10.0826         45.5644 
        1.30697         43.2322          9.9685         45.3959 
        1.31312         43.0374         9.85596         45.1807 
        1.31925         42.6012         9.74552         44.8556 
        1.32537         42.3863         9.63689         44.6782 
        1.33151         42.1999         9.52952         44.3796 
        1.33765         41.9186         9.42386           44.15 
        1.34378         41.6347         9.32001         43.9282 
        1.34992         41.4138         9.21765         43.6312 
        1.35606         41.1207         9.11662         43.4049 
         1.3622          40.929         9.01728         43.2235 
        1.36833         40.7073         8.91966         42.9883 
        1.37445         40.4023         8.82354         42.7908 
        1.38059         40.1737         8.72854         42.5281 
        1.38675         39.9134         8.63471         42.2757 
        1.39288         39.7255         8.54263         42.0347 
        1.39901         39.4436         8.45194         41.8551 
        1.40515         39.1809         8.36237         41.7376 
         1.4113         39.0583         8.27413          41.535 
        1.41742         38.7957         8.18749         41.2004 
        1.42355         38.6219         8.10194         41.0146 
         1.4297         38.4205         8.01735         40.8197 
        1.43585         38.2523         7.93401         40.5616 
        1.44198         37.8886         7.85217          40.396 
        1.44809         37.5973         7.77163         40.1739 
        1.45423         37.5721         7.69194         39.9526 
        1.46036         37.3639          7.6135         39.7697 
        1.46649         37.0216         7.53613          39.627 
        1.47263         36.8033         7.45978         39.4505 
        1.47877         36.6303         7.38452          39.152 
        1.48491         36.3403         7.31018         38.9955 
        1.49104         36.2698         7.23702         38.8732 
        1.49718         36.0153         7.16481         38.6509 
        1.50333         35.8814         7.09347         38.4492 
        1.50947         35.6007         7.02325         38.2638 
         1.5156         35.5254         6.95408         38.0719 
        1.52172          35.213         6.88584         37.8895 
        1.52787          35.109         6.81838          37.721 
          1.534         34.8148         6.75191         37.5504 
        1.54013         34.8023         6.68639         37.3452 
        1.54627         34.4324         6.62162         37.1549 
        1.55241          34.379         6.55769         36.9983 
        1.55855         34.1212          6.4947         36.8398 
        1.56467         33.8109         6.43272         36.6887 
         1.5708         33.8537         6.37136         36.5045 
        1.57695         33.5788         6.31072         36.3453 
        1.58308         33.4273           6.251         36.1903 
        1.58922         33.1758         6.19202         35.9886 
        1.59535         33.1965         6.13382         35.8498 
         1.6015         33.0072         6.07629         35.6513 
        1.60764         32.7749         6.01952          35.482 
        1.61376         32.5816         5.96364         35.4059 
        1.61989         32.3011         5.90842         35.2119 
        1.62604         32.2027         5.85377         35.0159 
        1.63218         31.9625         5.79985         34.8601 
        1.63831         31.8655         5.74674         34.7334 
        1.64444         31.7246         5.69427         34.5899 
        1.65059          31.521         5.64233         34.4007 
        1.65673         31.3743          5.5911         34.2402 
        1.66285         31.2129         5.54064         34.1289 
        1.66898         31.0388         5.49079         34.0123 
        1.67512         30.8031         5.44146         33.8179 
        1.68127         30.7739         5.39269         33.6416 
         1.6874         30.6474         5.34462           33.51 
        1.69353         30.4005         5.29717         33.3788 
        1.69967         30.2826         5.25018         33.2329 
        1.70581         30.1404         5.20378         33.1028 
        1.71193          29.918         5.15812         32.9783 
        1.71806         29.8281         5.11291         32.8227 
        1.72421          29.593         5.06815          32.683 
        1.73035         29.5549         5.02398         32.5456 
        1.73649         29.3339         4.98034         32.3989 
        1.74262         29.1715         4.93726          32.261 
        1.74876         29.1757         4.89466         32.1192 
        1.75489         28.8969         4.85265         31.9843 
        1.76101         28.8615         4.81114         31.8537 
        1.76715         28.6355         4.77007         31.6961 
        1.77329         28.4862         4.72942         31.5839 
        1.77943         28.4062         4.68923         31.4849 
        1.78557         28.2649         4.64957         31.3385 
        1.79171         28.0662         4.61035         31.1958 
        1.79785         27.9758         4.57159         31.0748 
        1.80399         27.7994         4.53327         30.9598 
        1.81012         27.6326         4.49545         30.8267 
        1.81625         27.5512         4.45807         30.6818 
        1.82239         27.3748         4.42106         30.5644 
        1.82853           27.29         4.38449         30.4873 
        1.83466          27.104         4.34837         30.3498 
        1.84078         26.9833         4.31269         30.1765 
        1.84692         26.8681         4.27736         30.0849 
        1.85306         26.7478         4.24237         29.9857 
         1.8592         26.5268         4.20784         29.8483 
        1.86533         26.4947          4.1737         29.7191 
        1.87147          26.338         4.13991         29.5843 
