# k  (h/Mpc)    P(k)  (Mpc/h)^3    P_linear(k)  (Mpc/h)^3     P_NL(k)  ShotnoiseSubtracted = false
     0.00783031           25340         25490.6         25242.9 
       0.013688         27602.7         28467.7         28230.1 
       0.019231         25837.4         26297.1         26076.8 
      0.0249154         22317.6         22143.7         21974.1 
      0.0312784         17278.6           17375         17270.6 
      0.0375637         13522.8         13680.4         13635.7 
      0.0433917         11416.7         11385.3         11335.6 
      0.0492413         9954.78         9980.87         9941.77 
      0.0555754         9133.13         9091.18         9059.96 
      0.0619321         8210.19         8448.54         8414.12 
       0.067871         7701.49         7802.32         7780.97 
      0.0738098         7018.09          7005.8         6923.91 
      0.0800417         6129.58         6053.86         6037.33 
      0.0862327         5216.89         5126.26         5227.08 
      0.0921407          4556.8         4379.78         4517.33 
      0.0982031         4077.26         3817.78         4041.24 
       0.104506         3626.28         3448.33         3719.36 
       0.110769         3424.22         3241.63         3440.86 
       0.116806         3312.98         3117.74         3272.75 
       0.122832         3148.18          2996.7          3132.8 
       0.129052         2938.03         2825.11          2941.9 
       0.135211         2808.46         2596.86         2725.39 
       0.141259         2524.58         2338.48         2520.66 
       0.147318         2292.71         2083.16          2328.5 
       0.153489         2105.62         1860.96         2092.81 
       0.159709         2003.26         1693.95         1960.84 
       0.165845          1843.1         1584.59         1886.26 
       0.171974            1798         1515.95         1791.73 
       0.178125         1745.61         1466.77          1746.7 
       0.184229         1612.56         1417.37         1664.17 
        0.19034         1583.23         1354.07         1582.65 
       0.196428         1523.51         1274.07         1497.92 
       0.202534         1413.55         1182.68         1424.29 
       0.208729         1374.63         1089.39         1328.19 
       0.214876         1293.69         1006.58         1284.27 
       0.220989         1225.23         940.001         1235.31 
       0.227147         1186.25          889.73         1192.38 
        0.23329         1137.97         852.933          1159.5 
       0.239377         1131.64         823.925         1114.06 
       0.245482         1074.94         796.357         1066.67 
       0.251667         1035.86         765.573         1037.96 
       0.257832         1012.26         730.454         993.466 
       0.263955         961.243         692.274         955.173 
       0.270079          928.78         653.458         921.062 
        0.27624         888.583         616.871         885.907 
       0.282372         874.365          584.99         864.745 
        0.28843          854.32         558.715         844.476 
       0.294538         814.373         536.859         817.415 
       0.300721          797.63         517.967         793.357 
        0.30691          774.81         500.509         781.452 
       0.313033         742.748         483.202         753.183 
       0.319153          734.18          465.14         730.496 
       0.325316         720.985          446.18          712.79 
        0.33145         701.622         427.167         685.443 
       0.337538         676.553         408.963         669.798 
       0.343633         660.386         392.083         659.998 
       0.349808         645.316         376.773         647.366 
       0.355968         631.899         363.207         632.433 
       0.362074         608.822         351.162         619.886 
       0.368217         604.764         339.914         603.239 
       0.374374         595.446         329.055         589.186 
       0.380519         572.454         318.332          574.96 
       0.386598         566.928         307.694         568.302 
       0.392688         551.014         297.143         553.014 
        0.39888         540.276         286.691         541.117 
       0.405048         525.939         276.765         529.884 
       0.411186         525.778         267.543         519.096 
       0.417313         516.743             259         510.067 
       0.423458         504.605         251.037         500.728 
       0.429607           489.1         243.567         492.498 
       0.435692         482.004         236.512         478.675 
       0.441815         473.395         229.617          474.75 
       0.447964         464.928         222.859         468.068 
       0.454126         458.804          216.24         454.457 
       0.460267         452.098         209.812         451.563 
       0.466387         440.753         203.634         443.982 
        0.47254         437.481         197.706         435.926 
       0.478662         427.448         192.104         427.557 
       0.484765         420.932         186.796         421.463 
       0.490885         418.509         181.731         413.241 
       0.497035          407.22         176.865         408.305 
       0.503198          405.99         172.171         403.051 
       0.509342         398.143         167.632         395.693 
       0.515458         390.234         163.239         391.026 
       0.521598         387.615         158.963         385.939 
       0.527764         379.364         154.811         382.338 
       0.533884         374.106         150.834         377.006 
           0.54         370.968         147.008         370.698 
       0.546137         364.082         143.314         366.165 
       0.552299         361.539         139.754          360.79 
       0.558452         355.365         136.337         356.672 
       0.564573         354.244         133.058         353.377 
       0.570708         347.345         129.876         348.668 
       0.576825         341.779         126.799         342.581 
       0.582926         340.415          123.82         339.884 
       0.589034         333.503         120.929         335.088 
       0.595184         330.995         118.111         330.015 
       0.601379         325.117         115.366         326.131 
       0.607522         319.259         112.734         320.905 
       0.613639         318.012         110.199         320.395 
       0.619772         315.912         107.737         318.197 
       0.625918          309.77         105.347         312.611 
       0.632068         308.463          103.03         310.072 
       0.638161         304.257         100.803         307.087 
         0.6443         300.008         98.6267         303.098 
       0.650464         297.456         96.5069         297.816 
       0.656582         293.624         94.4643         295.972 
       0.662703         292.615         92.4799         293.223 
       0.668861         286.923          90.541         291.751 
       0.675024         285.848         88.6563         288.793 
       0.681124         279.783         86.8443         284.285 
       0.687237         279.089         85.0799         281.229 
       0.693381         274.827         83.3568         278.397 
       0.699536         274.256         81.6791         276.534 
       0.705665         270.137         80.0554         272.157 
       0.711789         267.481         78.4779         270.875 
       0.717957         265.607         76.9325         269.659 
        0.72409         262.073         75.4377         265.725 
       0.730186         262.262          73.992         262.813 
       0.736317         257.604         72.5764         261.259 
       0.742472         255.796         71.1929         259.026 
       0.748622         254.324         69.8469             256 
        0.75476         251.194         68.5387         256.084 
       0.760888         249.605         67.2662         252.457 
       0.767043         246.349         66.0211         249.752 
       0.773185         243.604         64.8103         248.046 
       0.779291         242.077         63.6368         245.423 
       0.785407          240.35         62.4909         243.454 
       0.791564         238.767         61.3662         241.481 
       0.797719         235.096         60.2698         239.486 
       0.803834         234.252         59.2074         238.092 
       0.809972         230.945         58.1668         235.904 
       0.816124         229.311         57.1492          233.55 
       0.822261         227.164         56.1588         232.619 
       0.828378         225.961         55.1949         230.336 
       0.834502          222.78          54.253         228.609 
       0.840667         222.043          53.327         226.481 
       0.846816         219.455         52.4254          224.99 
       0.852925         219.265         51.5504         223.411 
       0.859047           215.7         50.6936         221.341 
       0.865192         214.923         49.8536         219.285 
       0.871341         212.988         49.0321          217.85 
       0.877463         211.494         48.2329         216.703 
       0.883569         210.395         47.4537          216.35 
       0.889708         208.406         46.6878         213.375 
       0.895864          205.58         45.9368         212.343 
       0.902008         204.392          45.204         210.121 
       0.908149         202.001         44.4877         208.563 
       0.914301         201.389         43.7858         206.849 
       0.920448         199.076         43.0998         205.899 
       0.926574          197.65         42.4309         204.342 
       0.932687         197.145         41.7777         202.533 
       0.938823         195.201          41.136         202.165 
       0.944975         194.813         40.5063         200.281 
       0.951105         192.621         39.8922         198.968 
       0.957225           190.9         39.2919         197.421 
       0.963368         190.619         38.7019         196.119 
       0.969511         188.095         38.1241          194.91 
       0.975621         185.856         37.5613         193.612 
       0.981748         185.394         37.0084         192.755 
       0.987916         184.184         36.4632         191.136 
        0.99406         182.456         35.9311         189.884 
        1.00019         181.108         35.4107         188.516 
        1.00632         180.183         34.9011         187.052 
        1.01246         178.835         34.4009         185.564 
        1.01859         177.117         33.9113         184.741 
        1.02471         175.728         33.4318         183.588 
        1.03085         175.034           32.96         182.606 
        1.03698         173.714         32.4984         181.923 
        1.04314         172.779         32.0437         180.388 
        1.04929         171.304         31.5987         178.947 
        1.05541         171.145          31.164         178.106 
        1.06154         169.319         30.7365          177.38 
        1.06769         168.146         30.3163          176.13 
        1.07382         166.108         29.9053         175.096 
        1.07993         165.838         29.5029         174.095 
        1.08607          164.86         29.1063         172.658 
        1.09222         163.314         28.7166         171.779 
        1.09836         162.152         28.3345         170.825 
        1.10449         161.446         27.9598         170.251 
        1.11063         160.237         27.5915         168.792 
        1.11677         158.753           27.23         167.764 
         1.1229         158.475         26.8756         166.706 
        1.12903         156.515         26.5272         165.672 
        1.13518         155.615         26.1847         164.837 
        1.14131         154.802         25.8485         163.871 
        1.14745         153.744         25.5184         162.543 
        1.15359         152.641          25.194         162.109 
        1.15973         151.961         24.8751         161.031 
        1.16584         151.012         24.5632          160.55 
        1.17197         150.186         24.2561         159.525 
        1.17811         148.422         23.9534         158.365 
        1.18424         147.854         23.6568         157.425 
        1.19038         146.909         23.3643         157.059 
        1.19652         145.495          23.077         155.568 
        1.20267          144.71         22.7944         155.219 
        1.20881         143.942         22.5167         154.168 
        1.21495         143.157          22.244         153.246 
        1.22108         141.965         21.9759         152.368 
         1.2272         141.387         21.7129         151.796 
        1.23334         140.106         21.4536         150.983 
        1.23949         139.732         21.1979         150.023 
        1.24562          138.53         20.9471         148.834 
        1.25174          137.98         20.7007         148.117 
        1.25789         136.815         20.4575         147.222 
        1.26402         136.017         20.2187         146.779 
        1.27014         135.281         19.9843         145.934 
        1.27628         134.694         19.7529         145.626 
        1.28244         133.469         19.5248         144.614 
        1.28858         132.604         19.3005          143.92 
        1.29471          131.63         19.0803         143.117 
        1.30084         131.093         18.8637         142.069 
        1.30697         130.268         18.6502         141.328 
        1.31312         129.717         18.4396         140.524 
        1.31925         128.645          18.233         140.021 
        1.32537          128.13         18.0297         139.277 
        1.33151         126.866         17.8289         138.587 
        1.33765         126.598         17.6312         137.943 
        1.34378         125.725         17.4369         137.193 
        1.34992         124.807         17.2454         136.456 
        1.35606         124.146         17.0564         135.563 
         1.3622         123.352         16.8705         135.204 
        1.36833         122.795         16.6879         134.381 
        1.37445         121.852          16.508         133.514 
        1.38059         121.019         16.3303          132.92 
        1.38675          120.16         16.1548         132.141 
        1.39288         119.496         15.9825         131.651 
        1.39901         118.865         15.8128         130.979 
        1.40515         118.022         15.6452         130.226 
         1.4113         117.623         15.4801          129.58 
        1.41742         116.808          15.318         128.999 
        1.42355         115.803          15.158         128.213 
         1.4297          115.17         14.9997         127.687 
        1.43585         114.892         14.8438         127.208 
        1.44198         113.967         14.6907          126.66 
        1.44809          113.43           14.54         125.863 
        1.45423         112.742         14.3909         125.143 
        1.46036          112.13         14.2442         124.557 
        1.46649         111.136         14.0994         124.056 
        1.47263         110.942         13.9566         123.479 
        1.47877         109.949         13.8158         122.648 
        1.48491         109.173         13.6767         122.056 
        1.49104         108.626         13.5398         121.648 
        1.49718         107.831         13.4047          121.01 
        1.50333         107.176         13.2712          120.32 
        1.50947         106.658         13.1399         119.773 
         1.5156         106.001         13.0104         119.304 
        1.52172         105.409         12.8828         118.783 
        1.52787         104.777         12.7566         118.117 
          1.534         104.247         12.6322         117.573 
        1.54013         103.973         12.5096         117.141 
        1.54627         102.998         12.3884         116.607 
        1.55241         102.433         12.2688         115.972 
        1.55855         101.666          12.151         115.343 
        1.56467           101.2          12.035         114.835 
         1.5708         100.857         11.9202         114.254 
        1.57695         100.164         11.8068         113.713 
        1.58308         99.2725         11.6951         113.289 
        1.58922         98.8324         11.5847         112.773 
        1.59535         98.2108         11.4758          112.26 
         1.6015         97.5812         11.3682         111.738 
        1.60764         97.1414          11.262         111.188 
        1.61376         96.6782         11.1574         110.703 
        1.61989          96.081         11.0541         110.239 
        1.62604         95.7056         10.9519         109.519 
        1.63218          94.756          10.851         108.953 
        1.63831           94.47         10.7516         108.659 
        1.64444         93.8422         10.6535         108.167 
        1.65059         93.1335         10.5563         107.638 
        1.65673         92.7317         10.4604         107.089 
        1.66285         92.5161          10.366         106.647 
        1.66898         91.8376         10.2728         106.293 
        1.67512         90.8792         10.1805         105.721 
        1.68127          90.736         10.0892         105.246 
         1.6874         90.2587          9.9993         104.834 
        1.69353         89.4927         9.91052         104.279 
        1.69967          89.171         9.82261         103.847 
        1.70581         88.4291          9.7358         103.389 
        1.71193         88.2066         9.65037         102.866 
        1.71806         87.4453         9.56578         102.427 
        1.72421         86.9213         9.48205         102.077 
        1.73035         86.6529          9.3994         101.641 
        1.73649           86.15         9.31776         101.062 
        1.74262         85.4288         9.23716         100.488 
        1.74876         84.9548         9.15746         100.058 
        1.75489         84.7102         9.07886         99.7185 
        1.76101         84.2881         9.00121         99.3627 
        1.76715         83.7332         8.92436         98.9332 
        1.77329         83.2467         8.84831         98.4607 
        1.77943         82.5802         8.77312         98.0308 
        1.78557         82.1174         8.69891         97.6526 
        1.79171         81.6765         8.62555         97.1755 
        1.79785         81.1937         8.55302         96.6772 
        1.80399         80.6595         8.48133         96.3018 
        1.81012         80.3379         8.41057         95.9665 
        1.81625         79.6306         8.34064         95.5223 
        1.82239         79.4137          8.2714         95.0325 
        1.82853         78.9159         8.20298         94.6553 
        1.83466         78.4518          8.1354         94.2202 
        1.84078         78.1064         8.06865         93.7757 
        1.84692         77.5857         8.00254         93.5078 
        1.85306         77.0933         7.93709         93.0376 
         1.8592         76.7154         7.87247         92.5078 
        1.86533         76.2084         7.80861         92.2439 
        1.87147         75.8065         7.74538         91.9003 
        1.87761         75.4557         7.68283         91.4444 
