# k  (h/Mpc)    Pcb(k)  (Mpc/h)^3    Pcb_linear(k) (Mpc/h)^3    Pcb_NL(k) (Mpc/h)^3   ShotnoiseSubtracted = false
     0.00783031         6863.83         6914.44         6852.67 
       0.013688         7567.14         7704.97          7654.2 
       0.019231         7053.39         7114.46         7072.06 
      0.0249154         6023.94         5989.97         5966.21 
      0.0312784         4702.79         4699.74         4697.45 
      0.0375637         3687.66         3700.31         3703.39 
      0.0433917         3094.36          3079.5         3082.36 
      0.0492413         2700.66         2699.62          2702.9 
      0.0555754         2474.62         2458.97          2459.3 
      0.0619321         2254.03         2285.15         2283.52 
       0.067871         2105.14         2110.36         2108.48 
      0.0738098         1899.33         1894.92         1888.74 
      0.0800417         1652.01         1637.44         1637.22 
      0.0862327         1398.01         1386.55         1396.65 
      0.0921407         1200.57         1184.64         1198.24 
      0.0982031         1060.14         1032.63         1053.48 
       0.104506         945.069         932.705         957.201 
       0.110769         890.642         876.796         894.057 
       0.116806         863.944         843.286         856.271 
       0.122832         821.204         810.548         822.106 
       0.129052         776.174         764.135         773.585 
       0.135211         723.832         702.399         713.548 
       0.141259         649.543         632.514         648.058 
       0.147318          578.59         563.453         585.853 
       0.153489         523.203         503.352         523.509 
       0.159709         485.066         458.182         481.236 
       0.165845           445.7         428.603         455.633 
       0.171974         436.344         410.035         433.321 
       0.178125         420.465         396.734         420.799 
       0.184229         398.695         383.371         404.789 
        0.19034         385.789         366.249           385.6 
       0.196428         365.934         344.611         361.923 
       0.202534         334.501         319.892         339.238 
       0.208729         318.732         294.659         314.847 
       0.214876         299.029         272.263         297.316 
       0.220989         275.887         254.252         280.641 
       0.227147          267.03         240.655         266.635 
        0.23329          256.37         230.702         257.436 
       0.239377         250.385         222.856         248.127 
       0.245482         238.826           215.4         237.567 
       0.251667         228.195         207.074         230.179 
       0.257832         223.297         197.575         219.511 
       0.263955         208.938         187.247         208.916 
       0.270079         198.266         176.748          199.08 
        0.27624         188.208         166.852         188.984 
       0.282372         180.968         158.229         181.551 
        0.28843         177.875         151.122         174.599 
       0.294538         169.098          145.21          168.55 
       0.300721         162.318           140.1         163.562 
        0.30691         159.258         135.378         158.671 
       0.313033         151.891         130.698         152.706 
       0.319153         148.725         125.812         147.566 
       0.325316         143.028         120.684         142.797 
        0.33145         137.778         115.541         136.894 
       0.337538         132.312         110.617         131.766 
       0.343633         127.706         106.051         128.055 
       0.349808         123.276          101.91         124.403 
       0.355968         119.864         98.2413         121.157 
       0.362074         116.808         94.9829         117.232 
       0.368217         113.977         91.9406         113.087 
       0.374374         110.747         89.0034         109.973 
       0.380519         106.022         86.1023         106.548 
       0.386598         103.368         83.2259         103.868 
       0.392688          99.786         80.3716         100.845 
        0.39888           97.82         77.5448         97.8002 
       0.405048         95.0979         74.8599         95.3003 
       0.411186         93.0036         72.3654         92.8591 
       0.417313         90.3582         70.0548         89.9648 
       0.423458         87.9376         67.9007         87.8603 
       0.429607         85.7614         65.8805          85.673 
       0.435692         84.2808         63.9719         83.4681 
       0.441815         81.4789         62.1072         81.8918 
       0.447964         78.6275         60.2792         79.6289 
       0.454126         77.1429          58.489         77.2322 
       0.460267         76.2646         56.7503           76.06 
       0.466387         74.0447         55.0794         73.9881 
        0.47254         73.0082         53.4758         72.4088 
       0.478662          70.315         51.9606         70.8204 
       0.484765         69.0071         50.5249         68.7567 
       0.490885         67.2014          49.155         67.6544 
       0.497035         66.3981         47.8388         66.4378 
       0.503198         64.9002         46.5691         64.8158 
       0.509342         63.0889         45.3414         63.5982 
       0.515458         61.9052         44.1532         62.5999 
       0.521598         60.2977         42.9967         60.7629 
       0.527764          59.554         41.8735         59.3008 
       0.533884         58.7668          40.798            58.3 
           0.54         57.0758         39.7628         57.1809 
       0.546137         55.5235          38.764         56.2694 
       0.552299         54.4086         37.8009         54.8019 
       0.558452         53.3402         36.8767         53.6662 
       0.564573         52.8819         35.9897         52.9685 
       0.570708         51.3224         35.1291         52.0107 
       0.576825         50.7179         34.2968         50.9348 
       0.582926         49.9732         33.4911         49.9781 
       0.589034         48.8814         32.7091         49.3642 
       0.595184         48.1121         31.9469         48.3123 
       0.601379         46.9459         31.2045         47.6226 
       0.607522         45.9179         30.4926         46.4505 
       0.613639         45.4468         29.8067         45.8507 
       0.619772         44.4419         29.1409         45.0342 
       0.625918         43.9058         28.4945         44.3964 
       0.632068         43.1372         27.8676         43.5642 
       0.638161         42.2779         27.2654         42.9099 
         0.6443         41.8797         26.6767         42.0997 
       0.650464         40.7788         26.1034         41.3051 
       0.656582         40.5518         25.5509         40.8404 
       0.662703          39.826         25.0141         40.0473 
       0.668861         38.9138         24.4897          39.566 
       0.675024         38.6085         23.9799         38.8019 
       0.681124          38.078         23.4898          38.213 
       0.687237         37.3064         23.0126         37.6389 
       0.693381         36.7429         22.5465         36.9832 
       0.699536         36.3374         22.0927         36.6692 
       0.705665         35.7225         21.6535         36.1807 
       0.711789         35.1162         21.2268         35.3631 
       0.717957         34.5001         20.8089         35.0293 
        0.72409         34.0924         20.4045         34.6087 
       0.730186         33.8251         20.0135         34.0975 
       0.736317         33.1729         19.6306         33.5317 
       0.742472          32.699         19.2564         33.0935 
       0.748622         32.1448         18.8923         32.6102 
        0.75476         31.6656         18.5385         32.1813 
       0.760888         31.5301         18.1943         31.7323 
       0.767043          30.812         17.8575         31.4466 
       0.773185         30.3479           17.53         31.0268 
       0.779291         29.9792         17.2126          30.629 
       0.785407         29.5948         16.9027         30.1318 
       0.791564          29.473         16.5984         29.7507 
       0.797719         28.7735         16.3019         29.5182 
       0.803834         28.6141         16.0145           29.04 
       0.809972         28.1841         15.7331         28.6622 
       0.816124         27.8283         15.4578         28.3504 
       0.822261         27.3919         15.1899         27.9526 
       0.828378         27.2374         14.9292         27.5346 
       0.834502         26.8623         14.6745         27.3178 
       0.840667         26.5675          14.424         27.0229 
       0.846816         26.1671         14.1801         26.6944 
       0.852925         25.8869         13.9434         26.4235 
       0.859047         25.7067         13.7117         26.0565 
       0.865192         25.2641         13.4845         25.7661 
       0.871341         24.9719         13.2623         25.4883 
       0.877463         24.6593         13.0461         25.2054 
       0.883569         24.5209         12.8354         24.9757 
       0.889708         24.1838         12.6282         24.6618 
       0.895864         23.8865         12.4251         24.3594 
       0.902008         23.6502         12.2269         24.0908 
       0.908149         23.3136         12.0331         23.9106 
       0.914301          23.082         11.8433         23.7141 
       0.920448         22.9103         11.6577         23.3585 
       0.926574         22.5711         11.4768         23.0907 
       0.932687         22.2964         11.3001         22.8777 
       0.938823         21.9866         11.1265          22.571 
       0.944975         21.7806         10.9562         22.3744 
       0.951105         21.6151         10.7901         22.1628 
       0.957225         21.4023         10.6277         21.9186 
       0.963368         21.1436         10.4682         21.6841 
       0.969511         20.9278         10.3119         21.4432 
       0.975621         20.7524         10.1596          21.295 
       0.981748         20.4975         10.0101         21.0855 
       0.987916          20.312         9.86263         20.8868 
        0.99406         20.0727         9.71871         20.6471 
        1.00019         19.9031         9.57795          20.444 
        1.00632         19.7443         9.44012         20.2667 
        1.01246         19.5043         9.30481         20.0698 
        1.01859         19.3202         9.17238          19.937 
        1.02471         19.1237         9.04271          19.742 
        1.03085         18.9809          8.9151         19.5128 
        1.03698         18.8447         8.79023         19.3239 
        1.04314         18.6224         8.66724         19.1213 
        1.04929         18.3419         8.54689         19.0081 
        1.05541          18.302         8.42931         18.9013 
        1.06154         18.1234         8.31366          18.658 
        1.06769         17.8537             8.2         18.4651 
        1.07382         17.7342         8.08885         18.3331 
        1.07993         17.5996         7.98002         18.1551 
        1.08607         17.4108         7.87274           18.02 
        1.09222           17.27         7.76733         17.8959 
        1.09836           17.08         7.66397          17.729 
        1.10449          16.993         7.56263         17.5564 
        1.11063         16.8172         7.46301         17.3933 
        1.11677         16.7387         7.36522         17.2319 
         1.1229         16.5422         7.26936         17.1205 
        1.12903         16.3682         7.17513         16.9806 
        1.13518         16.3164          7.0825         16.8234 
        1.14131         16.1442         6.99155         16.6828 
        1.14745         15.9608         6.90226         16.5764 
        1.15359          15.766         6.81452         16.3955 
        1.15973         15.7067         6.72826         16.3023 
        1.16584         15.5564         6.64389         16.1528 
        1.17197         15.3841         6.56085         16.0689 
        1.17811         15.2837         6.47898          15.875 
        1.18424         15.1025         6.39874         15.7625 
        1.19038         15.0332         6.31964         15.6943 
        1.19652         14.8647          6.2419          15.513 
        1.20267         14.8092         6.16548         15.4284 
        1.20881         14.6476         6.09036         15.3065 
        1.21495         14.5864         6.01661         15.2086 
        1.22108         14.4827         5.94409         15.0721 
         1.2272         14.3251         5.87295         14.9909 
        1.23334          14.256         5.80281         14.8655 
        1.23949         14.1212         5.73364         14.7127 
        1.24562         13.9735         5.66581         14.6284 
        1.25174         13.9048         5.59917         14.5331 
        1.25789         13.8049          5.5334         14.4275 
        1.26402         13.6945         5.46881         14.2931 
        1.27014         13.5975         5.40541         14.2079 
        1.27628         13.4634         5.34282         14.0933 
        1.28244         13.4543          5.2811         14.0377 
        1.28858         13.2785         5.22044         13.9169 
        1.29471         13.1568         5.16088         13.8236 
        1.30084         13.0558         5.10229         13.7517 
        1.30697         12.9801         5.04453         13.6203 
        1.31312         12.8827         4.98758         13.5304 
        1.31925         12.7971          4.9317         13.4487 
        1.32537          12.678         4.87672         13.3711 
        1.33151         12.5718         4.82239         13.2793 
        1.33765          12.549         4.76892         13.1746 
        1.34378         12.4509         4.71637         13.1012 
        1.34992         12.3253         4.66457         13.0225 
        1.35606         12.2194         4.61344         12.9223 
         1.3622         12.1551         4.56317           12.84 
        1.36833         12.1005         4.51377         12.7759 
        1.37445         11.9994         4.46513         12.6743 
        1.38059         11.8985         4.41705         12.5911 
        1.38675         11.8528         4.36957         12.5299 
        1.39288         11.7321         4.32298         12.4278 
        1.39901           11.64         4.27709          12.349 
        1.40515         11.5904         4.23176         12.2633 
         1.4113         11.5165          4.1871         12.1803 
        1.41742         11.4432         4.14326          12.128 
        1.42355         11.3356         4.09997         12.0654 
         1.4297         11.2757         4.05716         11.9575 
        1.43585         11.1934         4.01498         11.9015 
        1.44198         11.1579         3.97357         11.8326 
        1.44809         11.0631         3.93282         11.7686 
        1.45423         10.9865         3.89249         11.6644 
        1.46036         10.9229         3.85279         11.5956 
        1.46649         10.8398         3.81364         11.5525 
        1.47263         10.7685           3.775         11.4982 
        1.47877         10.6846         3.73692         11.4187 
        1.48491         10.6319          3.6993         11.3434 
        1.49104         10.5627         3.66228         11.2715 
        1.49718         10.5302         3.62574         11.2195 
        1.50333         10.4653         3.58963          11.153 
        1.50947         10.3596          3.5541         11.0915 
         1.5156         10.3278         3.51909         11.0326 
        1.52172         10.2535         3.48456         10.9588 
        1.52787         10.2202         3.45043         10.8861 
          1.534         10.1343         3.41679         10.8288 
        1.54013          10.089         3.38363         10.7626 
        1.54627         9.99709         3.35085         10.6919 
        1.55241         9.92201          3.3185         10.6352 
        1.55855         9.88351         3.28663           10.59 
        1.56467         9.81394         3.25526         10.5417 
         1.5708          9.7807         3.22421          10.474 
        1.57695         9.71851         3.19352         10.4073 
        1.58308         9.64759         3.16331         10.3617 
        1.58922         9.59036         3.13346         10.3142 
        1.59535         9.53401           3.104         10.2455 
         1.6015         9.47295         3.07489          10.192 
        1.60764         9.42159         3.04616         10.1365 
        1.61376         9.37232         3.01788         10.0732 
        1.61989         9.28629         2.98994         10.0468 
        1.62604         9.25029         2.96229         9.99626 
        1.63218         9.19343           2.935         9.94032 
        1.63831         9.14032         2.90812         9.90023 
        1.64444         9.09583         2.88157         9.84733 
        1.65059         9.04087         2.85529         9.78244 
        1.65673         8.98722         2.82936         9.72999 
        1.66285         8.92207         2.80383         9.68777 
        1.66898         8.88409          2.7786         9.63705 
        1.67512          8.8672         2.75364         9.57537 
        1.68127         8.79585         2.72896         9.53579 
         1.6874         8.76639         2.70463         9.48982 
        1.69353          8.6726         2.68062         9.40815 
        1.69967         8.63202         2.65684         9.37643 
        1.70581         8.60269         2.63336          9.3428 
        1.71193         8.54265         2.61026         9.29603 
        1.71806         8.49299         2.58738         9.27384 
        1.72421         8.45465         2.56473         9.22086 
        1.73035         8.41148         2.54237         9.17375 
        1.73649          8.3593         2.52029          9.1414 
        1.74262         8.32708         2.49849         9.07251 
        1.74876         8.28001         2.47693         9.02097 
        1.75489         8.22739         2.45567         8.98831 
        1.76101         8.16773         2.43467         8.95078 
        1.76715          8.1472         2.41388         8.90552 
        1.77329         8.09757         2.39331         8.85304 
        1.77943         8.05398         2.37297         8.80443 
        1.78557         8.04104          2.3529           8.767 
        1.79171          7.9703         2.33306         8.72984 
        1.79785         7.91695         2.31344         8.69181 
        1.80399         7.88597         2.29405         8.65594 
        1.81012         7.84673         2.27491         8.61769 
        1.81625         7.80681           2.256         8.58236 
        1.82239         7.76121         2.23727         8.54819 
        1.82853         7.72218         2.21876         8.50694 
        1.83466         7.67257         2.20048         8.46933 
        1.84078         7.63353         2.18243         8.43099 
        1.84692         7.61965         2.16455         8.37912 
        1.85306         7.57316         2.14684          8.3422 
         1.8592         7.53657         2.12937          8.3168 
        1.86533         7.48981         2.11209         8.27678 
        1.87147         7.45145         2.09499         8.23083 
