# k  (h/Mpc)    P(k)  (Mpc/h)^3    P_linear(k)  (Mpc/h)^3     P_NL(k)  ShotnoiseSubtracted = false
     0.00783031         6779.91          6829.9         6768.89 
       0.013688         7474.63         7610.76         7560.62 
       0.019231         6967.16         7027.47         6985.59 
      0.0249154         5950.29         5916.73         5893.27 
      0.0312784          4645.3         4642.28         4640.02 
      0.0375637         3642.57         3655.07         3658.11 
      0.0433917         3056.53         3041.85         3044.67 
      0.0492413         2667.64         2666.61         2669.86 
      0.0555754         2444.36         2428.91         2429.23 
      0.0619321         2226.48         2257.21          2255.6 
       0.067871          2079.4         2084.56          2082.7 
      0.0738098         1876.11         1871.75         1865.65 
      0.0800417         1631.81         1617.42         1617.21 
      0.0862327         1380.91         1369.59         1379.57 
      0.0921407         1185.89         1170.15         1183.59 
      0.0982031         1047.18         1020.01          1040.6 
       0.104506         933.514           921.3         945.497 
       0.110769         879.753         866.076         883.126 
       0.116806         853.381         832.976         845.802 
       0.122832         811.164         800.639         812.055 
       0.129052         766.684         754.792         764.127 
       0.135211         714.982         693.812         704.825 
       0.141259         641.601          624.78         640.135 
       0.147318         571.516         556.564         578.691 
       0.153489         516.807         497.198         517.108 
       0.159709         479.135          452.58         475.352 
       0.165845         440.251         423.362         450.062 
       0.171974         431.009         405.022         428.023 
       0.178125         415.324         391.884         415.654 
       0.184229         393.821         378.684          399.84 
        0.19034         381.072         361.772         380.887 
       0.196428          361.46         340.397         357.498 
       0.202534         330.412         315.981          335.09 
       0.208729         314.835         291.056         310.997 
       0.214876         295.373         268.933         293.679 
       0.220989         272.514         251.144          277.21 
       0.227147         263.766         237.713         263.376 
        0.23329         253.236         227.882         254.289 
       0.239377         247.324         220.132         245.094 
       0.245482         235.906         212.766         234.662 
       0.251667         225.405         204.541         227.364 
       0.257832         220.567         195.159         216.826 
       0.263955         206.383         184.958         206.361 
       0.270079         195.842         174.587         196.646 
        0.27624         185.907         164.812         186.674 
       0.282372         178.755         156.294         179.331 
        0.28843           175.7         149.274         172.464 
       0.294538          167.03         143.435         166.489 
       0.300721         160.334         138.387         161.562 
        0.30691         157.311         133.723         156.731 
       0.313033         150.034         129.099         150.839 
       0.319153         146.906         124.274         145.762 
       0.325316          141.28         119.208         141.051 
        0.33145         136.093         114.128          135.22 
       0.337538         130.694         109.265         130.155 
       0.343633         126.145         104.755         126.489 
       0.349808         121.769         100.664         122.882 
       0.355968         118.398         97.0397         119.676 
       0.362074          115.38         93.8217         115.799 
       0.368217         112.583         90.8164         111.704 
       0.374374         109.393         87.9151         108.629 
       0.380519         104.726         85.0502         105.246 
       0.386598         102.104         82.2081         102.598 
       0.392688          98.566         79.3891         99.6127 
        0.39888         96.6241         76.5967         96.6044 
       0.405048         93.9353         73.9446         94.1352 
       0.411186         91.8665         71.4806         91.7237 
       0.417313         89.2534         69.1983         88.8648 
       0.423458         86.8624         67.0706         86.7862 
       0.429607         84.7128         65.0749         84.6255 
       0.435692         83.2504         63.1899         82.4478 
       0.441815         80.4827         61.3479         80.8905 
       0.447964         77.6661         59.5423         78.6554 
       0.454126         76.1997         57.7738         76.2879 
       0.460267         75.3321         56.0565         75.1301 
       0.466387         73.1394         54.4059         73.0835 
        0.47254         72.1156          52.822         71.5235 
       0.478662         69.4554         51.3253         69.9545 
       0.484765         68.1634         49.9072         67.9161 
       0.490885         66.3798          48.554         66.8272 
       0.497035         65.5863         47.2539         65.6255 
       0.503198         64.1067         45.9998         64.0234 
       0.509342         62.3176          44.787         62.8205 
       0.515458         61.1483         43.6134         61.8346 
       0.521598         59.5605          42.471           60.02 
       0.527764         58.8259         41.3615         58.5758 
       0.533884         58.0483         40.2991         57.5872 
           0.54          56.378         39.2767         56.4818 
       0.546137         54.8446           38.29         55.5813 
       0.552299         53.7434         37.3388         54.1319 
       0.558452          52.688         36.4258           53.01 
       0.564573         52.2354         35.5496         52.3208 
       0.570708         50.6949         34.6997         51.3749 
       0.576825         50.0978         33.8774          50.312 
       0.582926         49.3622         33.0817          49.367 
       0.589034         48.2838         32.3092         48.7606 
       0.595184         47.5238         31.5563         47.7216 
       0.601379         46.3719          30.823         47.0403 
       0.607522         45.3565         30.1198         45.8826 
       0.613639         44.8912         29.4423         45.2902 
       0.619772         43.8985         28.7846         44.4836 
       0.625918          43.369         28.1461         43.8536 
       0.632068         42.6098         27.5269         43.0316 
       0.638161          41.761          26.932         42.3853 
         0.6443         41.3677         26.3506          41.585 
       0.650464         40.2803         25.7842         40.8001 
       0.656582          40.056         25.2385          40.341 
       0.662703         39.3391         24.7083         39.5576 
       0.668861          38.438         24.1903         39.0822 
       0.675024         38.1365         23.6867         38.3275 
       0.681124         37.6124         23.2026         37.7458 
       0.687237         36.8503         22.7312         37.1787 
       0.693381         36.2936         22.2708          36.531 
       0.699536         35.8932         21.8226         36.2209 
       0.705665         35.2858         21.3888         35.7383 
       0.711789         34.6869         20.9673         34.9307 
       0.717957         34.0783         20.5544         34.6011 
        0.72409         33.6755         20.1551         34.1856 
       0.730186         33.4115         19.7688         33.6807 
       0.736317         32.7673         19.3906         33.1217 
       0.742472         32.2992         19.0209         32.6889 
       0.748622         31.7518         18.6613         32.2115 
        0.75476         31.2784         18.3118         31.7878 
       0.760888         31.1446         17.9718         31.3443 
       0.767043         30.4353         17.6392         31.0621 
       0.773185         29.9768         17.3157         30.6475 
       0.779291         29.6127         17.0022         30.2545 
       0.785407          29.233          16.696         29.7634 
       0.791564         29.1126         16.3955          29.387 
       0.797719         28.4217         16.1026         29.1573 
       0.803834         28.2642         15.8187         28.6849 
       0.809972         27.8395         15.5407         28.3117 
       0.816124         27.4881         15.2688         28.0038 
       0.822261          27.057         15.0042         27.6109 
       0.828378         26.9044         14.7467          27.198 
       0.834502         26.5339          14.495         26.9839 
       0.840667         26.2427         14.2476         26.6925 
       0.846816         25.8472         14.0068         26.3681 
       0.852925         25.5704          13.773         26.1004 
       0.859047         25.3924         13.5441         25.7379 
       0.865192         24.9553         13.3196         25.4511 
       0.871341         24.6666         13.1001         25.1766 
       0.877463         24.3578         12.8866         24.8972 
       0.883569         24.2211         12.6784         24.6703 
       0.889708         23.8881         12.4738         24.3603 
       0.895864         23.5945         12.2732         24.0616 
       0.902008         23.3611         12.0774         23.7963 
       0.908149         23.0285          11.886         23.6183 
       0.914301         22.7998         11.6985         23.4241 
       0.920448         22.6302         11.5152         23.0729 
       0.926574         22.2952         11.3365         22.8084 
       0.932687         22.0238          11.162          22.598 
       0.938823         21.7178         10.9905         22.2951 
       0.944975         21.5143         10.8223         22.1008 
       0.951105         21.3508         10.6582         21.8918 
       0.957225         21.1406         10.4978         21.6506 
       0.963368         20.8851         10.3402          21.419 
       0.969511         20.6719         10.1858         21.1811 
       0.975621         20.4987         10.0354         21.0346 
       0.981748         20.2469         9.88771         20.8277 
       0.987916         20.0636         9.74205         20.6314 
        0.99406         19.8273         9.59988         20.3947 
        1.00019         19.6597         9.46085         20.1941 
        1.00632         19.5029          9.3247         20.0189 
        1.01246         19.2658         9.19105         19.8245 
        1.01859         19.0839         9.06024         19.6933 
        1.02471         18.8899         8.93215         19.5006 
        1.03085         18.7488          8.8061         19.2742 
        1.03698         18.6143         8.68276         19.0877 
        1.04314         18.3947         8.56127         18.8875 
        1.04929         18.1176         8.44239         18.7757 
        1.05541         18.0783         8.32625         18.6702 
        1.06154         17.9018         8.21201         18.4299 
        1.06769         17.6355         8.09975         18.2394 
        1.07382         17.5173         7.98996         18.1089 
        1.07993         17.3844         7.88245         17.9331 
        1.08607         17.1979         7.77648         17.7997 
        1.09222         17.0588         7.67236         17.6771 
        1.09836         16.8712         7.57027         17.5123 
        1.10449         16.7852         7.47017         17.3418 
        1.11063         16.6116         7.37176         17.1806 
        1.11677          16.534         7.27517         17.0212 
         1.1229         16.3399         7.18049         16.9112 
        1.12903         16.1681         7.08741          16.773 
        1.13518         16.1169         6.99591         16.6177 
        1.14131         15.9468         6.90607         16.4788 
        1.14745         15.7656         6.81787         16.3738 
        1.15359         15.5732          6.7312         16.1951 
        1.15973         15.5147           6.646          16.103 
        1.16584         15.3662         6.56266         15.9553 
        1.17197          15.196         6.48064         15.8725 
        1.17811         15.0968         6.39976         15.6809 
        1.18424         14.9178         6.32051         15.5698 
        1.19038         14.8494         6.24237         15.5024 
        1.19652          14.683         6.16559         15.3233 
        1.20267         14.6282          6.0901         15.2398 
        1.20881         14.4686          6.0159         15.1193 
        1.21495         14.4081         5.94305         15.0227 
        1.22108         14.3057         5.87142         14.8878 
         1.2272           14.15         5.80114         14.8076 
        1.23334         14.0817         5.73186         14.6837 
        1.23949         13.9486         5.66354         14.5328 
        1.24562         13.8027         5.59653         14.4495 
        1.25174         13.7348         5.53071         14.3554 
        1.25789         13.6362         5.46575         14.2511 
        1.26402          13.527         5.40195         14.1183 
        1.27014         13.4312         5.33932         14.0342 
        1.27628         13.2988         5.27749          13.921 
        1.28244         13.2898         5.21653         13.8661 
        1.28858         13.1161         5.15662         13.7467 
        1.29471          12.996         5.09778         13.6546 
        1.30084         12.8962         5.03991         13.5835 
        1.30697         12.8214         4.98286         13.4537 
        1.31312         12.7252          4.9266         13.3649 
        1.31925         12.6407          4.8714         13.2842 
        1.32537          12.523          4.8171         13.2076 
        1.33151         12.4181         4.76343          13.117 
        1.33765         12.3956         4.71061         13.0135 
        1.34378         12.2987          4.6587          12.941 
        1.34992         12.1746         4.60754         12.8633 
        1.35606           12.07         4.55704         12.7643 
         1.3622         12.0065         4.50738          12.683 
        1.36833         11.9525         4.45858         12.6197 
        1.37445         11.8527         4.41054         12.5193 
        1.38059          11.753         4.36305         12.4372 
        1.38675         11.7078         4.31615         12.3767 
        1.39288         11.5886         4.27012         12.2758 
        1.39901         11.4977         4.22479         12.1981 
        1.40515         11.4487         4.18002         12.1134 
         1.4113         11.3757         4.13591         12.0314 
        1.41742         11.3033          4.0926         11.9797 
        1.42355          11.197         4.04984         11.9179 
         1.4297         11.1378         4.00756         11.8113 
        1.43585         11.0566          3.9659          11.756 
        1.44198         11.0215         3.92499         11.6879 
        1.44809         10.9279         3.88473         11.6247 
        1.45423         10.8522         3.84489         11.5218 
        1.46036         10.7894         3.80569         11.4538 
        1.46649         10.7073         3.76702         11.4112 
        1.47263         10.6369         3.72885         11.3576 
        1.47877         10.5539         3.69123         11.2791 
        1.48491         10.5019         3.65407         11.2047 
        1.49104         10.4336          3.6175         11.1337 
        1.49718         10.4014         3.58141         11.0823 
        1.50333         10.3374         3.54575         11.0167 
        1.50947         10.2329         3.51064         10.9559 
         1.5156         10.2016         3.47607         10.8977 
        1.52172         10.1281         3.44196         10.8248 
        1.52787         10.0952         3.40824          10.753 
          1.534         10.0104         3.37501         10.6964 
        1.54013         9.96564         3.34226          10.631 
        1.54627         9.87486         3.30988         10.5611 
        1.55241          9.8007         3.27793         10.5051 
        1.55855         9.76267         3.24645         10.4605 
        1.56467         9.69395         3.21546         10.4128 
         1.5708         9.66111         3.18479          10.346 
        1.57695         9.59969         3.15448         10.2801 
        1.58308         9.52964         3.12463          10.235 
        1.58922          9.4731         3.09515         10.1881 
        1.59535         9.41745         3.06605         10.1203 
         1.6015         9.35713          3.0373         10.0674 
        1.60764          9.3064         3.00892         10.0126 
        1.61376         9.25774         2.98099         9.95008 
        1.61989         9.17275         2.95338         9.92398 
        1.62604         9.13719         2.92607         9.87404 
        1.63218         9.08103         2.89912         9.81879 
        1.63831         9.02857         2.87257         9.77919 
        1.64444         8.98462         2.84634         9.72693 
        1.65059         8.93034         2.82038         9.66283 
        1.65673         8.87734         2.79477         9.61103 
        1.66285         8.81299         2.76955         9.56932 
        1.66898         8.77547         2.74463         9.51922 
        1.67512         8.75879         2.71997          9.4583 
        1.68127         8.68831         2.69559          9.4192 
         1.6874         8.65921         2.67157         9.37379 
        1.69353         8.56657         2.64785         9.29313 
        1.69967         8.52648         2.62436         9.26179 
        1.70581         8.49751         2.60117         9.22857 
        1.71193          8.4382         2.57834         9.18238 
        1.71806         8.38916         2.55574         9.16046 
        1.72421         8.35128         2.53337         9.10812 
        1.73035         8.30863         2.51129         9.06159 
        1.73649          8.2571         2.48948         9.02963 
        1.74262         8.22528         2.46794         8.96159 
        1.74876         8.17878         2.44665         8.91067 
        1.75489          8.1268         2.42565         8.87842 
        1.76101         8.06787          2.4049         8.84134 
        1.76715         8.04759         2.38437         8.79663 
        1.77329         7.99856         2.36405          8.7448 
        1.77943         7.95551         2.34396         8.69678 
        1.78557         7.94273         2.32414         8.65981 
        1.79171         7.87286         2.30453          8.6231 
        1.79785         7.82015         2.28516         8.58554 
        1.80399         7.78955           2.266         8.55011 
        1.81012         7.75079          2.2471         8.51233 
        1.81625         7.71136         2.22841         8.47743 
        1.82239         7.66632         2.20992         8.44368 
        1.82853         7.62776         2.19164         8.40293 
        1.83466         7.57876         2.17358         8.36578 
        1.84078          7.5402         2.15575         8.32791 
        1.84692         7.52649         2.13808         8.27667 
        1.85306         7.48057          2.1206         8.24021 
         1.8592         7.44443         2.10333         8.21511 
        1.86533         7.39823         2.08627         8.17559 
        1.87147         7.36035         2.06938         8.13019 
        1.87761         7.33293         2.05266         8.09812 
