# k  (h/Mpc)    P(k)  (Mpc/h)^3    P_linear(k)  (Mpc/h)^3     P_NL(k)  ShotnoiseSubtracted = false
     0.00783031         603.271         608.719         603.213 
       0.013688         672.352         678.696         674.538 
       0.019231         624.732         626.831         623.556 
      0.0249154         528.781         527.826         526.287 
      0.0312784         415.158         414.169         414.611 
      0.0375637         326.506         326.109         326.769 
      0.0433917         272.458         271.406          272.06 
      0.0492413         238.293         237.931         238.504 
      0.0555754           217.4         216.725         216.873 
      0.0619321         200.533         201.407          201.32 
       0.067871         185.851         186.004         185.768 
      0.0738098         167.016         167.017         166.766 
      0.0800417         144.669         144.324         144.252 
      0.0862327         122.462          122.21         122.357 
      0.0921407         104.621         104.415         104.669 
      0.0982031         91.5492          91.017         91.3603 
       0.104506         82.2449         82.2095         82.5467 
       0.110769         77.3275         77.2819         77.5015 
       0.116806         74.5519         74.3284         74.4235 
       0.122832         71.3657          71.443         71.4791 
       0.129052         67.4203         67.3521         67.3467 
       0.135211         62.1216         61.9108         61.9337 
       0.141259         55.8435          55.751         55.8449 
       0.147318         49.6771         49.6639         49.8578 
       0.153489         44.5088         44.3665         44.5623 
       0.159709         40.6095         40.3852         40.6123 
       0.165845          37.759          37.778         38.0311 
       0.171974         36.3843         36.1414         36.3411 
       0.178125         35.1175         34.9691         35.1586 
       0.184229         33.8135         33.7912          33.945 
        0.19034         32.4485         32.2821          32.411 
       0.196428         30.5062         30.3748         30.4825 
       0.202534         28.1484         28.1961         28.3302 
       0.208729         26.1207         25.9719         26.1317 
       0.214876         24.2471         23.9978         24.2087 
       0.220989         22.4985         22.4105         22.6356 
       0.227147          21.443          21.212         21.4259 
        0.23329         20.5569         20.3347         20.5525 
       0.239377         19.8714         19.6432         19.8458 
       0.245482         19.1766         18.9859         19.1508 
       0.251667         18.3589          18.252         18.4256 
       0.257832         17.6277         17.4147         17.5783 
       0.263955         16.6417         16.5045         16.6651 
       0.270079         15.7117         15.5791         15.7462 
        0.27624         14.8062         14.7068         14.8741 
       0.282372         14.0606         13.9467         14.1339 
        0.28843         13.5211         13.3203         13.5098 
       0.294538         12.9766         12.7993         12.9814 
       0.300721          12.459         12.3489         12.5313 
        0.30691         12.1013         11.9326         12.1116 
       0.313033         11.6651           11.52         11.6852 
       0.319153         11.3123         11.0894         11.2542 
       0.325316         10.7511         10.6374         10.8073 
        0.33145          10.295         10.1841         10.3483 
       0.337538         9.87967         9.75011         9.91227 
       0.343633         9.50995         9.34766          9.5091 
       0.349808         9.11999         8.98267         9.15327 
       0.355968         8.78046         8.65924         8.84433 
       0.362074          8.5352         8.37208         8.54266 
       0.368217          8.2516         8.10391         8.25758 
       0.374374         8.02496         7.84502         8.00429 
       0.380519         7.72327         7.58937         7.73939 
       0.386598          7.4497         7.33576         7.48842 
       0.392688         7.18086         7.08421         7.23676 
        0.39888         6.96338         6.83503         6.99031 
       0.405048         6.73518         6.59838         6.74224 
       0.411186         6.50393         6.37851         6.53488 
       0.417313         6.29914         6.17484          6.3272 
       0.423458         6.08359         5.98498         6.13728 
       0.429607         5.94083          5.8069         5.95184 
       0.435692         5.78046         5.63869          5.7852 
       0.441815          5.5924         5.47432         5.62537 
       0.447964         5.39993          5.3132         5.45591 
       0.454126          5.2729         5.15539         5.29655 
       0.460267         5.13895         5.00215         5.14901 
       0.466387         4.98083         4.85486         4.99298 
        0.47254         4.85221         4.71352         4.85295 
       0.478662         4.70388         4.57997          4.7155 
       0.484765         4.57925         4.45342         4.58688 
       0.490885         4.44021         4.33267         4.47587 
       0.497035         4.31211         4.21666         4.36179 
       0.503198         4.22117         4.10475         4.23666 
       0.509342         4.08841         3.99652         4.12971 
       0.515458         3.99969          3.8918         4.03019 
       0.521598         3.90119         3.78986         3.91655 
       0.527764          3.8159         3.69086         3.81657 
       0.533884         3.68986         3.59606          3.7199 
           0.54         3.60975         3.50482         3.62694 
       0.546137         3.50651         3.41677         3.54299 
       0.552299         3.42834         3.33189          3.4467 
       0.558452         3.34273         3.25042         3.36765 
       0.564573         3.26741         3.17224         3.29762 
       0.570708         3.19261          3.0964         3.21749 
       0.576825         3.12023         3.02302         3.14029 
       0.582926         3.03967         2.95201         3.07081 
       0.589034         2.97976         2.88309         3.00672 
       0.595184         2.92106         2.81589         2.92437 
       0.601379          2.8413         2.75046         2.87085 
       0.607522         2.77487         2.68771         2.80369 
       0.613639          2.7079         2.62726         2.74022 
       0.619772          2.6579         2.56857         2.68569 
       0.625918         2.59889         2.51159          2.6226 
       0.632068          2.5464         2.45634         2.56399 
       0.638161         2.48763         2.40326         2.51175 
         0.6443         2.43333         2.35137         2.45611 
       0.650464         2.38308         2.30083         2.41118 
       0.656582         2.34159         2.25213         2.35955 
       0.662703         2.29159         2.20482          2.3091 
       0.668861         2.23208          2.1586         2.26612 
       0.675024         2.18937         2.11366         2.21837 
       0.681124         2.16693         2.07047         2.17209 
       0.687237         2.11257          2.0284         2.12525 
       0.693381         2.05888         1.98732          2.0817 
       0.699536         2.03028         1.94732         2.04293 
       0.705665          1.9901         1.90861         2.01107 
       0.711789         1.94169           1.871         1.96956 
       0.717957         1.90527         1.83416         1.92863 
        0.72409         1.87176         1.79852         1.89457 
       0.730186         1.84735         1.76405         1.85682 
       0.736317         1.80068          1.7303         1.82034 
       0.742472          1.7753         1.69732         1.79175 
       0.748622         1.74319         1.66523         1.76057 
        0.75476         1.70168         1.63404         1.72458 
       0.760888         1.67824          1.6037         1.69397 
       0.767043         1.63214         1.57402         1.66518 
       0.773185         1.60995         1.54515         1.63699 
       0.779291         1.59303         1.51717         1.60786 
       0.785407         1.55866         1.48985         1.57801 
       0.791564         1.52875         1.46304           1.551 
       0.797719          1.5023          1.4369         1.52142 
       0.803834         1.47725         1.41157         1.49662 
       0.809972         1.45058         1.38676         1.47486 
       0.816124         1.42563          1.3625         1.44631 
       0.822261         1.40348         1.33889         1.42088 
       0.828378         1.37881         1.31591          1.3985 
       0.834502         1.35416         1.29345         1.37369 
       0.840667         1.33598         1.27138         1.35241 
       0.846816          1.3102         1.24988         1.33374 
       0.852925          1.2875         1.22902         1.30969 
       0.859047         1.26653         1.20859         1.29198 
       0.865192         1.24613         1.18857         1.26901 
       0.871341         1.22869         1.16898         1.24855 
       0.877463         1.20428         1.14993         1.22732 
       0.883569         1.18723         1.13135         1.21034 
       0.889708         1.17058         1.11309         1.19152 
       0.895864         1.15194         1.09519         1.17171 
       0.902008         1.12969         1.07772         1.15423 
       0.908149         1.11496         1.06064         1.13608 
       0.914301         1.09935          1.0439         1.11875 
       0.920448          1.0844         1.02755         1.10112 
       0.926574         1.07004          1.0116         1.08644 
       0.932687         1.05254        0.996029         1.06661 
       0.938823         1.03112        0.980729         1.05502 
       0.944975         1.02018        0.965718         1.03629 
       0.951105        0.998515        0.951075         1.02149 
       0.957225        0.987692        0.936763         1.00797 
       0.963368        0.974879        0.922698        0.992257 
       0.969511        0.961694        0.908923        0.978704 
       0.975621        0.943646        0.895504        0.962208 
       0.981748        0.926495        0.882322        0.948335 
       0.987916        0.915764        0.869324        0.938037 
        0.99406        0.905356        0.856638        0.925759 
        1.00019        0.891875        0.844232        0.912536 
        1.00632        0.882047        0.832083        0.898015 
        1.01246        0.868458        0.820156         0.88562 
        1.01859        0.856568        0.808484        0.874633 
        1.02471        0.841347        0.797053        0.861908 
        1.03085        0.829341        0.785806        0.848696 
        1.03698        0.820218          0.7748        0.837285 
        1.04314        0.808026        0.763958         0.82624 
        1.04929         0.79996         0.75335        0.815646 
        1.05541        0.785127        0.742987        0.805861 
        1.06154        0.777009        0.732793        0.795101 
        1.06769        0.767677        0.722775        0.785038 
        1.07382        0.755807        0.712978        0.774002 
        1.07993        0.745677        0.703384        0.763588 
        1.08607        0.737386        0.693929        0.755253 
        1.09222        0.725967        0.684637        0.743745 
        1.09836        0.719015        0.675528        0.734766 
        1.10449        0.706042        0.666595        0.726111 
        1.11063        0.697218        0.657814        0.715219 
        1.11677        0.689934        0.649195        0.707494 
         1.1229        0.678721        0.640745        0.698786 
        1.12903        0.672398         0.63244        0.689776 
        1.13518        0.662714        0.624274        0.680974 
        1.14131        0.655017        0.616258        0.672612 
        1.14745        0.648486        0.608388        0.662961 
        1.15359        0.638618        0.600654        0.656741 
        1.15973        0.631356        0.593051        0.648749 
        1.16584        0.623245        0.585614        0.639704 
        1.17197        0.614181        0.578295        0.633109 
        1.17811        0.606579        0.571078        0.625801 
        1.18424        0.599644        0.564006         0.61715 
        1.19038        0.591522        0.557034        0.609894 
        1.19652        0.586143        0.550182        0.603665 
        1.20267        0.580298        0.543446        0.595022 
        1.20881         0.57027        0.536824        0.588541 
        1.21495        0.564759        0.530323        0.583492 
        1.22108        0.558566        0.523932        0.575245 
         1.2272        0.550171        0.517661        0.568028 
        1.23334        0.544685        0.511478        0.562279 
        1.23949        0.538815        0.505382        0.556471 
        1.24562        0.532361        0.499403        0.549959 
        1.25174        0.527133        0.493529         0.54306 
        1.25789        0.518791        0.487732        0.537041 
        1.26402        0.513876        0.482039        0.531019 
        1.27014        0.506165         0.47645        0.524938 
        1.27628        0.502293        0.470934        0.518616 
        1.28244        0.496018        0.465494        0.513019 
        1.28858        0.489696        0.460147        0.506984 
        1.29471        0.484322        0.454897        0.501623 
        1.30084        0.479347        0.449733         0.49749 
        1.30697        0.475553        0.444642        0.491597 
        1.31312        0.469334        0.439622        0.485898 
        1.31925        0.464058        0.434696         0.48149 
        1.32537        0.459136         0.42985        0.476233 
        1.33151        0.453656        0.425061        0.471083 
        1.33765        0.448731        0.420348        0.466115 
        1.34378         0.44357        0.415716        0.461144 
        1.34992        0.440022        0.411151        0.456266 
        1.35606        0.434121        0.406644        0.450735 
         1.3622        0.430064        0.402213        0.446314 
        1.36833        0.425709        0.397859        0.442453 
        1.37445         0.42086        0.393571        0.437855 
        1.38059         0.41669        0.389334        0.433139 
        1.38675        0.411839        0.385149        0.428026 
        1.39288        0.407335        0.381042        0.423957 
        1.39901        0.403189        0.376996        0.419749 
        1.40515        0.398869        0.373001        0.415127 
         1.4113        0.396167        0.369065        0.411511 
        1.41742        0.391146        0.365201        0.408258 
        1.42355          0.3858        0.361385        0.402221 
         1.4297        0.383109        0.357612         0.40008 
        1.43585        0.378531        0.353894        0.395362 
        1.44198        0.375374        0.350244        0.390357 
        1.44809        0.371111        0.346651        0.387977 
        1.45423        0.367223        0.343097        0.382911 
        1.46036        0.363731        0.339598         0.37955 
        1.46649        0.359989        0.336147        0.376641 
        1.47263        0.355708        0.332741        0.372641 
        1.47877        0.354445        0.329384        0.368931 
        1.48491         0.34835        0.326069         0.36597 
        1.49104        0.346888        0.322805        0.361351 
        1.49718        0.342003        0.319584        0.359079 
        1.50333        0.339391        0.316402        0.354759 
        1.50947        0.336206         0.31327        0.351058 
         1.5156        0.332825        0.310185        0.348474 
        1.52172        0.329672        0.307141        0.344905 
        1.52787        0.325766        0.304132         0.34144 
          1.534        0.323572        0.301167        0.338765 
        1.54013        0.320163        0.298244        0.335543 
        1.54627        0.317184        0.295355        0.332092 
        1.55241        0.314112        0.292504        0.329041 
        1.55855        0.310977        0.289695        0.326009 
        1.56467        0.308199         0.28693        0.323248 
         1.5708        0.305186        0.284193        0.319931 
        1.57695         0.30202        0.281488        0.316855 
        1.58308        0.298719        0.278824        0.314494 
        1.58922        0.296736        0.276193        0.311713 
        1.59535        0.293497        0.273597        0.308744 
         1.6015        0.290867        0.271031        0.305682 
        1.60764        0.287998        0.268499        0.303214 
        1.61376        0.285416        0.266006        0.301144 
        1.61989        0.282821        0.263543        0.298339 
        1.62604        0.279839        0.261106        0.295562 
        1.63218        0.277884        0.258701        0.293097 
        1.63831         0.27501        0.256332        0.290506 
        1.64444        0.273052        0.253991        0.287558 
        1.65059        0.270039        0.251675        0.285125 
        1.65673        0.267459         0.24939        0.282876 
        1.66285        0.265352        0.247139        0.280405 
        1.66898        0.263151        0.244915        0.277728 
        1.67512        0.259992        0.242715        0.275403 
        1.68127        0.257747         0.24054         0.27318 
         1.6874        0.256189        0.238396        0.271058 
        1.69353        0.253258        0.236279         0.26897 
        1.69967        0.251384        0.234183        0.266237 
        1.70581        0.249518        0.232114        0.263945 
        1.71193        0.247365        0.230077        0.262032 
        1.71806        0.245094         0.22806        0.259495 
        1.72421        0.242597        0.226064        0.257532 
        1.73035        0.240169        0.224093        0.255408 
        1.73649        0.238911        0.222147        0.252844 
        1.74262         0.23616        0.220225        0.250914 
        1.74876        0.234628        0.218325        0.249307 
        1.75489        0.232744        0.216451        0.247331 
        1.76101        0.230383          0.2146        0.245001 
        1.76715        0.228476        0.212768        0.243192 
        1.77329         0.22652        0.210955        0.241381 
        1.77943        0.224567        0.209162        0.239249 
        1.78557        0.223267        0.207393         0.23701 
        1.79171        0.221165        0.205644        0.234927 
        1.79785        0.219117        0.203915        0.233168 
        1.80399         0.21662        0.202206        0.231553 
        1.81012        0.215489        0.200518        0.229313 
        1.81625         0.21403        0.198851        0.227393 
        1.82239        0.212361        0.197201        0.226161 
        1.82853        0.210055        0.195569        0.224657 
        1.83466        0.208367        0.193958         0.22268 
        1.84078         0.20652        0.192367        0.220648 
        1.84692        0.205048        0.190791        0.219072 
        1.85306        0.203527         0.18923        0.217156 
         1.8592        0.201797         0.18769        0.215211 
        1.86533        0.200388        0.186167        0.213849 
        1.87147        0.198103         0.18466        0.212209 
        1.87761         0.19663        0.183168        0.210656 
