# k  (h/Mpc)    Pcb(k)  (Mpc/h)^3    Pcb_linear(k) (Mpc/h)^3    Pcb_NL(k) (Mpc/h)^3   ShotnoiseSubtracted = false
     0.00783031         2094.52         2112.08         2093.29 
       0.013688         2324.98         2354.09         2339.54 
       0.019231         2162.81         2173.92         2162.26 
      0.0249154         1836.67         1830.44         1824.76 
      0.0312784         1439.13         1436.23         1437.37 
      0.0375637         1130.42         1130.84         1132.85 
      0.0433917         945.262         941.134         943.131 
      0.0492413         825.971         825.047         826.894 
      0.0555754         754.965         751.508         752.007 
      0.0619321         693.059          698.39         698.153 
       0.067871         644.335         644.975         644.295 
      0.0738098         579.664         579.134         578.102 
      0.0800417         502.842         500.444         500.316 
      0.0862327         425.398         423.765         424.967 
      0.0921407          363.75         362.058         363.802 
      0.0982031         319.284           315.6         318.114 
       0.104506          285.85         285.061         287.838 
       0.110769         269.002         267.974         269.878 
       0.116806         260.054         257.733         258.991 
       0.122832         248.215         247.727         248.737 
       0.129052         234.752         233.542         234.278 
       0.135211         217.008         214.674         215.626 
       0.141259         194.859         193.315         194.773 
       0.147318         173.223         172.208         174.472 
       0.153489         155.639          153.84         155.907 
       0.159709         142.629         140.035         142.397 
       0.165845         131.966         130.994         133.751 
       0.171974         128.027         125.319         127.623 
       0.178125         123.413         121.254         123.599 
       0.184229         118.318          117.17         119.238 
        0.19034         113.899         111.937         113.772 
       0.196428         107.272         105.324         106.906 
       0.202534         98.5225         97.7691         99.5773 
       0.208729          92.215          90.057         92.0401 
       0.214876         85.9784          83.212         85.7207 
       0.220989         79.4306         77.7075         80.3478 
       0.227147         76.1968         73.5516         76.0998 
        0.23329         73.0918         70.5098         73.1335 
       0.239377         70.8307         68.1119         70.6009 
       0.245482         68.1016         65.8329          67.944 
       0.251667         65.0591         63.2883          65.511 
       0.257832          62.951         60.3852         62.4934 
       0.263955         59.1613         57.2287          59.293 
       0.270079         55.9252         54.0198         56.1413 
        0.27624         52.7663         50.9951         53.0952 
       0.282372         50.2742         48.3598         50.6447 
        0.28843         48.7436         46.1877         48.4946 
       0.294538         46.6601         44.3809         46.6342 
       0.300721         44.6739         42.8191         45.0849 
        0.30691         43.5946         41.3759         43.6121 
       0.313033         41.8902         39.9454         42.0368 
       0.319153           40.83         38.4521         40.5341 
       0.325316         38.7606         36.8848         39.0194 
        0.33145          37.131          35.313         37.3749 
       0.337538         35.6898         33.8081         35.8407 
       0.343633         34.4344         32.4126         34.4669 
       0.349808         33.0521          31.147         33.2859 
       0.355968         31.8644         30.0257         32.2859 
       0.362074         31.1247         29.0298          31.162 
       0.368217         30.0969            28.1         30.0667 
       0.374374         29.3084         27.2023         29.2021 
       0.380519         28.1078         26.3156         28.2302 
       0.386598         27.1361         25.4365         27.3677 
       0.392688         26.1593         24.5642         26.5026 
        0.39888         25.5097         23.7002         25.6358 
       0.405048         24.7406         22.8796         24.7398 
       0.411186         23.9089         22.1172         24.0849 
       0.417313         23.1478          21.411         23.3127 
       0.423458         22.3865         20.7526         22.6642 
       0.429607         21.9328         20.1352         21.9835 
       0.435692         21.4435         19.5519         21.4004 
       0.441815         20.6275          18.982         20.8699 
       0.447964         19.8777         18.4233           20.23 
       0.454126         19.4997         17.8761         19.6497 
       0.460267         19.1275         17.3447         19.1817 
       0.466387         18.5236          16.834         18.5908 
        0.47254         18.1341         16.3439         18.1216 
       0.478662         17.5223         15.8808         17.6297 
       0.484765         17.0769          15.442         17.1447 
       0.490885         16.5399         15.0233         16.8014 
       0.497035          16.147         14.6211         16.4174 
       0.503198         15.8192          14.233         15.9242 
       0.509342         15.3035         13.8578         15.5605 
       0.515458           15.02         13.4947         15.2448 
       0.521598         14.6564         13.1412         14.7801 
       0.527764          14.376         12.7979         14.3971 
       0.533884         13.9375         12.4692         14.0605 
           0.54          13.649         12.1528         13.7372 
       0.546137         13.2106         11.8475         13.4591 
       0.552299         12.9429         11.5532          13.075 
       0.558452          12.615         11.2707         12.7944 
       0.564573         12.3966         10.9996         12.5766 
       0.570708          12.096         10.7366         12.2868 
       0.576825         11.8664         10.4822         12.0044 
       0.582926         11.5876          10.236         11.7571 
       0.589034         11.3327         9.99697         11.5511 
       0.595184         11.1587           9.764         11.2139 
       0.601379         10.8325         9.53709         11.0623 
       0.607522         10.6044         9.31953         10.7899 
       0.613639         10.3799         9.10989         10.5627 
       0.619772         10.1763         8.90639         10.3846 
       0.625918         9.95033         8.70884         10.1533 
       0.632068         9.80796         8.51725         9.92855 
       0.638161         9.57477         8.33319         9.73885 
         0.6443          9.3861         8.15327         9.52819 
       0.650464          9.1496         7.97803         9.38826 
       0.656582         9.04276         7.80917         9.19803 
       0.662703         8.88183         7.64513         9.00415 
       0.668861         8.63685         7.48485         8.87177 
       0.675024         8.47327         7.32904         8.66641 
       0.681124         8.43116         7.17925         8.50273 
       0.687237         8.22365         7.03338         8.32613 
       0.693381         8.00848         6.89094         8.16513 
       0.699536         7.93035         6.75225         8.03328 
       0.705665         7.75388         6.61802         7.93103 
       0.711789         7.59136         6.48761         7.75536 
       0.717957         7.41765         6.35986         7.60766 
        0.72409         7.33359         6.23629         7.49535 
       0.730186         7.26429         6.11677         7.34844 
       0.736317         7.07703         5.99975         7.21226 
       0.742472         6.98604         5.88538         7.12123 
       0.748622         6.85238          5.7741         6.99397 
        0.75476          6.6646         5.66596         6.86562 
       0.760888         6.60991         5.56076         6.76208 
       0.767043         6.45507         5.45783         6.65688 
       0.773185         6.35988         5.35774         6.54707 
       0.779291         6.30628         5.26073         6.44721 
       0.785407         6.17409           5.166         6.32938 
       0.791564         6.07591         5.07302         6.23313 
       0.797719         5.94718         4.98239         6.12429 
       0.803834         5.89285         4.89456          6.0248 
       0.809972         5.76683         4.80854         5.95587 
       0.816124         5.68407         4.72441         5.84348 
       0.822261         5.60069         4.64254         5.75006 
       0.828378         5.51584         4.56286         5.66635 
       0.834502         5.42997         4.48499         5.58063 
       0.840667         5.36303         4.40844         5.49205 
       0.846816          5.2387         4.33391         5.41846 
       0.852925         5.18784         4.26157         5.34696 
       0.859047          5.0983         4.19074         5.27151 
       0.865192         5.01803          4.1213         5.18813 
       0.871341         4.94375         4.05339         5.11989 
       0.877463         4.86271         3.98732         5.03737 
       0.883569          4.8114         3.92291          4.9642 
       0.889708         4.72596         3.85959         4.89866 
       0.895864         4.65714         3.79751         4.82359 
       0.902008         4.58406         3.73693         4.76295 
       0.908149         4.51239         3.67771          4.6872 
       0.914301         4.45928         3.61969         4.64188 
       0.920448         4.40186         3.56298         4.55832 
       0.926574         4.35556         3.50768         4.50807 
       0.932687         4.27378         3.45369         4.41702 
       0.938823         4.19897         3.40063         4.37966 
       0.944975         4.17064         3.34858         4.32014 
       0.951105         4.08547         3.29781         4.25165 
       0.957225          4.0572         3.24818         4.21028 
       0.963368         3.98903         3.19941         4.14604 
       0.969511         3.93513         3.15165         4.09781 
       0.975621         3.87755         3.10512         4.03554 
       0.981748         3.81405         3.05941         3.98265 
       0.987916         3.77364         3.01434         3.93614 
        0.99406         3.72988         2.97035         3.89142 
        1.00019         3.68622         2.92733         3.84902 
        1.00632         3.64626         2.88521         3.79394 
        1.01246         3.58929         2.84385         3.75695 
        1.01859         3.54068         2.80338         3.70029 
        1.02471         3.48331         2.76375         3.63852 
        1.03085         3.45556         2.72475         3.60109 
        1.03698         3.41027         2.68658         3.56507 
        1.04314         3.36326         2.64899         3.51725 
        1.04929         3.31393         2.61221          3.4774 
        1.05541         3.27289         2.57627         3.44085 
        1.06154         3.23868         2.54093         3.39773 
        1.06769          3.2133         2.50619         3.36105 
        1.07382         3.15173         2.47222         3.31857 
        1.07993         3.11447         2.43895         3.27528 
        1.08607         3.09002         2.40617         3.24512 
        1.09222         3.04178         2.37395         3.20343 
        1.09836         3.02666         2.34236         3.15738 
        1.10449         2.96051         2.31139         3.12836 
        1.11063         2.94158         2.28094         3.09104 
        1.11677         2.90789         2.25105         3.05763 
         1.1229         2.87399         2.22176         3.02751 
        1.12903         2.84361         2.19295         2.99846 
        1.13518         2.80009         2.16464          2.9599 
        1.14131         2.76645         2.13685         2.92086 
        1.14745         2.72976         2.10956         2.88851 
        1.15359         2.69648         2.08274         2.86431 
        1.15973         2.66669         2.05638         2.82906 
        1.16584         2.64506         2.03059         2.80274 
        1.17197         2.60607         2.00521         2.77106 
        1.17811         2.57639         1.98019         2.73913 
        1.18424         2.54841         1.95566         2.70733 
        1.19038         2.52719         1.93149         2.67983 
        1.19652         2.49988         1.90773         2.65591 
        1.20267         2.47488         1.88437         2.62373 
        1.20881          2.4401         1.86141         2.59849 
        1.21495         2.41703         1.83887         2.57565 
        1.22108         2.38818         1.81671         2.54726 
         1.2272         2.35725         1.79496          2.5152 
        1.23334         2.34521         1.77353          2.4955 
        1.23949         2.30972         1.75239         2.47521 
        1.24562           2.289         1.73166         2.44835 
        1.25174         2.27396         1.71129         2.41865 
        1.25789         2.23222         1.69119         2.39242 
        1.26402         2.21562         1.67145         2.36799 
        1.27014         2.19453         1.65207         2.34928 
        1.27628         2.16705         1.63294         2.32477 
        1.28244         2.14822         1.61408          2.3005 
        1.28858         2.12976         1.59554          2.2784 
        1.29471         2.09895         1.57733         2.25809 
        1.30084           2.077         1.55943         2.24088 
        1.30697         2.06377         1.54177         2.21218 
        1.31312          2.0388         1.52437          2.1916 
        1.31925         2.01673         1.50729         2.17891 
        1.32537         1.99982         1.49049         2.15753 
        1.33151         1.97624         1.47388         2.13548 
        1.33765         1.95684         1.45754         2.11451 
        1.34378         1.94582         1.44148         2.09568 
        1.34992         1.92401         1.42565         2.07572 
        1.35606         1.90499         1.41002          2.0537 
         1.3622         1.88545         1.39465         2.03395 
        1.36833         1.86316         1.37956         2.02388 
        1.37445         1.84217         1.36469         2.00338 
        1.38059         1.82409            1.35         1.98196 
        1.38675         1.80744         1.33548         1.96209 
        1.39288         1.79791         1.32124         1.95124 
        1.39901          1.7719         1.30722         1.93207 
        1.40515         1.75866         1.29336         1.91383 
         1.4113         1.74322         1.27972         1.89847 
        1.41742         1.72494         1.26632         1.88099 
        1.42355         1.70771         1.25308         1.86229 
         1.4297         1.69253            1.24         1.84984 
        1.43585         1.67975         1.22711         1.83581 
        1.44198         1.65968         1.21445         1.81607 
        1.44809         1.64791           1.202         1.80221 
        1.45423         1.63068         1.18967         1.78478 
        1.46036         1.61871         1.17754         1.76978 
        1.46649         1.60023         1.16557         1.75688 
        1.47263         1.59081         1.15377         1.74212 
        1.47877         1.57721         1.14213          1.7245 
        1.48491         1.55691         1.13063          1.7134 
        1.49104         1.54567         1.11931         1.69598 
        1.49718         1.53327         1.10814         1.68319 
        1.50333         1.51643         1.09711         1.67023 
        1.50947          1.5023         1.08625         1.65519 
         1.5156         1.49125         1.07555         1.64345 
        1.52172         1.47653           1.065         1.63335 
        1.52787         1.46638         1.05456         1.61309 
          1.534         1.45262         1.04428         1.60164 
        1.54013         1.44118         1.03415         1.58956 
        1.54627         1.42521         1.02413         1.57511 
        1.55241         1.41254         1.01424         1.56347 
        1.55855         1.40254          1.0045          1.5487 
        1.56467         1.39275        0.994915         1.53955 
         1.5708         1.37728        0.985426          1.5283 
        1.57695         1.36343        0.976046         1.51367 
        1.58308         1.35007         0.96681         1.50291 
        1.58922         1.34525        0.957688         1.49264 
        1.59535         1.33028        0.948686          1.4824 
         1.6015         1.31804        0.939788         1.46996 
        1.60764         1.31126        0.931008         1.45805 
        1.61376         1.29499        0.922365         1.44852 
        1.61989         1.28332        0.913824         1.43718 
        1.62604         1.27366        0.905373         1.42589 
        1.63218         1.26608        0.897034         1.41636 
        1.63831         1.25653        0.888819         1.40612 
        1.64444          1.2438        0.880703         1.39335 
        1.65059         1.23666        0.872671         1.38378 
        1.65673         1.22273        0.864746         1.37301 
        1.66285         1.21283        0.856943         1.36169 
        1.66898         1.20255        0.849233         1.35211 
        1.67512         1.19296        0.841603         1.34278 
        1.68127         1.18408        0.834059         1.33514 
         1.6874         1.17627        0.826625         1.32729 
        1.69353         1.16419        0.819286         1.31602 
        1.69967         1.15357        0.812019         1.30396 
        1.70581         1.14834        0.804843         1.29546 
        1.71193         1.13309         0.79778         1.28839 
        1.71806         1.12918        0.790788         1.27717 
        1.72421         1.12116        0.783865          1.2675 
        1.73035          1.1086        0.777033         1.25918 
        1.73649         1.10191        0.770284         1.25055 
        1.74262          1.0933        0.763621           1.242 
        1.74876         1.08474        0.757032         1.23479 
        1.75489         1.07498        0.750535          1.2259 
        1.76101         1.06562        0.744115         1.21464 
        1.76715         1.06176        0.737762         1.20618 
        1.77329         1.05074        0.731476         1.19881 
        1.77943         1.04282         0.72526         1.19085 
        1.78557         1.03575        0.719125         1.18252 
        1.79171          1.0276         0.71306         1.17399 
        1.79785         1.02146        0.707064         1.16593 
        1.80399         1.01202        0.701138         1.15857 
        1.81012         1.00526        0.695288         1.15036 
        1.81625        0.994399        0.689507         1.14208 
        1.82239        0.989387        0.683784         1.13502 
        1.82853        0.982601        0.678127         1.12896 
        1.83466        0.972687        0.672541         1.12237 
        1.84078         0.96539        0.667023         1.11466 
        1.84692        0.958147        0.661557         1.10624 
        1.85306        0.951861        0.656147         1.09725 
         1.8592        0.944276        0.650805         1.09008 
        1.86533        0.938677        0.645526         1.08511 
        1.87147        0.932923        0.640299         1.07795 
