# k  (h/Mpc)    P(k)  (Mpc/h)^3    P_linear(k)  (Mpc/h)^3     P_NL(k)  ShotnoiseSubtracted = false
     0.00783031         14141.8         14234.4         14103.9 
       0.013688         15490.9         15866.4         15751.3 
       0.019231         14466.9         14650.6         14549.8 
      0.0249154         12422.9         12334.8         12268.3 
      0.0312784         9660.94         9677.81         9652.24 
      0.0375637         7566.45         7619.66         7613.99 
      0.0433917         6368.83         6341.26         6334.09 
      0.0492413         5554.61         5558.97         5554.95 
      0.0555754         5096.18         5063.41         5057.67 
      0.0619321         4610.21         4705.46         4696.61 
       0.067871         4318.62         4345.53         4339.67 
      0.0738098         3912.18          3901.9         3877.14 
      0.0800417         3410.59         3371.71         3368.81 
      0.0862327         2891.72         2855.07          2891.7 
      0.0921407         2500.82         2439.32          2488.4 
      0.0982031          2222.1         2126.31         2204.41 
       0.104506         1976.65         1920.55         2014.31 
       0.110769         1864.81         1805.43         1872.49 
       0.116806         1809.85         1736.42         1788.01 
       0.122832         1717.28         1669.01         1715.04 
       0.129052         1616.15         1573.44            1612 
       0.135211          1524.3         1446.32         1490.31 
       0.141259         1368.28         1302.42         1364.04 
       0.147318         1227.05         1160.21         1246.42 
       0.153489         1117.77         1036.46          1115.4 
       0.159709         1049.86         943.446          1034.2 
       0.165845         962.391         882.538         987.539 
       0.171974         944.189         844.306         937.134 
       0.178125         912.112         816.918         912.454 
       0.184229          853.43         789.402         873.774 
        0.19034         830.874         754.147          831.25 
       0.196428         794.507          709.59         781.645 
       0.202534         727.934         658.692         738.055 
       0.208729         703.851         606.732         686.686 
       0.214876         661.791         560.615         657.558 
       0.220989         615.858         523.533         626.228 
       0.227147         597.777         495.534         598.698 
        0.23329         573.723          475.04         580.623 
       0.239377         565.906         458.884         558.209 
       0.245482         536.974          443.53         533.423 
       0.251667          515.17         426.385         518.697 
       0.257832         505.223         406.826          494.89 
       0.263955         474.899         385.561         473.164 
       0.270079         453.682         363.942         453.999 
        0.27624         432.701         343.565         433.563 
       0.282372         420.787          325.81         419.165 
        0.28843         415.004         311.176         405.574 
       0.294538         392.972         299.003         392.825 
       0.300721          381.11         288.481         381.677 
        0.30691         373.418         278.758         372.579 
       0.313033         355.027         269.119         358.615 
       0.319153         348.681         259.059         347.242 
       0.325316         340.604           248.5         337.153 
        0.33145         330.525          237.91         323.507 
       0.337538         317.232         227.772         313.583 
       0.343633         307.194          218.37         308.075 
       0.349808          298.34         209.843         300.549 
       0.355968         292.054         202.288         293.499 
       0.362074         281.174          195.58         285.412 
       0.368217         278.149         189.315         275.886 
       0.374374         271.729         183.267          268.76 
       0.380519         260.224         177.295         261.206 
       0.386598         256.155          171.37         257.236 
       0.392688         248.341         165.494          248.84 
        0.39888          242.45         159.672         243.156 
       0.405048         236.113         154.144         238.614 
       0.411186         234.613         149.008         231.614 
       0.417313         229.731          144.25         225.865 
       0.423458         223.739         139.815         221.573 
       0.429607         216.618         135.654         217.001 
       0.435692         212.969         131.725         211.131 
       0.441815         208.641         127.885         208.355 
       0.447964         202.519         124.121         204.025 
       0.454126         199.645         120.435         197.851 
       0.460267         196.567         116.855         195.995 
       0.466387         191.359         113.414         191.805 
        0.47254         189.058         110.112         187.926 
       0.478662         183.791         106.992         184.081 
       0.484765         180.691         104.036         179.597 
       0.490885         178.025         101.215         176.792 
       0.497035         174.734         98.5049         174.031 
       0.503198         173.059         95.8905         170.992 
       0.509342         168.732         93.3623         168.247 
       0.515458         165.587          90.916         165.865 
       0.521598         161.749         88.5344         162.133 
       0.527764         160.247         86.2217         159.947 
       0.533884         158.515         84.0071         157.514 
           0.54          155.17         81.8757         154.312 
       0.546137         151.381         79.8188         152.402 
       0.552299         149.592         77.8359         149.276 
       0.558452         147.013         75.9328         146.823 
       0.564573         146.185         74.1063         145.364 
       0.570708         142.319         72.3346         143.408 
       0.576825         140.185         70.6205         140.244 
       0.582926         138.863         68.9616         138.416 
       0.589034         136.201         67.3514         136.939 
       0.595184         134.739         65.7817         133.993 
       0.601379         132.452         64.2531         132.604 
       0.607522         129.112         62.7873         130.288 
       0.613639         128.321          61.375         129.298 
       0.619772         126.912         60.0039         127.615 
       0.625918         125.276          58.673         125.358 
       0.632068         122.523         57.3822         123.391 
       0.638161          121.73         56.1422         122.566 
         0.6443         120.195         54.9301         120.831 
       0.650464         117.846         53.7494          118.23 
       0.656582          116.77         52.6118         117.293 
       0.662703          115.78         51.5066         115.689 
       0.668861         113.172         50.4267         114.502 
       0.675024         112.892          49.377         112.974 
       0.681124         111.066         48.3679         111.389 
       0.687237         109.923         47.3852          110.04 
       0.693381         107.859         46.4255         108.473 
       0.699536         107.246         45.4911         107.345 
       0.705665          105.84         44.5868         106.418 
       0.711789         104.089         43.7082         105.118 
       0.717957         103.056         42.8475         103.877 
        0.72409         101.641          42.015         102.992 
       0.730186         101.633         41.2098         101.871 
       0.736317         100.207         40.4214         100.409 
       0.742472         98.3999         39.6508         99.3568 
       0.748622         96.9151         38.9011         98.1621 
        0.75476         97.1356         38.1726         97.2032 
       0.760888         95.7651         37.4638         95.7379 
       0.767043         93.9737         36.7704         95.1222 
       0.773185         92.7512          36.096          94.353 
       0.779291         92.0351         35.4425         93.1211 
       0.785407         91.2024         34.8043          91.989 
       0.791564         90.2703         34.1778          91.254 
       0.797719         88.7699         33.5672         90.6651 
       0.803834         88.7453         32.9755         89.4834 
       0.809972         87.7066          32.396         88.5987 
       0.816124         86.0698         31.8292         87.8725 
       0.822261         85.4751         31.2776         86.9705 
       0.828378         85.0342         30.7408         85.8688 
       0.834502         84.2262         30.2162         85.0045 
       0.840667         83.5569         29.7005          84.509 
       0.846816         82.2642         29.1983         83.7425 
       0.852925         81.6409         28.7109         82.9905 
       0.859047         80.7698         28.2338         82.2012 
       0.865192         80.1092         27.7659         81.3287 
       0.871341          79.436         27.3084         80.5191 
       0.877463         78.6457         26.8633         79.9371 
       0.883569         78.4675         26.4293         79.4943 
       0.889708          77.643         26.0027         78.6117 
       0.895864         76.8002         25.5845         78.1063 
       0.902008          75.769         25.1763          77.209 
       0.908149         74.9749         24.7774         76.5681 
       0.914301         74.5336         24.3865         75.9304 
       0.920448         74.5253         24.0044         75.3781 
       0.926574         72.9691         23.6319         74.6435 
       0.932687         72.7711         23.2681          74.154 
       0.938823         72.2826         22.9107         73.3951 
       0.944975          71.555           22.56         72.8208 
       0.951105         70.8175         22.2179         72.1781 
       0.957225         70.4416         21.8836         71.6534 
       0.963368         69.7165          21.555         71.0218 
       0.969511         69.2375         21.2332         70.4297 
       0.975621         68.1703         20.9197         70.2785 
       0.981748         67.9609         20.6118         69.7003 
       0.987916         67.3359         20.3081         69.1185 
        0.99406         67.0354         20.0118         68.4294 
        1.00019         66.3482         19.7219         67.8202 
        1.00632         65.6742         19.4381         67.2981 
        1.01246         65.2691         19.1595         66.6651 
        1.01859         64.8792         18.8868         66.4934 
        1.02471         64.4599         18.6198         66.1585 
        1.03085         63.7923         18.3571         65.5494 
        1.03698         63.2377            18.1         65.0532 
        1.04314         62.8523         17.8467         64.5086 
        1.04929         62.4447         17.5989         64.1961 
        1.05541         61.8381         17.3568         63.8382 
        1.06154         61.2441         17.1186         63.3214 
        1.06769         60.9122         16.8846         62.9023 
        1.07382         60.4686         16.6557         62.5014 
        1.07993         60.1794         16.4316         62.0563 
        1.08607         59.7316         16.2107         61.6243 
        1.09222         59.2466         15.9937         61.2198 
        1.09836         58.7896         15.7809         60.7135 
        1.10449          58.381         15.5722         60.3919 
        1.11063         57.9133         15.3671         59.7609 
        1.11677         57.7037         15.1657         59.4099 
         1.1229          56.958         14.9683         59.2109 
        1.12903         56.6554         14.7743         58.6948 
        1.13518         56.1565         14.5836         58.3213 
        1.14131         55.8978         14.3963         57.8607 
        1.14745         55.6388         14.2124          57.608 
        1.15359         55.0041         14.0318         57.2322 
        1.15973         54.8333         13.8542         56.9839 
        1.16584         54.4144         13.6804         56.3832 
        1.17197         54.0557         13.5094         56.2415 
        1.17811         53.6723         13.3409         55.8279 
        1.18424         53.1521         13.1756         55.4935 
        1.19038         52.9461         13.0128         55.1386 
        1.19652         52.6661         12.8527         54.7881 
        1.20267         52.1851         12.6953         54.5248 
        1.20881         51.7701         12.5406         54.1015 
        1.21495         51.4973         12.3888          53.777 
        1.22108         51.2722         12.2395         53.5388 
         1.2272         50.9384          12.093         53.1876 
        1.23334         50.7007         11.9485         52.9939 
        1.23949         50.2054         11.8061          52.513 
        1.24562         49.7903         11.6665         52.1098 
        1.25174          49.755         11.5292         51.9017 
        1.25789         49.3475         11.3938         51.6045 
        1.26402         48.9788         11.2608         51.3861 
        1.27014         48.6226         11.1303          51.187 
        1.27628         48.3919         11.0014         50.8457 
        1.28244          48.305         10.8743         50.4073 
        1.28858         47.8629         10.7494         50.1217 
        1.29471         47.4535         10.6268         49.9274 
        1.30084         47.0819         10.5061         49.5319 
        1.30697          46.922         10.3872         49.3623 
        1.31312         46.7338         10.2699         49.1355 
        1.31925         46.2465         10.1548         48.7945 
        1.32537         46.0286         10.0416         48.5989 
        1.33151         45.8653         9.92977         48.2815 
        1.33765         45.5096         9.81967         48.0365 
        1.34378         45.2189         9.71146           47.79 
        1.34992         44.9831         9.60481         47.4669 
        1.35606         44.7139         9.49953         47.2246 
         1.3622         44.4649         9.39602         47.0283 
        1.36833         44.2043          9.2943         46.7542 
        1.37445         43.9126         9.19414         46.5641 
        1.38059         43.6529         9.09515         46.2567 
        1.38675         43.3668         8.99738         45.9959 
        1.39288         43.1433         8.90144         45.7164 
        1.39901         42.8751         8.80694         45.5407 
        1.40515         42.5593          8.7136         45.4215 
         1.4113         42.4146         8.62165         45.2077 
        1.41742         42.1575         8.53138         44.8595 
        1.42355         41.9744         8.44223         44.6367 
         1.4297         41.7237         8.35409         44.4411 
        1.43585         41.5756         8.26725         44.1396 
        1.44198         41.1602         8.18197         43.9697 
        1.44809         40.8533         8.09805         43.7434 
        1.45423         40.8466         8.01501         43.4929 
        1.46036         40.5916         7.93328         43.2927 
        1.46649         40.2362         7.85266          43.144 
        1.47263         39.9834          7.7731         42.9536 
        1.47877         39.8046         7.69468         42.6228 
        1.48491         39.4849         7.61722         42.4574 
        1.49104         39.4063         7.54099         42.3272 
        1.49718         39.1229         7.46574         42.0699 
        1.50333         38.9814         7.39141         41.8626 
        1.50947         38.7045         7.31823         41.6715 
         1.5156         38.6069         7.24616         41.4585 
        1.52172         38.2679         7.17506         41.2557 
        1.52787         38.1351         7.10476         41.0724 
          1.534         37.8389          7.0355         40.8955 
        1.54013         37.7975         6.96722         40.6819 
        1.54627         37.4022         6.89973         40.4703 
        1.55241         37.3613         6.83313         40.2931 
        1.55855         37.0541         6.76749         40.1277 
        1.56467         36.7271          6.7029         39.9577 
         1.5708         36.7657         6.63897         39.7544 
        1.57695         36.4562         6.57578          39.588 
        1.58308         36.3192         6.51355          39.419 
        1.58922         36.0505         6.45209         39.1988 
        1.59535         36.0681         6.39145         39.0501 
         1.6015         35.8288          6.3315         38.8368 
        1.60764         35.6093         6.27235         38.6515 
        1.61376         35.4057         6.21412         38.5695 
        1.61989         35.0865         6.15658         38.3627 
        1.62604         34.9982         6.09964         38.1381 
        1.63218         34.7587         6.04346         37.9649 
        1.63831         34.6224         5.98811         37.8371 
        1.64444         34.4796         5.93344         37.6811 
        1.65059          34.257         5.87932         37.4781 
        1.65673         34.0884         5.82593         37.2949 
        1.66285         33.8929         5.77336         37.1684 
        1.66898         33.6995         5.72141          37.052 
        1.67512         33.4693         5.67001         36.8411 
        1.68127           33.43         5.61919         36.6454 
         1.6874         33.2769          5.5691         36.5039 
        1.69353         33.0307         5.51966         36.3691 
        1.69967         32.8865          5.4707         36.2076 
        1.70581         32.7364         5.42235         36.0611 
        1.71193         32.4789         5.37477         35.9277 
        1.71806         32.3894         5.32766         35.7657 
        1.72421         32.1458         5.28102         35.6109 
        1.73035         32.0826         5.23499         35.4514 
        1.73649         31.8495         5.18952          35.287 
        1.74262         31.6827         5.14463         35.1478 
        1.74876         31.6603         5.10024         35.0003 
        1.75489         31.3926         5.05647         34.8452 
        1.76101         31.3299         5.01322         34.6893 
        1.76715         31.1093         4.97042         34.5233 
        1.77329         30.9488         4.92806         34.4085 
        1.77943         30.8261         4.88618         34.3028 
        1.78557         30.6807         4.84485          34.146 
        1.79171         30.4539         4.80399         33.9908 
        1.79785         30.3636          4.7636         33.8547 
        1.80399         30.1846         4.72368         33.7237 
        1.81012           29.99         4.68426         33.5817 
        1.81625         29.9059         4.64532         33.4284 
        1.82239           29.71         4.60675         33.2988 
        1.82853         29.6149         4.56865         33.2108 
        1.83466         29.4157         4.53101         33.0617 
        1.84078          29.271         4.49383         32.8784 
        1.84692         29.1766         4.45701         32.7816 
        1.85306         29.0368         4.42056         32.6666 
         1.8592         28.7939         4.38457         32.5105 
        1.86533         28.7562           4.349         32.3725 
        1.87147         28.5689         4.31379         32.2225 
        1.87761         28.4568         4.27895         32.0905 
