# k  (h/Mpc)    P(k)  (Mpc/h)^3    P_linear(k)  (Mpc/h)^3     P_NL(k)  ShotnoiseSubtracted = false
     0.00783031         14878.3         14974.8         14837.1 
       0.013688         16289.5         16692.8         16570.6 
       0.019231         15215.1         15413.9         15306.3 
      0.0249154         13071.2         12977.5         12905.6 
      0.0312784         10161.8           10182         10152.9 
      0.0375637         7958.07         8016.65         8009.37 
      0.0433917         6700.09         6671.64         6662.68 
      0.0492413          5843.3         5848.59         5843.16 
      0.0555754         5361.31         5327.21         5320.41 
      0.0619321         4847.51         4950.61         4940.63 
       0.067871         4541.71         4571.94         4565.43 
      0.0738098         4115.88         4105.19         4077.76 
      0.0800417         3588.77         3547.37         3543.94 
      0.0862327         3043.49         3003.82         3043.83 
      0.0921407         2633.88         2566.41         2620.08 
      0.0982031         2341.55         2237.09         2322.68 
       0.104506         2082.72         2020.61         2123.49 
       0.110769         1965.03         1899.49         1973.18 
       0.116806         1906.92         1826.89         1883.63 
       0.122832         1809.35         1755.97         1806.55 
       0.129052         1701.91         1655.42         1697.86 
       0.135211         1606.82         1521.67         1569.96 
       0.141259         1442.44         1370.27            1438 
       0.147318         1294.56         1220.66         1315.17 
       0.153489         1180.01         1090.46         1177.17 
       0.159709         1109.48           992.6         1092.33 
       0.165845          1017.1         928.518         1043.73 
       0.171974         997.701         888.294         990.388 
       0.178125         964.119          859.48         964.472 
       0.184229         901.096          830.53         923.203 
        0.19034         877.789         793.438          878.21 
       0.196428         839.879         746.559         826.082 
       0.202534         769.953          693.01         780.475 
       0.208729          745.12         638.343         726.263 
       0.214876         700.631         589.823         696.146 
       0.220989         652.736         550.809          663.49 
       0.227147         633.542         521.351         634.736 
        0.23329         608.015          499.79          615.76 
       0.239377         600.214         482.792         591.884 
       0.245482         569.411         466.638         565.619 
       0.251667         546.508         448.599         550.104 
       0.257832         535.868         428.021         524.923 
       0.263955         504.054         405.649         502.082 
       0.270079         481.902         382.904         481.977 
        0.27624         459.728         361.465         460.548 
       0.282372         447.499         342.784         445.521 
        0.28843         441.216         327.388         431.347 
       0.294538         417.819         314.581         417.829 
       0.300721         405.579         303.511         405.942 
        0.30691         397.209         293.281         396.532 
       0.313033         377.719          283.14         381.702 
       0.319153         371.114         272.556         369.655 
       0.325316         362.833         261.446         359.006 
        0.33145         352.243         250.305         344.509 
       0.337538         338.117         239.638          334.17 
       0.343633         327.617         229.747         328.492 
       0.349808         318.317         220.776         320.571 
       0.355968         311.694         212.827         313.115 
       0.362074         299.862         205.769         304.646 
       0.368217         296.882         199.178          294.55 
       0.374374         290.283         192.815         287.016 
       0.380519         277.989         186.532         279.011 
       0.386598         273.812         180.298         274.977 
       0.392688         265.559         174.116         265.961 
        0.39888         259.186         167.991         260.038 
       0.405048         252.429         162.175         255.197 
       0.411186         251.067         156.771         247.748 
       0.417313         245.993         151.765         241.759 
       0.423458         239.586         147.099         237.251 
       0.429607         231.878         142.722         232.388 
       0.435692          228.01         138.588         226.073 
       0.441815         223.489         134.548         223.192 
       0.447964         217.109         130.588         218.669 
       0.454126         214.151         126.709         212.078 
       0.460267         210.729         122.943         210.159 
       0.466387         205.204         119.323          205.76 
        0.47254         202.754         115.849          201.64 
       0.478662         197.286         112.566         197.495 
       0.484765         193.952         109.456         192.834 
       0.490885         191.256         106.488          189.79 
       0.497035         187.516         103.637          186.86 
       0.503198         185.941         100.886          183.67 
       0.509342         181.373         98.2265         180.738 
       0.515458         177.962         95.6527         178.204 
       0.521598         173.997          93.147         174.322 
       0.527764         172.285         90.7137         172.086 
       0.533884         170.417         88.3838         169.468 
           0.54         167.016         86.1414         166.027 
       0.546137         162.947         83.9774         163.982 
       0.552299         161.181         81.8911         160.723 
       0.558452         158.377         79.8888         158.152 
       0.564573         157.508         77.9672         156.609 
       0.570708         153.426         76.1032         154.551 
       0.576825         151.074         74.2998         151.141 
       0.582926          149.73         72.5544         149.249 
       0.589034         146.827         70.8604         147.627 
       0.595184         145.346         69.2089         144.482 
       0.601379         142.923         67.6007         142.971 
       0.607522         139.303         66.0585         140.549 
       0.613639         138.511         64.5726         139.574 
       0.619772         137.148         63.1301         137.838 
       0.625918         135.206         61.7298         135.333 
       0.632068          132.43         60.3718         133.254 
       0.638161         131.619         59.0671         132.421 
         0.6443          129.83         57.7919          130.58 
       0.650464         127.442         56.5497         127.777 
       0.656582         126.189         55.3529         126.767 
       0.662703         125.241         54.1901         125.122 
       0.668861         122.392          53.054          123.87 
       0.675024         122.058         51.9495         122.276 
       0.681124         120.156         50.8878         120.513 
       0.687237         119.004         49.8539          119.09 
       0.693381         116.696         48.8442         117.431 
       0.699536         116.126         47.8611         116.235 
       0.705665         114.604         46.9097         115.165 
       0.711789         112.703         45.9853         113.901 
       0.717957          111.68         45.0798         112.599 
        0.72409         110.094         44.2039         111.592 
       0.730186         110.186         43.3568         110.379 
       0.736317         108.614         42.5273         108.854 
       0.742472         106.759         41.7166         107.702 
       0.748622         105.163         40.9279          106.45 
        0.75476         105.371         40.1613         105.515 
       0.760888         103.872         39.4157         103.893 
       0.767043         101.957         38.6861         103.215 
       0.773185         100.668         37.9766         102.387 
       0.779291         99.9392          37.289         101.052 
       0.785407          99.029         36.6175         99.8655 
       0.791564         98.0276         35.9585         99.0669 
       0.797719         96.3901         35.3161         98.4376 
       0.803834         96.4309         34.6935          97.228 
       0.809972         95.2537         34.0838         96.2758 
       0.816124         93.4737         33.4875         95.4815 
       0.822261         92.8889         32.9071         94.5476 
       0.828378         92.3896         32.3423         93.3705 
       0.834502         91.5337         31.7904         92.4206 
       0.840667         90.8762         31.2478         91.8477 
       0.846816         89.3955         30.7195         91.0683 
       0.852925         88.7995         30.2068         90.2768 
       0.859047         87.8168         29.7047         89.4442 
       0.865192         87.1549         29.2125         88.4676 
       0.871341         86.4343         28.7311         87.6203 
       0.877463         85.5681         28.2629         87.0238 
       0.883569         85.3736         27.8062         86.5402 
       0.889708         84.5079         27.3574         85.5685 
       0.895864         83.5336         26.9174         85.0252 
       0.902008         82.4578          26.488         84.0841 
       0.908149         81.6178         26.0683         83.3896 
       0.914301         81.0793          25.657         82.6828 
       0.920448         81.1005          25.255         82.0891 
       0.926574         79.4813         24.8631         81.3133 
       0.932687         79.2799         24.4803         80.8105 
       0.938823         78.7349         24.1043         79.9972 
       0.944975          78.014         23.7353         79.3819 
       0.951105         77.1913         23.3755         78.6858 
       0.957225         76.7451         23.0237         78.1158 
       0.963368         76.0009          22.678         77.4457 
       0.969511         75.4398         22.3394         76.7896 
       0.975621         74.2731         22.0096         76.6257 
       0.981748         74.0862         21.6856         76.0116 
       0.987916         73.4464         21.3662         75.3753 
        0.99406          73.053         21.0544         74.6514 
        1.00019         72.4032         20.7494         74.0077 
        1.00632         71.6519         20.4509         73.4353 
        1.01246         71.1875         20.1577         72.7372 
        1.01859         70.7492         19.8708         72.5476 
        1.02471         70.3058         19.5899         72.1877 
        1.03085         69.6137         19.3135         71.5628 
        1.03698         68.9921          19.043         71.0548 
        1.04314         68.6044         18.7765         70.4441 
        1.04929         68.1771         18.5158         70.0985 
        1.05541         67.5414         18.2611         69.7074 
        1.06154         66.8442         18.0105         69.1528 
        1.06769         66.4882         17.7643         68.7124 
        1.07382         66.0522         17.5235         68.2758 
        1.07993         65.7202         17.2877         67.7886 
        1.08607         65.2797         17.0553         67.3194 
        1.09222         64.6749          16.827         66.9087 
        1.09836          64.208         16.6031          66.362 
        1.10449         63.7852         16.3835         66.0278 
        1.11063         63.2499         16.1677         65.3542 
        1.11677         63.0279         15.9558         64.9627 
         1.1229         62.2099         15.7482         64.7243 
        1.12903         61.8371          15.544         64.1753 
        1.13518         61.3114         15.3434         63.7813 
        1.14131         61.0794         15.1463          63.266 
        1.14745         60.7561         14.9529         62.9931 
        1.15359         60.1233         14.7628         62.6122 
        1.15973         59.9054         14.5759         62.3238 
        1.16584         59.4291         14.3932         61.6855 
        1.17197         59.0645         14.2133         61.5286 
        1.17811         58.6495         14.0359         61.0724 
        1.18424         58.1207         13.8621         60.6887 
        1.19038         57.8727         13.6907          60.357 
        1.19652         57.5635         13.5223         59.9761 
        1.20267          57.048         13.3568         59.6726 
        1.20881         56.5848          13.194         59.1988 
        1.21495          56.322         13.0342         58.8836 
        1.22108         56.0126         12.8771         58.6079 
         1.2272         55.7354          12.723         58.2136 
        1.23334         55.4371         12.5711          58.024 
        1.23949         54.8897         12.4212         57.5125 
        1.24562         54.4357         12.2743         57.0556 
        1.25174         54.4356         12.1299          56.819 
        1.25789         53.9418         11.9874         56.4993 
        1.26402         53.5692         11.8475         56.2771 
        1.27014         53.1365         11.7101           56.05 
        1.27628         52.9208         11.5746         55.7055 
        1.28244         52.7976         11.4409         55.2278 
        1.28858         52.3477         11.3094         54.9122 
        1.29471         51.9265         11.1804         54.6897 
        1.30084         51.5168         11.0535         54.2551 
        1.30697         51.3042         10.9284         54.0731 
        1.31312         51.1107          10.805         53.8312 
        1.31925         50.5743         10.6839         53.4772 
        1.32537         50.3417         10.5648         53.2596 
        1.33151         50.2049         10.4471         52.9198 
        1.33765         49.7689         10.3313          52.653 
        1.34378           49.48         10.2174         52.3789 
        1.34992         49.2112         10.1052         52.0271 
        1.35606         48.9667         9.99445          51.764 
         1.3622         48.6583         9.88554         51.5489 
        1.36833         48.3567         9.77852         51.2306 
        1.37445         48.0665         9.67314         51.0458 
        1.38059         47.7672           9.569          50.684 
        1.38675         47.4651         9.46614         50.4168 
        1.39288         47.1928         9.36519          50.094 
        1.39901          46.941         9.26577         49.9174 
        1.40515         46.5702         9.16757         49.7923 
         1.4113         46.3929         9.07083         49.5653 
        1.41742         46.1477         8.97586         49.2024 
        1.42355         45.9347         8.88207         48.9365 
         1.4297         45.6368         8.78933         48.7358 
        1.43585         45.5025         8.69796         48.3882 
        1.44198         45.0309         8.60824         48.2155 
        1.44809         44.7091         8.51996         47.9777 
        1.45423         44.7184         8.43259         47.6928 
        1.46036         44.4062          8.3466         47.4715 
        1.46649         44.0359         8.26178         47.3128 
        1.47263         43.7473         8.17808         47.1067 
        1.47877         43.5668         8.09557         46.7449 
        1.48491          43.215         8.01407         46.5652 
        1.49104         43.1103         7.93387         46.4211 
        1.49718         42.7966          7.8547          46.124 
        1.50333         42.6456         7.77649         45.9051 
        1.50947         42.3747         7.69951         45.7063 
         1.5156         42.2447         7.62368          45.472 
        1.52172           41.87         7.54887         45.2459 
        1.52787         41.7184         7.47492         45.0447 
          1.534         41.4222         7.40204         44.8606 
        1.54013         41.3369         7.33021         44.6352 
        1.54627         40.9214          7.2592          44.398 
        1.55241         40.8842         7.18913         44.1962 
        1.55855         40.5142         7.12007         44.0189 
        1.56467         40.1751         7.05212         43.8285 
         1.5708         40.1944         6.98486         43.6055 
        1.57695         39.8609         6.91837         43.4275 
        1.58308         39.7328         6.85291         43.2413 
        1.58922         39.4504         6.78824         43.0018 
        1.59535         39.4476         6.72444         42.8397 
         1.6015         39.1538         6.66137         42.6077 
        1.60764         38.9389         6.59913         42.4017 
        1.61376         38.7341         6.53787         42.3109 
        1.61989         38.3773         6.47733         42.0922 
        1.62604         38.2971         6.41743         41.8323 
        1.63218         38.0396         6.35832         41.6385 
        1.63831         37.8767         6.30009         41.5111 
        1.64444         37.7259         6.24257         41.3354 
        1.65059         37.4778         6.18563         41.1179 
        1.65673         37.2881         6.12946         40.9105 
        1.66285         37.0521         6.07414         40.7651 
        1.66898         36.8368          6.0195         40.6458 
        1.67512         36.6131         5.96541         40.4174 
        1.68127         36.5485         5.91194         40.2025 
         1.6874         36.3719         5.85925         40.0477 
        1.69353         36.1289         5.80723         39.9008 
        1.69967         35.9544         5.75572         39.7225 
        1.70581         35.7878         5.70485         39.5589 
        1.71193         35.5053         5.65479         39.4134 
        1.71806         35.4072         5.60523         39.2435 
        1.72421         35.1575         5.55616         39.0701 
        1.73035         35.0562         5.50773         38.8866 
        1.73649         34.8174          5.4599         38.7043 
        1.74262         34.6398         5.41266         38.5591 
        1.74876         34.5832         5.36596         38.4003 
        1.75489         34.3305         5.31991         38.2237 
        1.76101         34.2299          5.2744         38.0445 
        1.76715         34.0064         5.22937         37.8671 
        1.77329         33.8368         5.18481         37.7428 
        1.77943         33.6774         5.14075         37.6256 
        1.78557         33.5306         5.09727         37.4581 
        1.79171         33.2617         5.05428          37.291 
        1.79785         33.1818         5.01178         37.1373 
        1.80399         32.9949         4.96978         36.9841 
        1.81012         32.7716         4.92831         36.8329 
        1.81625         32.6715         4.88733         36.6716 
        1.82239         32.4527         4.84676         36.5262 
        1.82853          32.354         4.80667         36.4232 
        1.83466         32.1322         4.76707         36.2606 
        1.84078         31.9614         4.72796         36.0673 
        1.84692         31.8869         4.68922         35.9644 
        1.85306          31.733         4.65087         35.8291 
         1.8592         31.4708           4.613         35.6507 
        1.86533         31.4131         4.57558         35.5044 
        1.87147         31.1921         4.53853         35.3372 
        1.87761         31.0592         4.50188         35.1922 
