# k  (h/Mpc)    P(k)  (Mpc/h)^3    P_linear(k)  (Mpc/h)^3     P_NL(k)  ShotnoiseSubtracted = false
     0.00783031         1483.78         1496.53         1483.18 
       0.013688         1649.23         1668.16         1657.92 
       0.019231          1533.6         1540.55         1532.39 
      0.0249154         1300.92         1297.16         1293.26 
      0.0312784         1020.02         1017.82         1018.76 
      0.0375637         801.529         801.397         802.906 
      0.0433917         669.781         666.961         668.464 
      0.0492413         585.421         584.694         586.059 
      0.0555754         534.779          532.58         532.951 
      0.0619321         491.699         494.936         494.768 
       0.067871         456.671         457.083         456.573 
      0.0738098         410.668         410.423         409.747 
      0.0800417         356.065         354.657         354.541 
      0.0862327         301.267         300.316         300.979 
      0.0921407         257.496         256.585         257.585 
      0.0982031         225.779         223.662         225.076 
       0.104506         202.351         202.018         203.541 
       0.110769         190.369         189.909         190.941 
       0.116806         183.876         182.652         183.285 
       0.122832         175.672         175.561         176.031 
       0.129052         166.099         165.508          165.82 
       0.135211         153.355         152.137         152.569 
       0.141259         137.743             137         137.717 
       0.147318         122.461         122.042         123.203 
       0.153489         109.918         109.024         110.101 
       0.159709          100.56         99.2405         100.474 
       0.165845         93.1911         92.8337         94.2631 
       0.171974           90.21         88.8122         89.9929 
       0.178125         86.9896         85.9313         87.1202 
       0.184229         83.5322         83.0369         84.0737 
        0.19034         80.3327         79.3285         80.2409 
       0.196428         75.5952         74.6416         75.4223 
       0.202534         69.5288         69.2877         70.1911 
       0.208729         64.8769         63.8221          64.828 
       0.214876         60.4004          58.971         60.2529 
       0.220989         55.8697         55.0704         56.4222 
       0.227147         53.4811         52.1252         53.4244 
        0.23329         51.2904         49.9695         51.3053 
       0.239377          49.654         48.2701         49.5345 
       0.245482         47.8075          46.655         47.7182 
       0.251667         45.6964         44.8515          45.972 
       0.257832         44.0986          42.794          43.856 
       0.263955         41.5058         40.5572         41.5962 
       0.270079         39.2152         38.2832          39.352 
        0.27624         36.9749         36.1397         37.1995 
       0.282372         35.1832          34.272         35.4335 
        0.28843         34.0139         32.7326         33.9064 
       0.294538         32.5932         31.4522         32.5935 
       0.300721         31.2269         30.3454         31.4918 
        0.30691         30.4266         29.3226          30.453 
       0.313033         29.2727         28.3087         29.3631 
       0.319153         28.4891         27.2505         28.3015 
       0.325316         27.0331         26.1398         27.2185 
        0.33145         25.8888         25.0259          26.068 
       0.337538         24.8751         23.9594         24.9868 
       0.343633         23.9862         22.9704         24.0026 
       0.349808         23.0102         22.0735         23.1528 
       0.355968         22.1654         21.2787         22.4291 
       0.362074         21.6218         20.5731         21.6504 
       0.368217         20.8998         19.9141         20.9008 
       0.374374         20.3509         19.2779         20.2878 
       0.380519         19.5366         18.6497         19.6118 
       0.386598         18.8474         18.0265         18.9995 
       0.392688         18.1666         17.4083         18.3839 
        0.39888         17.6824          16.796         17.7756 
       0.405048         17.1349         16.2145         17.1443 
       0.411186         16.5482         15.6742          16.667 
       0.417313         16.0222         15.1737         16.1353 
       0.423458         15.4801         14.7072         15.6725 
       0.429607         15.1573         14.2696         15.1979 
       0.435692         14.7935         13.8562          14.788 
       0.441815          14.255         13.4523         14.4064 
       0.447964         13.7415         13.0564         13.9658 
       0.454126         13.4643         12.6686         13.5639 
       0.460267         13.1783          12.292         13.2203 
       0.466387         12.7622         11.9301          12.813 
        0.47254         12.4731         11.5828         12.4759 
       0.478662          12.067         11.2546           12.13 
       0.484765         11.7528         10.9436         11.7989 
       0.490885         11.3846         10.6469         11.5474 
       0.497035         11.0873         10.3618         11.2724 
       0.503198         10.8659         10.0868         10.9348 
       0.509342         10.5102         9.82083         10.6754 
       0.515458         10.3067          9.5635          10.445 
       0.521598         10.0581         9.31299         10.1328 
       0.527764         9.85664          9.0697         9.87337 
       0.533884         9.53595         8.83675         9.63376 
           0.54         9.34067         8.61255         9.40374 
       0.546137         9.04873         8.39619         9.20486 
       0.552299         8.86095         8.18761         8.94319 
       0.558452         8.63533         7.98741         8.74841 
       0.564573         8.46842         7.79528         8.59026 
       0.570708         8.27029         7.60892         8.38627 
       0.576825         8.09984         7.42861         8.18908 
       0.582926         7.90001         7.25411         8.01722 
       0.589034         7.73329         7.08474         7.86833 
       0.595184         7.60657         6.91962         7.63715 
       0.601379         7.38559         6.75882         7.52646 
       0.607522         7.22464         6.60464         7.34432 
       0.613639          7.0601         6.45607         7.18343 
       0.619772         6.92647         6.31185          7.0568 
       0.625918         6.77149         6.17185         6.89238 
       0.632068         6.66084         6.03607         6.73903 
       0.638161         6.50308         5.90563         6.60759 
         0.6443         6.36836         5.77813         6.46246 
       0.650464         6.21767         5.65393         6.36192 
       0.656582          6.1344         5.53427         6.22874 
       0.662703         6.01764         5.41801         6.09651 
       0.668861         5.85246         5.30442         5.99888 
       0.675024         5.73935           5.194         5.86459 
       0.681124          5.7065         5.08785         5.74818 
       0.687237          5.5621         4.98447         5.62479 
       0.693381         5.41361         4.88353         5.51325 
       0.699536         5.35397         4.78524         5.41875 
       0.705665          5.2397         4.69011          5.3482 
       0.711789         5.12079         4.59769         5.23226 
       0.717957         5.01041         4.50716         5.12591 
        0.72409         4.94489         4.41958         5.04622 
       0.730186         4.89265         4.33488         4.94562 
       0.736317         4.76459         4.25195         4.85087 
       0.742472         4.70283          4.1709         4.78668 
       0.748622         4.61515         4.09204          4.7028 
        0.75476         4.49147          4.0154          4.6103 
       0.760888         4.44564         3.94084         4.53638 
       0.767043         4.33277          3.8679         4.46455 
       0.773185         4.27036         3.79696         4.39109 
       0.779291         4.23723         3.72822         4.31914 
       0.785407         4.14318         3.66108         4.23851 
       0.791564         4.06991         3.59519         4.17112 
       0.797719         3.99253         3.53096         4.09421 
       0.803834         3.94366         3.46871         4.02872 
       0.809972         3.86309         3.40775         3.98026 
       0.816124         3.80411         3.34814         3.90242 
       0.822261         3.74659         3.29011         3.83732 
       0.828378         3.68612         3.23364         3.78064 
       0.834502         3.62458         3.17846         3.71831 
       0.840667         3.57984         3.12421          3.6603 
       0.846816         3.50079         3.07139         3.61136 
       0.852925         3.45608         3.02012         3.55575 
       0.859047         3.39755         2.96993         3.50837 
       0.865192         3.34304         2.92071         3.44981 
       0.871341         3.29372         2.87259         3.40097 
       0.877463         3.23606         2.82577         3.34381 
       0.883569         3.19743         2.78012         3.29678 
       0.889708         3.14566         2.73524         3.25037 
       0.895864         3.09834         2.69125         3.19872 
       0.902008         3.04307         2.64832         3.15592 
       0.908149         3.00017         2.60635         3.10455 
       0.914301         2.96001         2.56523         3.06852 
       0.920448           2.924         2.52504         3.01517 
       0.926574         2.89007         2.48585         2.98185 
       0.932687           2.837         2.44759         2.92062 
       0.938823         2.78266         2.40999         2.89555 
       0.944975         2.76229          2.3731         2.85019 
       0.951105         2.70106         2.33712           2.808 
       0.957225         2.68187         2.30195         2.77626 
       0.963368         2.64083         2.26739          2.7334 
       0.969511         2.60429         2.23354         2.69992 
       0.975621         2.56101         2.20056         2.65601 
       0.981748           2.516         2.16817         2.61964 
       0.987916          2.4886         2.13623         2.59141 
        0.99406         2.46156         2.10505          2.5599 
        1.00019         2.42965         2.07457         2.52953 
        1.00632         2.40236         2.04471         2.49105 
        1.01246         2.36459         2.01541         2.46264 
        1.01859         2.33199         1.98672         2.42705 
        1.02471         2.29226         1.95863         2.38767 
        1.03085         2.26932         1.93099         2.35921 
        1.03698         2.23998         1.90395         2.33347 
        1.04314         2.20936         1.87731         2.30198 
        1.04929         2.18035         1.85124         2.27434 
        1.05541         2.14718         1.82577         2.24916 
        1.06154          2.1265         1.80072         2.22094 
        1.06769         2.10721         1.77611         2.19679 
        1.07382         2.06831         1.75203         2.16634 
        1.07993         2.04053         1.72846         2.13683 
        1.08607         2.02431         1.70522         2.11711 
        1.09222          1.9916         1.68239         2.08703 
        1.09836         1.98124            1.66         2.05864 
        1.10449         1.93641         1.63805         2.03903 
        1.11063         1.91991         1.61647         2.01084 
        1.11677         1.89887         1.59529         1.98942 
         1.1229          1.8734         1.57453         1.96907 
        1.12903         1.85572         1.55412         1.94703 
        1.13518         1.82652         1.53406         1.92195 
        1.14131         1.80426         1.51436         1.89631 
        1.14745         1.78221         1.49502         1.87333 
        1.15359         1.75941         1.47601          1.8586 
        1.15973         1.73804         1.45733         1.83467 
        1.16584         1.72284         1.43906          1.8145 
        1.17197         1.69631         1.42107         1.79428 
        1.17811         1.67612         1.40334         1.77403 
        1.18424         1.65668         1.38596         1.75131 
        1.19038         1.64076         1.36882         1.73254 
        1.19652         1.62276         1.35199         1.71738 
        1.20267         1.60758         1.33543         1.69399 
        1.20881         1.58446         1.31916         1.67623 
        1.21495         1.56757         1.30319         1.66263 
        1.22108         1.55016         1.28748         1.64238 
         1.2272         1.52736         1.27207         1.62135 
        1.23334          1.5175         1.25688         1.60822 
        1.23949         1.49553          1.2419         1.59423 
        1.24562         1.48123          1.2272         1.57635 
        1.25174         1.47041         1.21277          1.5555 
        1.25789         1.44504         1.19853         1.53837 
        1.26402         1.43139         1.18453         1.52159 
        1.27014         1.41459          1.1708         1.50897 
        1.27628         1.39983         1.15725         1.49263 
        1.28244         1.38462         1.14388         1.47572 
        1.28858         1.37154         1.13074         1.46064 
        1.29471         1.35265         1.11784         1.44576 
        1.30084         1.33914         1.10515         1.43505 
        1.30697         1.32905         1.09264         1.41739 
        1.31312         1.31269          1.0803         1.40261 
        1.31925         1.29875          1.0682         1.39368 
        1.32537         1.28661         1.05629         1.37891 
        1.33151          1.2706         1.04452         1.36432 
        1.33765         1.25832         1.03294         1.35129 
        1.34378         1.24814         1.02156          1.3384 
        1.34992         1.23517         1.01034         1.32449 
        1.35606         1.22145        0.999264         1.30925 
         1.3622          1.2101        0.988375         1.29679 
        1.36833         1.19417        0.977675         1.28932 
        1.37445         1.18083        0.967139         1.27587 
        1.38059         1.16998        0.956727         1.26263 
        1.38675         1.15828        0.946442          1.2479 
        1.39288         1.15108         0.93635         1.24011 
        1.39901         1.13459         0.92641         1.22747 
        1.40515         1.12458        0.916591         1.21503 
         1.4113          1.1162        0.906919         1.20549 
        1.41742         1.10144        0.897423          1.1947 
        1.42355         1.09093        0.888046         1.17958 
         1.4297         1.08137        0.878774         1.17408 
        1.43585         1.07121        0.869639         1.16335 
        1.44198         1.05999        0.860669         1.14958 
        1.44809         1.05116        0.851842         1.14107 
        1.45423         1.03948        0.843106         1.12833 
        1.46036         1.03136        0.834509         1.11859 
        1.46649         1.01814        0.826029         1.11053 
        1.47263         1.01221         0.81766         1.10056 
        1.47877          1.0051        0.809411         1.08909 
        1.48491        0.988577        0.801262         1.08134 
        1.49104        0.982407        0.793244         1.06911 
        1.49718        0.972707        0.785329         1.06171 
        1.50333        0.963178        0.777509         1.05254 
        1.50947        0.954438        0.769812         1.04195 
         1.5156        0.946081         0.76223         1.03412 
        1.52172        0.937046        0.754751         1.02721 
        1.52787         0.92936        0.747357         1.01475 
          1.534        0.921385         0.74007         1.00709 
        1.54013        0.912218        0.732889        0.998663 
        1.54627        0.903099        0.725789        0.988765 
        1.55241        0.894169        0.718783        0.981127 
        1.55855         0.88695        0.711879         0.97256 
        1.56467        0.879915        0.705084        0.965453 
         1.5708        0.871234         0.69836        0.956704 
        1.57695        0.862008        0.691712        0.948466 
        1.58308        0.853191        0.685167        0.941896 
        1.58922        0.848711        0.678702        0.933563 
        1.59535        0.838633        0.672323        0.926516 
         1.6015        0.831632        0.666017        0.918638 
        1.60764        0.825934        0.659794         0.91096 
        1.61376         0.81593        0.653669        0.904904 
        1.61989        0.809217        0.647616        0.897483 
        1.62604        0.801451        0.641627        0.890094 
        1.63218        0.796836        0.635717        0.883394 
        1.63831        0.790023        0.629895        0.876248 
        1.64444        0.781997        0.624144        0.868189 
        1.65059           0.777        0.618451        0.861647 
        1.65673        0.767584        0.612836        0.854721 
        1.66285        0.761412        0.607305        0.847269 
        1.66898        0.755603        0.601841        0.840395 
        1.67512        0.747279        0.596434        0.834615 
        1.68127        0.742089        0.591088        0.829451 
         1.6874        0.737825         0.58582         0.82368 
        1.69353        0.729676        0.580618        0.816366 
        1.69967        0.723325        0.575468        0.809034 
        1.70581        0.719811        0.570382        0.803643 
        1.71193        0.709222        0.565377         0.79865 
        1.71806        0.706557        0.560422        0.791033 
        1.72421        0.701213        0.555516        0.784793 
        1.73035        0.692467        0.550674         0.77936 
        1.73649        0.689213        0.545892        0.773427 
        1.74262        0.682396        0.541169         0.76758 
        1.74876        0.677066          0.5365        0.762948 
        1.75489        0.671471        0.531895        0.757448 
        1.76101         0.66439        0.527346        0.750326 
        1.76715        0.660942        0.522843        0.744677 
        1.77329        0.655254        0.518388        0.739607 
        1.77943        0.650289        0.513983        0.734072 
        1.78557        0.645745        0.509635        0.728313 
        1.79171        0.640494        0.505337        0.722961 
        1.79785        0.635677        0.501088         0.71807 
        1.80399        0.629252        0.496888        0.713107 
        1.81012        0.624615        0.492743        0.707223 
        1.81625        0.618355        0.488646        0.701752 
        1.82239        0.614429        0.484589        0.697513 
        1.82853        0.610042        0.480581        0.693576 
        1.83466        0.604484        0.476622         0.68907 
        1.84078        0.599824        0.472711        0.683859 
        1.84692        0.594874        0.468838        0.678379 
        1.85306        0.591546        0.465004        0.672726 
         1.8592        0.585243        0.461218        0.668163 
        1.86533        0.581879        0.457476        0.664621 
        1.87147        0.576809        0.453772        0.659417 
        1.87761        0.572434        0.450107        0.654602 
