# k  (h/Mpc)    Pcb(k)  (Mpc/h)^3    Pcb_linear(k) (Mpc/h)^3    Pcb_NL(k) (Mpc/h)^3   ShotnoiseSubtracted = false
     0.00783031          200.57          202.45         200.607 
       0.013688         224.023         225.798         224.411 
       0.019231         208.042         208.565         207.477 
      0.0249154         175.799         175.633         175.121 
      0.0312784         138.162         137.818         137.966 
      0.0375637         108.736         108.518         108.741 
      0.0433917         90.6415         90.3154         90.5354 
      0.0492413          79.318         79.1763          79.366 
      0.0555754          72.288         72.1199         72.1668 
      0.0619321         66.8467         67.0228         66.9891 
       0.067871         61.8484         61.8971         61.8146 
      0.0738098         55.5593         55.5788         55.4963 
      0.0800417         48.0925         48.0273         48.0007 
      0.0862327         40.7317         40.6687         40.7061 
      0.0921407         34.7985         34.7468         34.8172 
      0.0982031          30.408         30.2884         30.3815 
       0.104506         27.3724         27.3575         27.4437 
       0.110769          25.724         25.7177         25.7727 
       0.116806         24.7648         24.7348         24.7519 
       0.122832         23.7419         23.7745         23.7727 
       0.129052         22.4098         22.4132         22.3996 
       0.135211         20.6261         20.6025         20.5965 
       0.141259         18.5577         18.5527         18.5663 
       0.147318         16.5209         16.5271         16.5665 
       0.153489         14.7856         14.7643         14.8078 
       0.159709          13.472         13.4394         13.4905 
       0.165845         12.5577         12.5717         12.6264 
       0.171974         12.0595         12.0271         12.0686 
       0.178125          11.649          11.637         11.6738 
       0.184229         11.2345          11.245         11.2722 
        0.19034         10.7616         10.7428          10.764 
       0.196428         10.1176         10.1081         10.1254 
       0.202534         9.36043         9.38307         9.40699 
       0.208729         8.65645         8.64294         8.67386 
       0.214876          8.0192         7.98602         8.02828 
       0.220989         7.46123         7.45775          7.5035 
       0.227147         7.08868          7.0589         7.10201 
        0.23329         6.79464         6.76696         6.81032 
       0.239377         6.56373         6.53683         6.57634 
       0.245482         6.34122         6.31811         6.34928 
       0.251667         6.08045         6.07389         6.10653 
       0.257832         5.81971         5.79528         5.82582 
       0.263955         5.50538         5.49235         5.52257 
       0.270079         5.19667         5.18438         5.21635 
        0.27624          4.8991         4.89411         4.92647 
       0.282372         4.64824         4.64119         4.67793 
        0.28843         4.45489         4.43273         4.46995 
       0.294538         4.27863         4.25933         4.29485 
       0.300721          4.1162         4.10944         4.14493 
        0.30691          3.9887         3.97093         4.00552 
       0.313033         3.84862         3.83364         3.86526 
       0.319153         3.72095         3.69033         3.72185 
       0.325316         3.54759         3.53991         3.57256 
        0.33145         3.39744         3.38906         3.42062 
       0.337538         3.25672         3.24463         3.27587 
       0.343633         3.12969         3.11071         3.14178 
       0.349808         3.00298         2.98924          3.0223 
       0.355968          2.8922         2.88163         2.91778 
       0.362074         2.80396         2.78605         2.81911 
       0.368217         2.71234         2.69681          2.7263 
       0.374374         2.63321         2.61066         2.64136 
       0.380519         2.53985         2.52557          2.5543 
       0.386598         2.45171         2.44119         2.47051 
       0.392688         2.36442         2.35747         2.38675 
        0.39888         2.28721         2.27456         2.30456 
       0.405048         2.20966          2.1958         2.22333 
       0.411186         2.13481         2.12264         2.15281 
       0.417313         2.06776         2.05486         2.08433 
       0.423458         1.99933         1.99168         2.02108 
       0.429607         1.94696         1.93242         1.96028 
       0.435692         1.89169         1.87644         1.90467 
       0.441815         1.83436         1.82174         1.85095 
       0.447964         1.77481         1.76812         1.79559 
       0.454126         1.72815         1.71561          1.7428 
       0.460267         1.67996         1.66461         1.69299 
       0.466387         1.62982          1.6156         1.64216 
        0.47254         1.58457         1.56856         1.59535 
       0.478662         1.53786         1.52412         1.55006 
       0.484765         1.49687         1.48201         1.50762 
       0.490885         1.45333         1.44182         1.46957 
       0.497035         1.41137         1.40322         1.43137 
       0.503198          1.3786         1.36597         1.39128 
       0.509342         1.33812         1.32996         1.35553 
       0.515458         1.30648         1.29511         1.32178 
       0.521598         1.27332         1.26119          1.2854 
       0.527764         1.24342         1.22824         1.25239 
       0.533884         1.20534         1.19669         1.22042 
           0.54         1.17724         1.16633         1.18967 
       0.546137         1.14585         1.13703         1.16129 
       0.552299         1.11883         1.10878         1.13055 
       0.558452         1.09156         1.08167         1.10404 
       0.564573         1.06551         1.05566         1.07985 
       0.570708         1.04076         1.03042         1.05365 
       0.576825         1.01656           1.006         1.02839 
       0.582926        0.990727        0.982369         1.00515 
       0.589034        0.970835        0.959432          0.9833 
       0.595184        0.949451        0.937072        0.957594 
       0.601379        0.925423        0.915296        0.938467 
       0.607522        0.903375        0.894416        0.916724 
       0.613639         0.88186        0.874297        0.895934 
       0.619772        0.864831        0.854766        0.877321 
       0.625918        0.845629        0.835806        0.857014 
       0.632068        0.827117         0.81742        0.837897 
       0.638161        0.808779        0.799755        0.820505 
         0.6443        0.791045        0.782488         0.80241 
       0.650464        0.775339         0.76567        0.786838 
       0.656582        0.759832        0.749464        0.770001 
       0.662703         0.74334         0.73372        0.753573 
       0.668861        0.725407        0.718338        0.738901 
       0.675024        0.711448        0.703384        0.723486 
       0.681124        0.700774        0.689009         0.70838 
       0.687237        0.684411         0.67501        0.693327 
       0.693381        0.668644        0.661339        0.679097 
       0.699536        0.657798        0.648028        0.666099 
       0.705665        0.644901        0.635146         0.65479 
       0.711789        0.629992        0.622631          0.6415 
       0.717957        0.618633         0.61037        0.628336 
        0.72409        0.606513        0.598511        0.616793 
       0.730186        0.597108         0.58704        0.604614 
       0.736317        0.583245         0.57581        0.592779 
       0.742472        0.573874        0.564833        0.582803 
       0.748622        0.563451        0.554154        0.572468 
        0.75476        0.551701        0.543775        0.560956 
       0.760888        0.542918        0.533679        0.550759 
       0.767043        0.529174        0.523801        0.541104 
       0.773185        0.521468        0.514194        0.531727 
       0.779291        0.513937        0.504884        0.522147 
       0.785407        0.503817        0.495793        0.512545 
       0.791564        0.494288        0.486869        0.503594 
       0.797719        0.485512        0.478171        0.494099 
       0.803834        0.476956        0.469742        0.485845 
       0.809972        0.468896        0.461486        0.478263 
       0.816124        0.460523        0.453413         0.46924 
       0.822261        0.453138        0.445555        0.460948 
       0.828378        0.445063        0.437908        0.453479 
       0.834502         0.43715        0.430435        0.445452 
       0.840667        0.430692        0.423088        0.438395 
       0.846816        0.423012        0.415935        0.432046 
       0.852925        0.415308        0.408993         0.42424 
       0.859047        0.408575        0.402195        0.418157 
       0.865192         0.40219         0.39553         0.41077 
       0.871341        0.396331        0.389013        0.403968 
       0.877463        0.388522        0.382673        0.397188 
       0.883569         0.38274         0.37649        0.391497 
       0.889708        0.377063        0.370413        0.385288 
       0.895864        0.371076        0.364456         0.37888 
       0.902008         0.36451        0.358642        0.373068 
       0.908149        0.359396        0.352959        0.367246 
       0.914301        0.354398         0.34739        0.361409 
       0.920448        0.348931        0.341947        0.355824 
       0.926574        0.343934         0.33664        0.350711 
       0.932687        0.338751        0.331458        0.344706 
       0.938823        0.332322        0.326367          0.3405 
       0.944975        0.327932        0.321371        0.334549 
       0.951105         0.32199        0.316498        0.329665 
       0.957225        0.317424        0.311736        0.325149 
       0.963368        0.313353        0.307055          0.3201 
       0.969511        0.309105        0.302471        0.315577 
       0.975621        0.303663        0.298005         0.31038 
       0.981748        0.298502        0.293619        0.305851 
       0.987916        0.294668        0.289293        0.302254 
        0.99406        0.290917        0.285072        0.298197 
        1.00019        0.286525        0.280943        0.293776 
        1.00632        0.283164          0.2769        0.289172 
        1.01246        0.279004        0.272931        0.285078 
        1.01859        0.275041        0.269047        0.281551 
        1.02471        0.270571        0.265243        0.277552 
        1.03085        0.266359          0.2615        0.273207 
        1.03698        0.263441        0.257837        0.269367 
        1.04314         0.25952         0.25423        0.265789 
        1.04929        0.256687          0.2507        0.262301 
        1.05541        0.252257        0.247251        0.259027 
        1.06154         0.24921        0.243858        0.255489 
        1.06769        0.246042        0.240525        0.252112 
        1.07382        0.242687        0.237264        0.248651 
        1.07993        0.239578        0.234072        0.245318 
        1.08607        0.236194        0.230925        0.242402 
        1.09222        0.233022        0.227833        0.238781 
        1.09836        0.229984        0.224802        0.235895 
        1.10449        0.226684        0.221829        0.232898 
        1.11063         0.22375        0.218907        0.229546 
        1.11677        0.221258        0.216039        0.226974 
         1.1229        0.217768        0.213227        0.223996 
        1.12903        0.215324        0.210463        0.221106 
        1.13518        0.212572        0.207746        0.218244 
        1.14131        0.210021        0.205078        0.215613 
        1.14745        0.208062        0.202459        0.212491 
        1.15359          0.2048        0.199885        0.210276 
        1.15973        0.202555        0.197355        0.207751 
        1.16584        0.199819         0.19488        0.204826 
        1.17197        0.196998        0.192445        0.202626 
        1.17811        0.194497        0.190043         0.20024 
        1.18424        0.192238         0.18769        0.197503 
        1.19038        0.189546        0.185369        0.195131 
        1.19652        0.187958        0.183089        0.193004 
        1.20267        0.185639        0.180848        0.190298 
        1.20881        0.182635        0.178644         0.18825 
        1.21495        0.180794        0.176481        0.186419 
        1.22108        0.178826        0.174354        0.183773 
         1.2272        0.176345        0.172267        0.181521 
        1.23334        0.174411         0.17021        0.179523 
        1.23949        0.172657        0.168181         0.17756 
        1.24562         0.17052        0.166191        0.175499 
        1.25174        0.168634        0.164236        0.173371 
        1.25789        0.166096        0.162307        0.171433 
        1.26402        0.164759        0.160413        0.169493 
        1.27014        0.162307        0.158553         0.16739 
        1.27628        0.160797        0.156717        0.165389 
        1.28244        0.158919        0.154907        0.163651 
        1.28858        0.156851        0.153128        0.161677 
        1.29471        0.155256         0.15138        0.159972 
        1.30084        0.153381        0.149662        0.158476 
        1.30697        0.152107        0.147968        0.156603 
        1.31312        0.150377        0.146297         0.15476 
        1.31925        0.148499        0.144658        0.153208 
        1.32537        0.146911        0.143045        0.151586 
        1.33151        0.145296        0.141452        0.149922 
        1.33765        0.143606        0.139883        0.148274 
        1.34378         0.14191        0.138342        0.146632 
        1.34992        0.140784        0.136823        0.145081 
        1.35606        0.138984        0.135323        0.143395 
         1.3622        0.137551        0.133848        0.141927 
        1.36833        0.136333        0.132399        0.140547 
        1.37445        0.134899        0.130972        0.139107 
        1.38059        0.133371        0.129562        0.137553 
        1.38675        0.131693         0.12817        0.135995 
        1.39288         0.13009        0.126803        0.134556 
        1.39901        0.129149        0.125457        0.133221 
        1.40515        0.127647        0.124127        0.131816 
         1.4113         0.12654        0.122817        0.130611 
        1.41742        0.125268        0.121531        0.129468 
        1.42355        0.123403        0.120261        0.127661 
         1.4297        0.122659        0.119006        0.126751 
        1.43585        0.121119        0.117769        0.125268 
        1.44198        0.120098        0.116554         0.12373 
        1.44809        0.118784        0.115359        0.122929 
        1.45423        0.117506        0.114176        0.121335 
        1.46036        0.116368        0.113011        0.120247 
        1.46649        0.115149        0.111863        0.119253 
        1.47263        0.113624         0.11073        0.117957 
        1.47877        0.113225        0.109612        0.116868 
        1.48491         0.11155        0.108509        0.115812 
        1.49104         0.11099        0.107423        0.114323 
        1.49718        0.109625        0.106351        0.113584 
        1.50333        0.108582        0.105292        0.112194 
        1.50947        0.107553         0.10425        0.111038 
         1.5156        0.106465        0.103223          0.1102 
        1.52172        0.105454         0.10221        0.108999 
        1.52787        0.104167        0.101209         0.10793 
          1.534        0.103422        0.100222        0.107049 
        1.54013        0.102332       0.0992497         0.10599 
        1.54627        0.101555       0.0982883        0.104904 
        1.55241        0.100498       0.0973394         0.10392 
        1.55855       0.0995515       0.0964045        0.102923 
        1.56467       0.0986639       0.0954843        0.102032 
         1.5708       0.0976411       0.0945737        0.100985 
        1.57695       0.0967525       0.0936735       0.0999494 
        1.58308       0.0955384       0.0927871       0.0991628 
        1.58922       0.0949585       0.0919116       0.0983269 
        1.59535       0.0939679       0.0910477       0.0973494 
         1.6015        0.093221       0.0901937       0.0963367 
        1.60764        0.092212       0.0893511       0.0955768 
        1.61376       0.0914461       0.0885215        0.094926 
        1.61989       0.0905331       0.0877019       0.0939765 
        1.62604       0.0897025       0.0868908       0.0930591 
        1.63218       0.0890018       0.0860904       0.0922572 
        1.63831       0.0881329        0.085302       0.0914218 
        1.64444        0.087387       0.0845232          0.0905 
        1.65059       0.0863444       0.0837523        0.089733 
        1.65673       0.0857625       0.0829918       0.0890044 
        1.66285       0.0850882       0.0822428       0.0882151 
        1.66898       0.0841226       0.0815029       0.0873765 
        1.67512       0.0834638       0.0807706       0.0866059 
        1.68127       0.0826796       0.0800467       0.0858625 
         1.6874       0.0820482       0.0793332       0.0851875 
        1.69353       0.0812436       0.0786288       0.0845501 
        1.69967       0.0804176       0.0779314       0.0836419 
        1.70581       0.0800001       0.0772427        0.082834 
        1.71193       0.0793141       0.0765649       0.0821964 
        1.71806       0.0784726       0.0758938       0.0814706 
        1.72421       0.0777345       0.0752294       0.0808753 
        1.73035       0.0771649       0.0745737       0.0801761 
        1.73649       0.0764924        0.073926       0.0793348 
        1.74262       0.0757845       0.0732865       0.0787082 
        1.74876       0.0752716       0.0726542       0.0781699 
        1.75489       0.0745256       0.0720306       0.0775181 
        1.76101       0.0739553       0.0714145       0.0767813 
        1.76715       0.0733416       0.0708048       0.0762239 
        1.77329       0.0726124       0.0702015       0.0756361 
        1.77943       0.0719946       0.0696049       0.0749525 
        1.78557       0.0715622       0.0690161       0.0742718 
        1.79171       0.0709183       0.0684341       0.0736041 
        1.79785       0.0701915       0.0678586       0.0730252 
        1.80399       0.0695698       0.0672899        0.072524 
        1.81012       0.0691488       0.0667285       0.0717973 
        1.81625       0.0685943       0.0661737        0.071167 
        1.82239       0.0681488       0.0656244       0.0707562 
        1.82853       0.0674339       0.0650815        0.070226 
        1.83466       0.0668671       0.0645453       0.0695878 
        1.84078       0.0664125       0.0640158       0.0689825 
        1.84692       0.0658792       0.0634913       0.0685075 
        1.85306       0.0653429        0.062972       0.0678833 
         1.8592       0.0648434       0.0624593       0.0672283 
        1.86533       0.0643388       0.0619526       0.0667857 
        1.87147       0.0637582        0.061451       0.0663036 
