# k  (h/Mpc)    P(k)  (Mpc/h)^3    P_linear(k)  (Mpc/h)^3     P_NL(k)  ShotnoiseSubtracted = false
     0.00783031         20771.4         20898.5         20700.9 
       0.013688         22666.3           23315         23131.1 
       0.019231         21197.1         21532.2         21365.2 
      0.0249154         18269.3         18129.8         18007.8 
      0.0312784         14168.1         14224.9           14159 
      0.0375637         11090.6         11199.9         11174.8 
      0.0433917         9353.17         9320.84         9292.34 
      0.0492413         8155.62         8170.99         8149.65 
      0.0555754         7483.75         7442.59         7424.12 
      0.0619321         6742.27         6916.46         6894.52 
       0.067871         6322.76         6387.42         6373.82 
      0.0738098         5747.83         5735.33         5680.92 
      0.0800417         5017.14         4956.01         4946.36 
      0.0862327         4263.12         4196.62         4267.96 
      0.0921407         3709.07         3585.51          3682.1 
      0.0982031         3310.03         3125.43         3281.54 
       0.104506         2943.39         2822.98         3011.83 
       0.110769         2778.45         2653.76         2790.88 
       0.116806         2692.46         2552.34         2658.53 
       0.122832         2556.04         2453.25          2547.1 
       0.129052         2393.72         2312.77         2392.51 
       0.135211         2276.83         2125.92          2214.9 
       0.141259         2045.22          1914.4         2040.17 
       0.147318         1847.58         1705.37         1877.41 
       0.153489         1691.73         1523.47            1684 
       0.159709         1602.21         1386.75         1571.62 
       0.165845         1471.04         1297.23         1508.15 
       0.171974         1439.27         1241.03         1431.36 
       0.178125         1394.53         1200.77         1395.14 
       0.184229          1293.7         1160.33         1331.51 
        0.19034         1265.93         1108.51         1266.25 
       0.196428         1215.89         1043.01         1194.98 
       0.202534         1121.51         968.199         1133.52 
       0.208729          1089.8         891.824         1055.97 
       0.214876         1025.05         824.037         1018.24 
       0.220989         963.947         769.531         975.849 
       0.227147         934.477         728.376         938.421 
        0.23329         896.495         698.253         911.945 
       0.239377         889.511         674.505         875.937 
       0.245482          843.78         651.937         837.796 
       0.251667         811.981         626.735         815.368 
       0.257832         794.616         597.985          779.19 
       0.263955         751.638         566.729          747.53 
       0.270079         723.044         534.952         719.716 
        0.27624         690.834             505         690.555 
       0.282372          676.97         478.901         671.383 
        0.28843          664.55         457.391         653.291 
       0.294538         631.006         439.499         632.727 
       0.300721         616.138         424.033         614.228 
        0.30691         600.706         409.741         603.072 
       0.313033         573.293         395.573         580.935 
       0.319153         565.264         380.786          563.17 
       0.325316         554.769         365.265         548.236 
        0.33145         539.607           349.7         526.623 
       0.337538         518.991         334.797         513.233 
       0.343633         505.283         320.978         505.702 
       0.349808         492.503         308.445         494.859 
       0.355968         482.602         297.339         483.668 
       0.362074         463.524         287.479         472.623 
       0.368217         460.529          278.27         458.322 
       0.374374          452.81          269.38         447.369 
       0.380519         434.052         260.602         435.679 
       0.386598         429.176         251.894         430.766 
       0.392688         416.936         243.256          417.39 
        0.39888         407.289         234.699         408.907 
       0.405048         396.609         226.573         400.856 
       0.411186         396.221         219.023         390.784 
       0.417313         389.377          212.03         383.054 
       0.423458          379.69         205.511         376.411 
       0.429607         367.241         199.396         369.321 
       0.435692          361.67          193.62         358.992 
       0.441815         355.073         187.976         355.387 
       0.447964         347.181         182.443         349.423 
       0.454126         343.088         177.024         339.179 
       0.460267         337.127         171.762         336.783 
       0.466387         328.804         166.705         330.654 
        0.47254         325.486         161.852         324.459 
       0.478662         318.018         157.266         317.807 
       0.484765         312.754          152.92         312.215 
       0.490885         310.143         148.774          306.62 
       0.497035         302.156          144.79         302.436 
       0.503198         301.146         140.948         298.052 
       0.509342         294.813         137.231         293.024 
       0.515458         288.784         133.636         289.326 
       0.521598         285.074         130.135         284.606 
       0.527764         280.301         126.735         281.743 
       0.533884         276.993          123.48         277.555 
           0.54         273.472         120.348         272.314 
       0.546137         267.498         117.324         268.895 
       0.552299         265.824         114.409         264.571 
       0.558452         261.005         111.612         261.156 
       0.564573         259.744         108.927         258.822 
       0.570708         254.253         106.323         255.643 
       0.576825         249.922         103.804         250.398 
       0.582926         248.802         101.365         248.037 
       0.589034         243.479         98.9985         244.829 
       0.595184         241.831         96.6913         240.479 
       0.601379         237.686         94.4444         237.624 
       0.607522         232.306         92.2899         233.962 
       0.613639         231.457         90.2139         233.414 
       0.619772         230.261         88.1986          231.41 
       0.625918         225.342         86.2423         226.825 
       0.632068         223.531          84.345         224.278 
       0.638161         221.454         82.5222         222.769 
         0.6443         217.736         80.7406         219.863 
       0.650464         215.508         79.0052          215.43 
       0.656582         212.655          77.333         213.961 
       0.662703         212.009         75.7085         211.879 
       0.668861         207.185         74.1213         210.366 
       0.675024         206.373         72.5783         208.147 
       0.681124         202.989          71.095         204.651 
       0.687237         201.932         69.6505         202.512 
       0.693381         198.103         68.2399         200.254 
       0.699536         197.727         66.8664         198.697 
       0.705665         194.916         65.5372         195.789 
       0.711789         192.128         64.2458          194.86 
       0.717957          191.12         62.9807         193.504 
        0.72409         188.251          61.757         191.022 
       0.730186         188.752         60.5734         188.857 
       0.736317         185.559         59.4146         187.157 
       0.742472         183.827         58.2819         185.123 
       0.748622         181.881           57.18         183.252 
        0.75476         180.968         56.1091          182.92 
       0.760888         178.824         55.0673         179.979 
       0.767043         175.975          54.048         178.529 
       0.773185         174.025         53.0568         177.156 
       0.779291         173.139         52.0962         175.015 
       0.785407         171.616         51.1581         173.497 
       0.791564          170.29         50.2373         171.891 
       0.797719          167.49         49.3398         170.576 
       0.803834         167.475           48.47         169.476 
       0.809972         165.073         47.6182         167.896 
       0.816124         162.789         46.7851          166.26 
       0.822261         161.559         45.9743         165.302 
       0.828378          160.85         45.1852         163.529 
       0.834502         158.873         44.4141         162.067 
       0.840667         158.577         43.6561          160.54 
       0.846816         155.838          42.918         159.535 
       0.852925         155.543         42.2016         158.366 
       0.859047         153.516         41.5002         157.126 
       0.865192         152.808         40.8125          155.35 
       0.871341         151.467           40.14         154.307 
       0.877463         150.002         39.4858         153.449 
       0.883569         149.469         38.8479         152.901 
       0.889708         148.229         38.2209         150.893 
       0.895864         145.996         37.6061         149.992 
       0.902008         144.932         37.0062         148.512 
       0.908149         143.468         36.4198         147.431 
       0.914301          142.46         35.8452         146.176 
       0.920448          141.78         35.2836         145.271 
       0.926574         140.182          34.736         144.042 
       0.932687         139.877         34.2013         143.163 
       0.938823         138.542         33.6759         142.357 
       0.944975         138.113         33.1604         141.094 
       0.951105         136.262         32.6577         140.054 
       0.957225         135.278         32.1662         138.991 
       0.963368         134.895         31.6833         138.062 
       0.969511         133.179         31.2102         136.942 
       0.975621         131.263         30.7495         136.319 
       0.981748         131.186         30.2968         135.462 
       0.987916         130.331         29.8505         134.385 
        0.99406         129.097         29.4149         133.354 
        1.00019         128.592         28.9889         132.326 
        1.00632         127.443         28.5717         131.382 
        1.01246         126.411         28.1622         130.171 
        1.01859         125.143         27.7614         129.644 
        1.02471         124.244         27.3689         128.931 
        1.03085         123.628         26.9827         128.202 
        1.03698         122.891         26.6048          127.67 
        1.04314         122.138         26.2325         126.502 
        1.04929         121.267         25.8682         125.601 
        1.05541         120.905         25.5124         125.008 
        1.06154         119.512         25.1623         124.291 
        1.06769         118.762         24.8184         123.452 
        1.07382          117.51         24.4819         122.762 
        1.07993         117.057         24.1525         121.975 
        1.08607         116.815         23.8278         121.008 
        1.09222         115.293         23.5088         120.403 
        1.09836         114.656          23.196         119.563 
        1.10449         114.145         22.8893         119.178 
        1.11063         112.884         22.5877         118.238 
        1.11677         112.399         22.2918         117.376 
         1.1229         111.642         22.0017         116.709 
        1.12903         110.355         21.7165             116 
        1.13518         109.851         21.4361         115.428 
        1.14131         109.525         21.1608         114.494 
        1.14745         108.373         20.8906         113.808 
        1.15359         107.825          20.625         113.349 
        1.15973         107.187         20.3639           112.7 
        1.16584          106.41         20.1086         111.969 
        1.17197         105.901         19.8572         111.492 
        1.17811         104.959         19.6094         110.664 
        1.18424         104.316         19.3666         109.902 
        1.19038         103.758         19.1272         109.692 
        1.19652         102.707         18.8919         108.786 
        1.20267         102.091         18.6606         108.308 
        1.20881         101.402         18.4332          107.53 
        1.21495         101.189           18.21         107.072 
        1.22108         100.215         17.9905         106.377 
         1.2272         100.124         17.7752         105.792 
        1.23334         99.0691         17.5629         105.425 
        1.23949         98.4539         17.3536         104.747 
        1.24562         97.6959         17.1483         103.834 
        1.25174         97.6086         16.9466           103.3 
        1.25789         96.7343         16.7475         102.692 
        1.26402         96.0522          16.552         102.427 
        1.27014         95.4798         16.3601          101.86 
        1.27628         95.1512         16.1707         101.579 
        1.28244         94.2886         15.9839         100.827 
        1.28858         93.8477         15.8003         100.276 
        1.29471         93.0958           15.62         99.7187 
        1.30084         92.6148         15.4427         98.9916 
        1.30697          91.936         15.2679         98.4963 
        1.31312         91.6016         15.0956         97.9571 
        1.31925         90.5761         14.9264         97.6314 
        1.32537         90.2759           14.76         97.1958 
        1.33151         89.6534         14.5956         96.6063 
        1.33765         89.3371         14.4337         96.1433 
        1.34378         88.8528         14.2747         95.6832 
        1.34992         88.1467         14.1179         95.0743 
        1.35606         87.8493         13.9632         94.5501 
         1.3622         87.2653          13.811         94.1649 
        1.36833         86.6692         13.6615         93.5597 
        1.37445         86.0987         13.5143         93.1485 
        1.38059         85.5724         13.3688         92.4512 
        1.38675         85.1732         13.2251          92.078 
        1.39288         84.5569          13.084         91.5239 
        1.39901         83.9962         12.9451         91.2099 
        1.40515          83.618         12.8079         90.8562 
         1.4113         83.0751         12.6728         90.4382 
        1.41742          82.915         12.5401         89.9756 
        1.42355         82.1983         12.4091         89.3538 
         1.4297         81.6633         12.2795         89.0606 
        1.43585          81.392         12.1519         88.5418 
        1.44198         80.8544         12.0265         88.3338 
        1.44809         80.2452         11.9032         87.7732 
        1.45423         80.0096         11.7811          87.151 
        1.46036         79.2896          11.661         86.7761 
        1.46649          78.806         11.5425         86.5127 
        1.47263         78.4474         11.4255          86.136 
        1.47877         78.0856         11.3103         85.5366 
        1.48491         77.5056         11.1964         85.1027 
        1.49104         77.1148         11.0843         84.9062 
        1.49718         76.6003         10.9737         84.3029 
        1.50333         76.0448         10.8645         83.8641 
        1.50947         75.9729         10.7569         83.5766 
         1.5156         75.3136          10.651         83.1885 
        1.52172         74.7143         10.5465         82.7232 
        1.52787          74.533         10.4431         82.3507 
          1.534         74.1659         10.3413          82.025 
        1.54013         73.6625          10.241         81.6826 
        1.54627         73.2556         10.1418         81.2936 
        1.55241         72.9188         10.0439         80.8484 
        1.55855         72.2891         9.94739         80.4139 
        1.56467         71.9109         9.85245         80.1429 
         1.5708         71.4304         9.75848         79.7417 
        1.57695          71.157          9.6656         79.3397 
        1.58308         70.6608         9.57414         79.0703 
        1.58922         70.3505          9.4838          78.696 
        1.59535         70.1355         9.39466         78.3701 
         1.6015         69.4989         9.30654         77.9446 
        1.60764         69.1414         9.21959          77.547 
        1.61376         69.0571           9.134         77.3289 
        1.61989         68.4873         9.04943         76.9689 
        1.62604         68.2066         8.96573         76.3834 
        1.63218         67.5888         8.88315         76.0141 
        1.63831         67.4135          8.8018         75.9057 
        1.64444         66.8734         8.72144         75.5458 
        1.65059         66.4765         8.64189         75.1552 
        1.65673         66.2809         8.56342         74.7717 
        1.66285         65.9916         8.48614         74.4606 
        1.66898         65.3778         8.40979         74.1958 
        1.67512         64.9409         8.33423         73.8138 
        1.68127         64.7209         8.25953         73.5516 
         1.6874         64.5614         8.18591         73.2774 
        1.69353         63.9399         8.11323         72.7872 
        1.69967         63.6458         8.04126         72.5097 
        1.70581         63.3034          7.9702          72.252 
        1.71193         63.0159         7.90026         71.9103 
        1.71806           62.49         7.83101          71.603 
        1.72421         62.1913         7.76246         71.3085 
        1.73035         61.8786         7.69481         71.0025 
        1.73649         61.5722         7.62797         70.6694 
        1.74262          61.178         7.56199         70.3107 
        1.74876          60.786         7.49674         70.0188 
        1.75489         60.7485          7.4324         69.7552 
        1.76101         60.3447         7.36883         69.4655 
        1.76715         59.9552         7.30591         69.1715 
        1.77329         59.6037         7.24366         68.8345 
        1.77943         59.2181          7.1821         68.5108 
        1.78557         59.0244         7.12135         68.2523 
        1.79171         58.5794         7.06129         67.9623 
        1.79785          58.399         7.00191         67.6391 
        1.80399         57.9676         6.94323         67.3374 
        1.81012         57.6293          6.8853          67.074 
        1.81625         57.3496         6.82805         66.7971 
        1.82239         57.0164         6.77137         66.4965 
        1.82853         56.7602         6.71536         66.2117 
        1.83466         56.4536         6.66003         65.9095 
        1.84078         56.0778         6.60539         65.6367 
        1.84692         55.8565         6.55127         65.4562 
        1.85306         55.6968         6.49769         65.1269 
         1.8592         55.3828         6.44479         64.7612 
        1.86533         54.9341         6.39251         64.5741 
        1.87147         54.6474         6.34075         64.3333 
        1.87761         54.3045         6.28953         64.0273 
