# k  (h/Mpc)    Pcb(k)  (Mpc/h)^3    Pcb_linear(k) (Mpc/h)^3    Pcb_NL(k) (Mpc/h)^3   ShotnoiseSubtracted = false
     0.00783031           28445         28611.3         28325.2 
       0.013688         30949.6         31967.5         31690.8 
       0.019231         28984.2         29532.8         29274.3 
      0.0249154         25066.2         24869.3         24664.9 
      0.0312784         19387.9           19514         19380.8 
      0.0375637         15172.7         15364.7         15305.1 
      0.0433917         12817.1         12787.1         12721.4 
      0.0492413         11176.2         11209.8         11157.3 
      0.0555754           10252         10210.6         10169.8 
      0.0619321         9205.61         9488.81         9445.22 
       0.067871         8635.62         8763.03         8735.84 
      0.0738098         7880.88         7868.44          7766.2 
      0.0800417         6885.02         6799.29         6777.79 
      0.0862327         5865.99         5757.47         5879.88 
      0.0921407         5135.59         4919.07         5086.74 
      0.0982031         4601.99         4287.88         4560.61 
       0.104506         4093.83         3872.95         4203.95 
       0.110769          3866.6         3640.79         3886.15 
       0.116806         3736.93         3501.64         3693.19 
       0.122832         3553.78          3365.7         3533.28 
       0.129052         3309.69         3172.97         3317.69 
       0.135211          3172.3         2916.62         3074.61 
       0.141259         2853.26         2626.43         2850.41 
       0.147318         2599.47         2339.67         2638.44 
       0.153489         2391.32          2090.1         2374.53 
       0.159709         2280.45         1902.54         2229.62 
       0.165845         2101.29         1779.72         2147.42 
       0.171974         2045.91         1702.62         2041.31 
       0.178125         1988.55         1647.38         1989.89 
       0.184229          1833.4          1591.9         1894.36 
        0.19034         1803.55          1520.8         1801.73 
       0.196428         1736.91         1430.95         1708.34 
       0.202534         1617.71         1328.31         1626.39 
       0.208729         1572.81         1223.53         1517.83 
       0.214876         1481.09         1130.53         1469.22 
       0.220989         1408.44         1055.75         1416.05 
       0.227147         1362.66         999.285         1369.69 
        0.23329         1307.34         957.957         1332.12 
       0.239377            1301         925.379         1280.64 
       0.245482         1237.31         894.417         1226.98 
       0.251667         1193.01         859.844         1193.64 
       0.257832         1165.22         820.402         1143.71 
       0.263955         1108.76         777.518         1101.04 
       0.270079         1073.94          733.92         1062.57 
        0.27624         1028.43         692.827          1023.2 
       0.282372         1014.11         657.022         1001.07 
        0.28843         988.053         627.512         979.525 
       0.294538         944.406         602.965         947.845 
       0.300721         926.239         581.746         920.172 
        0.30691         897.933         562.139         907.754 
       0.313033         863.469         542.703         875.226 
       0.319153         854.611         522.416         848.984 
       0.325316         839.084         501.121         829.674 
        0.33145         816.707         479.766         798.457 
       0.337538         788.974         459.321          781.27 
       0.343633         770.939         440.362         769.597 
       0.349808         754.552         423.166         755.956 
       0.355968         738.305         407.933         738.276 
       0.362074         713.602         394.403          724.69 
       0.368217           708.2          381.77         706.893 
       0.374374         697.157         369.574         690.473 
       0.380519         671.838         357.527         674.913 
       0.386598         665.722         345.583         666.524 
       0.392688         647.235         333.731         650.635 
        0.39888         636.424         321.993         635.835 
       0.405048         619.447         310.844         622.435 
       0.411186         619.212         300.487         611.543 
       0.417313         608.096         290.892         601.527 
       0.423458         594.466         281.948         589.901 
       0.429607         577.424         273.559         581.164 
       0.435692         569.019         265.634          564.97 
       0.441815         559.042         257.891         560.922 
       0.447964         550.441           250.3         553.988 
       0.454126          542.46         242.867             538 
       0.460267          535.89         235.647          534.57 
       0.466387         522.126         228.709         525.961 
        0.47254          519.12          222.05         516.658 
       0.478662         506.873         215.759          507.29 
       0.484765          499.74         209.797         500.694 
       0.490885         497.205         204.109         490.633 
       0.497035         483.994         198.643         485.309 
       0.503198         482.344         193.371         479.437 
       0.509342         473.363         188.273         470.467 
       0.515458         464.629          183.34         465.038 
       0.521598          462.35         178.537         459.576 
       0.527764         452.018         173.873         455.455 
       0.533884          445.08         169.407         449.496 
           0.54         442.501         165.109         442.588 
       0.546137         435.016         160.962         437.452 
       0.552299          431.33         156.963         431.311 
       0.558452         424.479         153.125         426.618 
       0.564573         423.908         149.442         422.522 
       0.570708         415.664         145.868           416.5 
       0.576825         409.384         142.412          410.14 
       0.582926         407.392         139.067         407.142 
       0.589034         399.867          135.82         401.397 
       0.595184          396.35         132.655         395.812 
       0.601379         389.564         129.572         391.289 
       0.607522         383.406         126.616         384.911 
       0.613639         381.829         123.768         384.053 
       0.619772         378.616         121.003         381.618 
       0.625918         372.549         118.319         375.653 
       0.632068         370.975         115.716         373.061 
       0.638161         365.308         113.215         369.027 
         0.6443         361.111         110.771           364.1 
       0.650464         357.763          108.39          358.68 
       0.656582         353.459         106.096         356.271 
       0.662703         351.848         103.867         353.171 
       0.668861         345.928          101.69         351.648 
       0.675024         344.565         99.5729         348.007 
       0.681124         336.839         97.5379         343.189 
       0.687237         336.105         95.5562         339.446 
       0.693381         331.675         93.6209         336.068 
       0.699536         330.864         91.7366         333.983 
       0.705665         325.825          89.913          328.78 
       0.711789         323.482         88.1412         327.013 
       0.717957         320.568         86.4056         325.641 
        0.72409         316.736         84.7267         320.932 
       0.730186         316.899         83.1029          317.54 
       0.736317         311.442         81.5131         316.037 
       0.742472         309.075         79.9592         313.954 
       0.748622         308.063         78.4474          309.96 
        0.75476         302.917         76.9782         309.952 
       0.760888         302.267          75.549         306.117 
       0.767043         298.715         74.1506         302.435 
       0.773185         295.423         72.7907         300.491 
       0.779291         293.277         71.4727         297.511 
       0.785407         291.471         70.1857         295.153 
       0.791564         289.679         68.9225         293.184 
       0.797719         285.238         67.6911         290.918 
       0.803834          283.91         66.4978         289.004 
       0.809972         280.288         65.3292         286.298 
       0.816124         278.745         64.1863         283.611 
       0.822261         276.187         63.0739         282.483 
       0.828378         274.529         61.9914         279.909 
       0.834502         271.047         60.9334         277.941 
       0.840667         269.297         59.8935         275.645 
       0.846816         267.133         58.8808         273.809 
       0.852925         267.061          57.898         271.832 
       0.859047         262.306         56.9358         269.133 
       0.865192         261.466         55.9923         267.036 
       0.871341         259.143         55.0697         265.017 
       0.877463         257.541         54.1721         263.813 
       0.883569         256.258         53.2969         263.344 
       0.889708         253.282         52.4367         259.876 
       0.895864         250.546         51.5932          258.75 
       0.902008         249.247         50.7702         256.007 
       0.908149         246.221         49.9657         253.975 
       0.914301         245.589         49.1774         251.915 
       0.920448          242.28         48.4069          250.94 
       0.926574         240.996         47.6557         249.361 
       0.932687         239.856          46.922         246.743 
       0.938823         237.829         46.2013         246.448 
       0.944975         237.439         45.4941         244.458 
       0.951105         235.182         44.8043         242.926 
       0.957225         232.851         44.1301         240.919 
       0.963368         232.405         43.4675         239.282 
       0.969511         229.431         42.8185         237.894 
       0.975621         227.298         42.1864         236.262 
       0.981748         226.231         41.5654         235.508 
       0.987916         224.821         40.9531         233.414 
        0.99406         222.754         40.3554         232.053 
        1.00019         220.502          39.771         230.449 
        1.00632         219.806         39.1987          228.62 
        1.01246         218.235         38.6368         227.066 
        1.01859         216.651         38.0869         225.935 
        1.02471         215.056         37.5485         224.345 
        1.03085          214.17         37.0186         223.296 
        1.03698         211.697         36.5001         222.497 
        1.04314         210.942         35.9894         220.579 
        1.04929         209.326         35.4896         218.924 
        1.05541         208.902         35.0014         217.886 
        1.06154           206.6         34.5212         216.995 
        1.06769         205.218         34.0493         215.422 
        1.07382         203.191         33.5877         214.041 
        1.07993         202.866         33.1358          212.96 
        1.08607         201.112         32.6903          211.31 
        1.09222         199.809         32.2526         210.206 
        1.09836         198.153         31.8235         209.096 
        1.10449         197.183         31.4026         208.489 
        1.11063         196.108          30.989          206.66 
        1.11677          194.22         30.5829          205.51 
         1.1229         193.646         30.1849         204.171 
        1.12903         191.566         29.7936         202.875 
        1.13518         190.173          29.409         201.622 
        1.14131         188.938         29.0313         200.822 
        1.14745         188.124         28.6606         199.048 
        1.15359         186.442         28.2962         198.615 
        1.15973          185.82         27.9381           197.2 
        1.16584         184.797         27.5877          196.74 
        1.17197         183.517         27.2429         195.485 
        1.17811         181.393         26.9029         194.063 
        1.18424         180.685         26.5698         192.903 
        1.19038         179.574         26.2413         192.344 
        1.19652         178.015         25.9185          190.59 
        1.20267         176.741         25.6012         190.217 
        1.20881         176.182         25.2893         189.024 
        1.21495         174.801          24.983         187.797 
        1.22108         173.546         24.6819         186.859 
         1.2272          172.49         24.3865         186.226 
        1.23334         171.119         24.0952         185.065 
        1.23949         170.769         23.8081         183.935 
        1.24562         169.082         23.5264           182.6 
        1.25174         168.401         23.2497         181.794 
        1.25789         167.166         22.9766         180.608 
        1.26402          166.08         22.7084         179.984 
        1.27014         165.186         22.4451         178.975 
        1.27628         164.141         22.1852         178.543 
        1.28244         162.923          21.929         177.353 
        1.28858         162.027         21.6771         176.566 
        1.29471         160.874         21.4297         175.651 
        1.30084          160.05         21.1865         174.276 
        1.30697         158.874         20.9466         173.437 
        1.31312         158.579         20.7102         172.601 
        1.31925         157.193         20.4781         171.804 
        1.32537         156.639         20.2498         170.879 
        1.33151         155.217         20.0242         170.129 
        1.33765         154.665         19.8022         169.251 
        1.34378         153.522          19.584         168.253 
        1.34992         152.596         19.3689         167.385 
        1.35606         151.604         19.1566         166.374 
         1.3622         150.426         18.9478          165.99 
        1.36833         149.961         18.7427         165.003 
        1.37445         149.065         18.5407         163.927 
        1.38059         147.623         18.3411         163.327 
        1.38675          146.51          18.144         162.307 
        1.39288          145.94         17.9505         161.788 
        1.39901         145.349         17.7599         160.909 
        1.40515          144.05         17.5717         159.892 
         1.4113         143.506         17.3863         158.972 
        1.41742         142.332         17.2042         158.248 
        1.42355         141.402         17.0245         157.585 
         1.4297         140.606         16.8467         156.723 
        1.43585         139.972         16.6716         156.234 
        1.44198          139.05         16.4996         155.479 
        1.44809         138.545         16.3304         154.496 
        1.45423         137.403         16.1629         153.742 
        1.46036         136.786         15.9981         152.979 
        1.46649         135.761         15.8355         152.305 
        1.47263         135.324         15.6751           151.6 
        1.47877         133.951          15.517         150.517 
        1.48491          133.44         15.3608         149.873 
        1.49104         132.557          15.207         149.324 
        1.49718         131.389         15.0553         148.654 
        1.50333         130.766         14.9054         147.698 
        1.50947         129.787         14.7578         146.977 
         1.5156         129.247         14.6125         146.518 
        1.52172         128.581         14.4691         145.941 
        1.52787         127.592         14.3273         145.044 
          1.534         127.141         14.1877         144.335 
        1.54013         126.701           14.05         143.864 
        1.54627         125.524         13.9139          143.25 
        1.55241         124.928         13.7796          142.46 
        1.55855         124.006         13.6472         141.654 
        1.56467         123.415          13.517         140.992 
         1.5708         123.017          13.388         140.272 
        1.57695         122.058         13.2606         139.619 
        1.58308         121.238         13.1351         139.126 
        1.58922         120.439         13.0112         138.499 
        1.59535         119.659         12.8889         137.767 
         1.6015         118.992          12.768         137.194 
        1.60764         118.346         12.6487         136.549 
        1.61376         117.687         12.5313         135.795 
        1.61989         116.988         12.4152         135.323 
        1.62604         116.587         12.3004         134.533 
        1.63218         115.406         12.1871           133.8 
        1.63831         114.862         12.0755         133.356 
        1.64444          114.59         11.9653         132.783 
        1.65059         113.484         11.8561         132.171 
        1.65673         112.905         11.7485         131.467 
        1.66285         112.489         11.6425         130.903 
        1.66898         111.638         11.5377         130.519 
        1.67512         110.774          11.434         129.821 
        1.68127         110.379         11.3316         129.168 
         1.6874         109.607         11.2306         128.645 
        1.69353         108.855         11.1308         128.085 
        1.69967         108.464         11.0321         127.532 
        1.70581         107.506         10.9346         126.902 
        1.71193         107.179         10.8387         126.275 
        1.71806          106.59         10.7437          125.82 
        1.72421         105.747         10.6496         125.322 
        1.73035         105.369         10.5568          124.76 
        1.73649         104.819         10.4651         124.107 
        1.74262         104.001         10.3746         123.313 
        1.74876         103.233         10.2851         122.771 
        1.75489         102.822         10.1968          122.42 
        1.76101         102.406         10.1096          121.99 
        1.76715         101.869         10.0233         121.352 
        1.77329         101.266         9.93785         120.801 
        1.77943           100.4         9.85339          120.37 
        1.78557         99.7204         9.77005         119.871 
        1.79171         99.1915         9.68765         119.212 
        1.79785          98.581         9.60619         118.613 
        1.80399           98.05         9.52568         118.255 
        1.81012         97.5765          9.4462         117.774 
        1.81625         96.8482         9.36766         117.191 
        1.82239         96.4498          9.2899         116.677 
        1.82853         95.9067         9.21305         116.211 
        1.83466          95.405         9.13715         115.685 
        1.84078         95.0054         9.06218         115.143 
        1.84692         94.2112         8.98793         114.707 
        1.85306         93.5571         8.91442          114.19 
         1.8592          92.951         8.84185         113.642 
        1.86533         92.3923         8.77012         113.195 
        1.87147         92.0996         8.69911         112.673 
