# k  (h/Mpc)    P(k)  (Mpc/h)^3    P_linear(k)  (Mpc/h)^3     P_NL(k)  ShotnoiseSubtracted = false
     0.00783031         4388.26         4422.47         4383.12 
       0.013688         4852.23         4928.32         4896.87 
       0.019231          4518.9         4550.78         4525.01 
      0.0249154         3849.89         3831.59         3818.09 
      0.0312784         3010.44         3006.33         3006.85 
      0.0375637         2362.23         2367.03         2370.14 
      0.0433917         1979.25         1969.93         1972.98 
      0.0492413         1728.21         1726.93         1729.98 
      0.0555754         1582.07         1572.99         1573.69 
      0.0619321         1445.82          1461.8         1461.12 
       0.067871         1347.86         1349.99         1348.76 
      0.0738098         1214.37         1212.18         1209.22 
      0.0800417         1055.03         1047.47         1047.35 
      0.0862327         892.516         886.975         891.533 
      0.0921407          764.73         757.815         764.061 
      0.0982031         673.474         660.577         669.948 
       0.104506         601.335         596.653         607.469 
       0.110769         566.371         560.889         568.451 
       0.116806         548.741         539.453         544.976 
       0.122832         522.424         518.511         523.336 
       0.129052          494.13          488.82         492.675 
       0.135211         458.854         449.328         453.977 
       0.141259         411.813         404.622         411.197 
       0.147318         366.299         360.443         370.101 
       0.153489         330.249         321.997         330.682 
       0.159709           304.5         293.101         303.018 
       0.165845         280.519         274.179         285.824 
       0.171974         273.733         262.301         272.223 
       0.178125         263.723         253.793         264.023 
       0.184229         251.393         245.244         254.359 
        0.19034         242.698         234.292         242.479 
       0.196428         229.403         220.449         227.652 
       0.202534         209.986         204.637         212.738 
       0.208729         198.516         188.494         197.112 
       0.214876         185.823         174.167         184.938 
       0.220989         171.336         162.647         173.974 
       0.227147         165.294         153.948         165.003 
        0.23329         158.656         147.582          158.97 
       0.239377         154.354         142.562          153.36 
       0.245482         147.732         137.792         147.133 
       0.251667         141.056         132.466         142.252 
       0.257832         137.481         126.389         135.677 
       0.263955         128.758         119.783         128.919 
       0.270079          121.95         113.067         122.469 
        0.27624         115.429         106.736         116.037 
       0.282372         110.501          101.22         111.146 
        0.28843         108.046         96.6736         106.671 
       0.294538          103.04         92.8919         102.772 
       0.300721         98.6658         89.6231         99.5709 
        0.30691         96.6413         86.6024         96.4431 
       0.313033          92.472         83.6078         92.8668 
       0.319153         90.4188         80.4825         89.6599 
       0.325316         86.3235          77.202         86.5743 
        0.33145         82.8901         73.9121         82.9636 
       0.337538          79.664         70.7624         79.6975 
       0.343633         76.9018         67.8416         77.0386 
       0.349808         74.0259         65.1926         74.6616 
       0.355968         71.6752         62.8453         72.6198 
       0.362074         70.0667         60.7612         70.1556 
       0.368217         68.0033         58.8149          67.645 
       0.374374         66.1368          56.936          65.765 
       0.380519         63.3224         55.0806         63.6348 
       0.386598         61.4229           53.24         61.8448 
       0.392688         59.2468         51.4143         60.0265 
        0.39888         58.0243         49.6059         58.1212 
       0.405048         56.3682         47.8883         56.3448 
       0.411186          54.753         46.2926         54.9659 
       0.417313           53.07         44.8145          53.195 
       0.423458         51.5326         43.4366         51.8574 
       0.429607         50.4213         42.1441         50.4161 
       0.435692         49.4969         40.9233         49.1208 
       0.441815         47.5961         39.7304         48.0609 
       0.447964         45.8844          38.561         46.6321 
       0.454126          45.046         37.4157         45.2685 
       0.460267         44.4337         36.3036         44.4139 
       0.466387         43.0873         35.2346         43.1074 
        0.47254         42.3723         34.2088         42.1446 
       0.478662         40.8158         33.2395         41.1176 
       0.484765          39.926         32.3211         39.9374 
       0.490885         38.7343         31.4447         39.2478 
       0.497035         38.1307         30.6028         38.4667 
       0.503198         37.2615         29.7906         37.3963 
       0.509342         36.1405         29.0051         36.6368 
       0.515458         35.4873         28.2451         36.0081 
       0.521598         34.5921         27.5052         34.9028 
       0.527764         34.0448         26.7867         33.9838 
       0.533884         33.3622         26.0987         33.3158 
           0.54         32.5261         25.4366          32.647 
       0.546137         31.5182         24.7975         32.0618 
       0.552299         30.8851         24.1815         31.1825 
       0.558452         30.1774         23.5902         30.5189 
       0.564573          29.834         23.0228         30.0696 
       0.570708         28.9976         22.4724         29.4658 
       0.576825          28.604         21.9399         28.8421 
       0.582926         28.0731         21.4245         28.2679 
       0.589034         27.4255         20.9243         27.8558 
       0.595184         27.0066         20.4366         27.1684 
       0.601379          26.269         19.9617         26.7836 
       0.607522         25.7264         19.5063         26.1037 
       0.613639          25.359         19.0675         25.6719 
       0.619772         24.7989         18.6416         25.2347 
       0.625918         24.3515         18.2281         24.8111 
       0.632068         24.0508         17.8271         24.2902 
       0.638161         23.4933         17.4418         23.8662 
         0.6443         23.1531         17.0653         23.3842 
       0.650464         22.5285         16.6985          23.019 
       0.656582         22.3506         16.3451         22.6526 
       0.662703         21.9637         16.0017         22.1895 
       0.668861         21.4086         15.6662         21.9171 
       0.675024          21.109         15.3401         21.4225 
       0.681124         20.9328         15.0266         21.0746 
       0.687237         20.4712         14.7213         20.7112 
       0.693381         20.0515         14.4231         20.3296 
       0.699536         19.8721         14.1328         20.1006 
       0.705665         19.4499         13.8519         19.8144 
       0.711789         19.1174         13.5789         19.3587 
       0.717957         18.6946         13.3116         19.1249 
        0.72409         18.4885         13.0529         18.8558 
       0.730186         18.3497         12.8028         18.5309 
       0.736317         17.9397         12.5578          18.221 
       0.742472         17.7168         12.3184         17.9805 
       0.748622         17.3774         12.0855         17.6752 
        0.75476         16.9586         11.8592         17.4317 
       0.760888         16.8952          11.639         17.1965 
       0.767043         16.5374         11.4236         16.9615 
       0.773185         16.3027         11.2141         16.6911 
       0.779291         16.0891          11.011         16.4819 
       0.785407          15.851         10.8127         16.2069 
       0.791564         15.7236         10.6181         15.9842 
       0.797719          15.311         10.4284         15.7931 
       0.803834         15.2523         10.2446         15.5311 
       0.809972         14.9353         10.0646         15.3325 
       0.816124          14.756         9.88847         15.1105 
       0.822261         14.5507          9.7171         14.8944 
       0.828378         14.3927         9.55033         14.6674 
       0.834502         14.2057         9.38734         14.5209 
       0.840667         14.0311         9.22713         14.3099 
       0.846816         13.7279         9.07112          14.124 
       0.852925          13.646         8.91971         14.0003 
       0.859047         13.4618         8.77147         13.7857 
       0.865192         13.2514         8.62612         13.5952 
       0.871341         13.0803         8.48398         13.4484 
       0.877463         12.8924          8.3457         13.2724 
       0.883569         12.7816         8.21087         13.0991 
       0.889708         12.5716         8.07834         12.9369 
       0.895864         12.3897         7.94841          12.754 
       0.902008         12.2598         7.82161         12.6194 
       0.908149          12.057         7.69767         12.4818 
       0.914301         11.9596         7.57622         12.3809 
       0.920448         11.7894         7.45752         12.1695 
       0.926574         11.6729         7.34178         12.0171 
       0.932687         11.4881         7.22876         11.8548 
       0.938823         11.3166         7.11772         11.7182 
       0.944975         11.2367         7.00878         11.6045 
       0.951105         11.1028         6.90251         11.4325 
       0.957225         10.9993         6.79863         11.3322 
       0.963368         10.8092         6.69656         11.1932 
       0.969511         10.6909         6.59658         11.0622 
       0.975621         10.5904         6.49919         10.9495 
       0.981748         10.4342         6.40353         10.8313 
       0.987916         10.3597         6.30919         10.6923 
        0.99406         10.1968         6.21712         10.5839 
        1.00019         10.1184         6.12708         10.4774 
        1.00632         10.0322         6.03891         10.3703 
        1.01246         9.88254         5.95235           10.28 
        1.01859         9.77448         5.86763         10.1643 
        1.02471         9.65842         5.78468         10.0279 
        1.03085         9.59346         5.70305          9.9238 
        1.03698         9.50013         5.62317         9.82662 
        1.04314         9.35675         5.54449         9.71577 
        1.04929         9.22519          5.4675         9.63923 
        1.05541         9.16203         5.39228         9.56167 
        1.06154         9.07427          5.3183         9.42718 
        1.06769         8.96633          5.2456         9.31501 
        1.07382         8.84373         5.17449         9.24307 
        1.07993         8.76889         5.10487         9.14824 
        1.08607          8.6921         5.03624         9.06649 
        1.09222         8.58571         4.96881         8.98917 
        1.09836         8.50374          4.9027         8.87869 
        1.10449         8.42488         4.83786         8.78795 
        1.11063         8.36328         4.77414         8.71079 
        1.11677         8.28642         4.71158         8.61442 
         1.1229         8.19015         4.65026         8.55127 
        1.12903          8.0972         4.58998         8.47545 
        1.13518         8.02278         4.53072         8.38312 
        1.14131         7.95403         4.47254         8.30214 
        1.14745         7.82504         4.41542         8.23313 
        1.15359         7.74023         4.35929         8.13854 
        1.15973         7.69241         4.30411         8.07281 
        1.16584         7.60774         4.25014         8.00691 
        1.17197         7.51883         4.19702          7.9579 
        1.17811         7.46472         4.14465         7.84282 
        1.18424         7.39963         4.09332         7.78399 
        1.19038         7.35612         4.04271         7.72588 
        1.19652         7.25407         3.99299         7.63962 
        1.20267         7.21785          3.9441         7.58512 
        1.20881         7.10404         3.89604         7.51972 
        1.21495          7.0634         3.84886         7.45331 
        1.22108               7         3.80248         7.39257 
         1.2272         6.93012         3.75696         7.32211 
        1.23334         6.89197         3.71209         7.26812 
        1.23949         6.82008         3.66785         7.19847 
        1.24562         6.73584         3.62445         7.13635 
        1.25174         6.70842         3.58183         7.08147 
        1.25789          6.6318         3.53975         7.01465 
        1.26402         6.57275         3.49843         6.95435 
        1.27014          6.5388         3.45787         6.90056 
        1.27628         6.45445         3.41784         6.83026 
        1.28244         6.42505         3.37836         6.79433 
        1.28858         6.34895         3.33955          6.7338 
        1.29471         6.27968         3.30145         6.68348 
        1.30084         6.22538         3.26397         6.64638 
        1.30697         6.19409         3.22702           6.575 
        1.31312         6.13692         3.19059         6.52214 
        1.31925         6.09272         3.15484          6.4846 
        1.32537         6.02859         3.11967         6.43727 
        1.33151         5.97986         3.08491          6.3817 
        1.33765         5.93612         3.05071         6.32126 
        1.34378         5.90327         3.01709         6.27261 
        1.34992         5.83764         2.98396         6.23358 
        1.35606         5.77914         2.95125         6.17739 
         1.3622         5.73235         2.91909         6.12595 
        1.36833         5.70586         2.88749         6.10195 
        1.37445         5.65574         2.85637         6.04415 
        1.38059         5.59568         2.82562           5.989 
        1.38675         5.56817         2.79525         5.95921 
        1.39288         5.51318         2.76544         5.91024 
        1.39901         5.45928         2.73608         5.86526 
        1.40515         5.42252         2.70708         5.82147 
         1.4113         5.38072         2.67852         5.78079 
        1.41742         5.34816         2.65047         5.74609 
        1.42355         5.29122         2.62278         5.70411 
         1.4297         5.25425         2.59539         5.65298 
        1.43585         5.21791         2.56841         5.62091 
        1.44198         5.18625         2.54192         5.58042 
        1.44809         5.14002         2.51585         5.54063 
        1.45423          5.0965         2.49005         5.49939 
        1.46036         5.05881         2.46466         5.45837 
        1.46649         5.02526         2.43961         5.42685 
        1.47263         4.98642          2.4149         5.39687 
        1.47877         4.94237         2.39053         5.34759 
        1.48491         4.91728         2.36647         5.30876 
        1.49104         4.87672         2.34278         5.27871 
        1.49718         4.84831         2.31941         5.24439 
        1.50333         4.81304         2.29631         5.20824 
        1.50947         4.77275         2.27358          5.1756 
         1.5156         4.74453         2.25119         5.14298 
        1.52172         4.69574          2.2291          5.1056 
        1.52787         4.68434         2.20726         5.06492 
          1.534         4.63836         2.18574         5.03276 
        1.54013         4.61503         2.16453         4.99602 
        1.54627         4.57414         2.14356         4.96202 
        1.55241         4.52666         2.12287         4.93427 
        1.55855         4.51453         2.10248         4.90009 
        1.56467         4.49048         2.08241         4.87365 
         1.5708         4.44413         2.06255         4.84826 
        1.57695         4.41565         2.04292         4.81172 
        1.58308         4.38311         2.02359         4.78018 
        1.58922         4.36095         2.00449         4.75868 
        1.59535         4.33256         1.98565          4.7304 
         1.6015         4.27896         1.96703         4.69475 
        1.60764         4.25699         1.94865         4.66146 
        1.61376         4.23719         1.93056         4.63653 
        1.61989         4.20099         1.91269         4.61247 
        1.62604         4.18598           1.895         4.58355 
        1.63218         4.15413         1.87754         4.55684 
        1.63831         4.12341         1.86035          4.5313 
        1.64444         4.09088         1.84336          4.4985 
        1.65059         4.05951         1.82655         4.47092 
        1.65673         4.04679         1.80996         4.44749 
        1.66285          4.0121         1.79363         4.42044 
        1.66898         3.99616         1.77749         4.38804 
        1.67512         3.97178         1.76152         4.36271 
        1.68127         3.92612         1.74573         4.34054 
         1.6874         3.91715         1.73017         4.31811 
        1.69353         3.87564         1.71481          4.2934 
        1.69967         3.86097          1.6996         4.26384 
        1.70581         3.83127         1.68458         4.23903 
        1.71193         3.81041          1.6698         4.21969 
        1.71806         3.78393         1.65516         4.19714 
        1.72421         3.75862         1.64067         4.17224 
        1.73035         3.74408         1.62637         4.14872 
        1.73649         3.72098         1.61225         4.12573 
        1.74262         3.68251          1.5983         4.09915 
        1.74876         3.67252         1.58451          4.0753 
        1.75489         3.65137         1.57091         4.05079 
        1.76101          3.6141         1.55747         4.02553 
        1.76715         3.61237         1.54418          4.0101 
        1.77329         3.57799         1.53102         3.98836 
        1.77943         3.54696         1.51801         3.96173 
        1.78557          3.5485         1.50517         3.94002 
        1.79171         3.51558         1.49247         3.91655 
        1.79785         3.49991         1.47992         3.89355 
        1.80399         3.47849         1.46752         3.87627 
        1.81012         3.45138         1.45528         3.86031 
        1.81625         3.43234         1.44318         3.84093 
        1.82239         3.41247          1.4312         3.81984 
        1.82853         3.38261         1.41936         3.80134 
        1.83466         3.35968         1.40766         3.78249 
        1.84078         3.34083         1.39612         3.76155 
        1.84692         3.32929         1.38468         3.73918 
        1.85306         3.30652         1.37335         3.71574 
         1.8592         3.29259         1.36217         3.69549 
        1.86533         3.26982         1.35112           3.679 
        1.87147         3.25608         1.34018         3.65898 
        1.87761         3.23434         1.32936         3.64121 
