# k  (h/Mpc)    P(k)  (Mpc/h)^3    P_linear(k)  (Mpc/h)^3     P_NL(k)  ShotnoiseSubtracted = false
     0.00783031         9724.44         9792.33         9704.02 
       0.013688         10689.6         10912.4         10837.6 
       0.019231         9972.35         10075.9         10012.2 
      0.0249154         8537.71         8483.23         8444.79 
      0.0312784         6653.99         6655.89         6646.98 
      0.0375637         5214.57         5240.42         5241.55 
      0.0433917         4381.85         4361.21         4361.75 
      0.0492413         3822.94          3823.2         3825.01 
      0.0555754         3505.48         3482.38         3481.23 
      0.0619321         3182.91         3236.21         3232.57 
       0.067871         2977.22         2988.67         2985.68 
      0.0738098         2690.59         2683.56         2671.72 
      0.0800417         2342.78         2318.92         2318.16 
      0.0862327         1983.88         1963.61         1982.57 
      0.0921407         1708.54         1677.67         1703.04 
      0.0982031         1512.85          1462.4         1502.04 
       0.104506         1347.01         1320.88         1368.01 
       0.110769          1270.1          1241.7         1275.12 
       0.116806          1232.8         1194.25         1219.73 
       0.122832         1170.48         1147.88         1170.69 
       0.129052         1104.69         1082.15         1101.04 
       0.135211         1035.16         994.724         1016.66 
       0.141259         928.952         895.753         926.294 
       0.147318          829.47         797.951         841.368 
       0.153489          752.47         712.837         752.128 
       0.159709         701.694         648.867         693.913 
       0.165845         643.639         606.977         659.557 
       0.171974         631.326         580.683         626.479 
       0.178125         608.817         561.846         609.144 
       0.184229         573.934         542.922         584.878 
        0.19034         556.766         518.675         556.775 
       0.196428         530.067          488.03         522.759 
       0.202534         484.546         453.024         491.601 
       0.208729         465.102         417.288         456.852 
       0.214876         436.969          385.57         434.248 
       0.220989         404.221         360.067         411.467 
       0.227147         392.057          340.81          391.87 
        0.23329         376.394         326.715         379.155 
       0.239377         369.208         315.604          365.03 
       0.245482         351.153         305.044          349.01 
       0.251667         336.039         293.252         338.796 
       0.257832         329.504           279.8         323.095 
       0.263955         308.624         265.175         308.102 
       0.270079         293.589         250.306         294.549 
        0.27624           279.4         236.292         280.283 
       0.282372         269.978          224.08         269.998 
        0.28843         266.192         214.015         260.283 
       0.294538         252.389         205.643         251.741 
       0.300721         243.271         198.407         244.552 
        0.30691         238.767          191.72         237.787 
       0.313033         227.164          185.09         228.807 
       0.319153         222.674         178.172         221.304 
       0.325316         215.825         170.909         214.516 
        0.33145         208.653         163.626         205.725 
       0.337538         200.249         156.653         198.564 
       0.343633         193.382         150.187         194.032 
       0.349808         187.205         144.323         188.886 
       0.355968         182.707         139.126          184.17 
       0.362074          177.09         134.513         178.558 
       0.368217         173.922         130.204         172.384 
       0.374374         169.154         126.044         167.712 
       0.380519         161.985         121.937         162.729 
       0.386598         158.696         117.862         159.321 
       0.392688         153.439         113.821         154.468 
        0.39888         150.214         109.817         150.253 
       0.405048         146.151         106.015         147.072 
       0.411186         144.041         102.482         142.955 
       0.417313         140.411         99.2099         138.832 
       0.423458         136.751         96.1594         135.838 
       0.429607         132.872         93.2982         132.815 
       0.435692         130.572         90.5957          129.33 
       0.441815         127.149         87.9547         127.239 
       0.447964         122.914          85.366         124.107 
       0.454126         120.706         82.8306          120.31 
       0.460267         119.272         80.3685         118.855 
       0.466387         115.922          78.002         115.929 
        0.47254         114.465         75.7312         113.484 
       0.478662         110.571         73.5854         111.163 
       0.484765         108.694         71.5521         108.039 
       0.490885         106.409          69.612         106.378 
       0.497035         105.054         67.7481         104.603 
       0.503198         103.146         65.9501         102.424 
       0.509342         100.392         64.2113          100.64 
       0.515458         98.5141         62.5288         99.1426 
       0.521598          95.943         60.8908         96.4847 
       0.527764         95.0646         59.3002          94.615 
       0.533884         94.0412         57.7771          93.154 
           0.54         91.4093         56.3112         91.3188 
       0.546137         89.1644         54.8965         90.0506 
       0.552299         87.5659         53.5328          87.869 
       0.558452         86.0513         52.2238         86.1881 
       0.564573         85.4389         50.9677         85.2068 
       0.570708         82.9798         49.7491         83.8345 
       0.576825          81.922         48.5702         82.0486 
       0.582926         80.9401         47.4293         80.6887 
       0.589034         79.3322         46.3219         79.8321 
       0.595184         78.1798         45.2423         78.1521 
       0.601379         76.5755          44.191         77.2116 
       0.607522         74.7726         43.1829         75.5233 
       0.613639         74.1397         42.2115         74.7131 
       0.619772         72.7657         41.2686         73.4728 
       0.625918         72.1349         40.3532         72.3891 
       0.632068         70.4088         39.4655         71.1653 
       0.638161         69.4644         38.6126          70.361 
         0.6443          68.931         37.7789          69.178 
       0.650464         67.2309         36.9669         67.7131 
       0.656582         66.8739         36.1845         67.1433 
       0.662703         65.8573         35.4244         65.9577 
       0.668861         64.4233         34.6817          65.199 
       0.675024          64.215         33.9598         64.1251 
       0.681124         63.0734         33.2657         63.2384 
       0.687237         62.0403         32.5898         62.3659 
       0.693381         61.1696         31.9298         61.3745 
       0.699536         60.5116         31.2871         60.7989 
       0.705665         59.6702         30.6652         60.2186 
       0.711789         58.6675         30.0609          59.036 
       0.717957         57.8416          29.469         58.3728 
        0.72409         57.1728         28.8964         57.8642 
       0.730186         56.8242         28.3426          57.146 
       0.736317         55.9286         27.8004         56.2075 
       0.742472         54.8778         27.2704          55.569 
       0.748622         54.0403         26.7548         54.8211 
        0.75476         53.8591         26.2537         54.0717 
       0.760888         53.3453         25.7663         53.3137 
       0.767043         52.1971         25.2894         52.9917 
       0.773185         51.3876         24.8256         52.4525 
       0.779291          50.881         24.3761         51.7584 
       0.785407         50.3281         23.9371         50.9938 
       0.791564         49.9912         23.5063         50.4735 
       0.797719         49.0518         23.0863         50.1167 
       0.803834         48.7871         22.6794         49.3268 
       0.809972         48.2888         22.2808         48.7698 
       0.816124         47.5157          21.891         48.3363 
       0.822261         46.8521         21.5116         47.7131 
       0.828378         46.7117         21.1424         47.0573 
       0.834502         46.0965         20.7816           46.66 
       0.840667         45.6335         20.4269          46.351 
       0.846816         45.1158         20.0815         45.8134 
       0.852925         44.5313         19.7464         45.2974 
       0.859047         44.2505         19.4182         44.7704 
       0.865192          43.611         19.0964         44.3662 
       0.871341         43.1566         18.7817         43.8604 
       0.877463         42.6779         18.4756         43.4364 
       0.883569         42.5671         18.1771         43.1664 
       0.889708         42.0342         17.8837         42.6559 
       0.895864          41.676         17.5961         42.2755 
       0.902008         41.1402         17.3154         41.7428 
       0.908149          40.607          17.041         41.4446 
       0.914301         40.3164         16.7722         41.1229 
       0.920448         40.2257         16.5094         40.6733 
       0.926574         39.3755         16.2532         40.2367 
       0.932687         39.0995          16.003         39.8982 
       0.938823         38.7259         15.7571         39.4127 
       0.944975         38.2325         15.5159          39.101 
       0.951105         37.9187         15.2807         38.7857 
       0.957225         37.6781         15.0507         38.4169 
       0.963368         37.3066         14.8248         38.0289 
       0.969511         36.9743         14.6034         37.6798 
       0.975621         36.5571         14.3878         37.5133 
       0.981748         36.2663         14.1761         37.1687 
       0.987916         35.8735         13.9672         36.8934 
        0.99406         35.7026         13.7634         36.4455 
        1.00019         35.2339         13.5641         36.0829 
        1.00632         34.9558         13.3689         35.8023 
        1.01246         34.6858         13.1772         35.4771 
        1.01859          34.432         12.9897         35.3321 
        1.02471         34.0951         12.8061         35.0772 
        1.03085         33.7659         12.6253         34.6728 
        1.03698         33.5594         12.4485         34.3611 
        1.04314         33.2541         12.2743         34.0506 
        1.04929         32.8499         12.1039         33.8526 
        1.05541         32.7339         11.9374         33.6926 
        1.06154         32.4033         11.7736         33.3652 
        1.06769         32.0884         11.6126         33.0782 
        1.07382         31.7663         11.4552         32.8423 
        1.07993         31.6381         11.3011         32.5819 
        1.08607         31.3101         11.1492          32.355 
        1.09222         31.1418         10.9999         32.0669 
        1.09836         30.8802         10.8535         31.8128 
        1.10449         30.6561           10.71         31.6032 
        1.11063         30.3559         10.5689         31.2683 
        1.11677         30.2648         10.4304         31.0192 
         1.1229         29.9112         10.2947         30.9033 
        1.12903         29.7075         10.1612         30.6591 
        1.13518         29.5465         10.0301         30.4145 
        1.14131         29.2715         9.90126         30.1854 
        1.14745          29.056         9.77481         30.0283 
        1.15359         28.6883         9.65055         29.7416 
        1.15973         28.6585          9.5284          29.586 
        1.16584         28.3931         9.40891         29.2842 
        1.17197         28.1191         9.29131         29.1791 
        1.17811          27.937         9.17536         28.9371 
        1.18424         27.5549         9.06174         28.7415 
        1.19038         27.4046         8.94971         28.5475 
        1.19652          27.296         8.83963         28.2882 
        1.20267         27.0479          8.7314         28.1632 
        1.20881          26.866         8.62501         27.9891 
        1.21495         26.7869         8.52057         27.7783 
        1.22108         26.6685         8.41787         27.6051 
         1.2272         26.3158         8.31712         27.4504 
        1.23334         26.2173         8.21779         27.2475 
        1.23949         26.0162         8.11984         27.0069 
        1.24562         25.8261         8.02377         26.8481 
        1.25174         25.6456          7.9294         26.7266 
        1.25789         25.4624         7.83626          26.531 
        1.26402         25.3126         7.74479         26.3339 
        1.27014         25.1948           7.655         26.2211 
        1.27628         24.9313         7.56636         26.0313 
        1.28244         24.9434         7.47896         25.8711 
        1.28858         24.6194         7.39306         25.6955 
        1.29471         24.3952          7.3087         25.5902 
        1.30084           24.22         7.22574         25.3963 
        1.30697         24.1938         7.14394          25.201 
        1.31312         23.9943         7.06329         25.0768 
        1.31925         23.7965         6.98414         24.9145 
        1.32537         23.6147         6.90629         24.7994 
        1.33151         23.4434         6.82935          24.624 
        1.33765         23.4036         6.75362         24.4684 
        1.34378         23.2724          6.6792         24.3572 
        1.34992         23.0356         6.60584         24.2058 
        1.35606         22.8142         6.53344         24.0625 
         1.3622         22.7577         6.46225         23.9336 
        1.36833         22.6939         6.39229          23.831 
        1.37445         22.4478          6.3234         23.6789 
        1.38059         22.3026         6.25532         23.5523 
        1.38675         22.2083         6.18808          23.413 
        1.39288         22.0765         6.12209          23.283 
        1.39901         21.8806          6.0571          23.131 
        1.40515         21.7786          5.9929         23.0097 
         1.4113         21.7149         5.92967          22.877 
        1.41742         21.5499         5.86758         22.7202 
        1.42355         21.3329         5.80627         22.6401 
         1.4297         21.3258         5.74565         22.4733 
        1.43585         21.1652         5.68592         22.3794 
        1.44198         21.0008         5.62727         22.2649 
        1.44809         20.8368         5.56955         22.1227 
        1.45423         20.7803         5.51244         21.9844 
        1.46036          20.698         5.45623         21.8768 
        1.46649         20.5049         5.40078         21.7909 
        1.47263         20.3878         5.34606         21.6941 
        1.47877         20.2778         5.29213         21.5584 
        1.48491         20.1364         5.23885         21.4506 
        1.49104         20.0221         5.18642         21.3377 
        1.49718         19.9752         5.13467         21.2356 
        1.50333         19.8757         5.08355          21.104 
        1.50947         19.6471         5.03322         20.9933 
         1.5156         19.6479         4.98365         20.9064 
        1.52172         19.4784         4.93475         20.8044 
        1.52787         19.4534          4.8864         20.6854 
          1.534         19.2388         4.83876         20.5734 
        1.54013         19.2626         4.79181         20.4571 
        1.54627         19.0704         4.74539         20.3519 
        1.55241         18.9885         4.69958         20.2614 
        1.55855         18.8553         4.65444         20.1635 
        1.56467         18.7143         4.61002         20.0834 
         1.5708         18.6927         4.56605           19.98 
        1.57695         18.5877         4.52259         19.8706 
        1.58308          18.431         4.47979          19.783 
        1.58922         18.3412         4.43752         19.6827 
        1.59535         18.2692         4.39581         19.5818 
         1.6015         18.2143         4.35458         19.4764 
        1.60764         18.0424          4.3139         19.3776 
        1.61376         17.9407         4.27385         19.3012 
        1.61989         17.8445         4.23428         19.2273 
        1.62604         17.7338         4.19512         19.1313 
        1.63218         17.5925         4.15648         19.0456 
        1.63831         17.5638         4.11841         18.9744 
        1.64444         17.4907         4.08081         18.8737 
        1.65059         17.3652         4.04359         18.7709 
        1.65673         17.3031         4.00687         18.6914 
        1.66285         17.2173         3.97071         18.6269 
        1.66898         17.1271         3.93499         18.5453 
        1.67512         17.0437         3.89963         18.4331 
        1.68127          16.945         3.86468           18.35 
         1.6874          16.881         3.83023         18.2662 
        1.69353         16.7555         3.79623         18.1402 
        1.69967         16.6804         3.76255         18.0816 
        1.70581         16.6166          3.7293         18.0309 
        1.71193         16.5221         3.69658         17.9527 
        1.71806         16.4535         3.66418         17.8714 
        1.72421         16.3589          3.6321         17.7853 
        1.73035         16.2831         3.60044         17.7244 
        1.73649         16.1594         3.56917         17.6664 
        1.74262         16.0791          3.5383         17.5405 
        1.74876         16.0845         3.50777         17.4379 
        1.75489         15.9175         3.47766         17.3869 
        1.76101         15.8828         3.44792         17.3456 
        1.76715         15.7466         3.41848         17.2557 
        1.77329         15.6741         3.38935         17.1613 
        1.77943         15.6458         3.36055         17.0828 
        1.78557         15.5972         3.33212         17.0092 
        1.79171         15.4911         3.30402         16.9455 
        1.79785         15.4046         3.27624         16.8859 
        1.80399         15.2976         3.24878         16.8196 
        1.81012         15.2702         3.22167         16.7432 
        1.81625         15.1429         3.19488         16.6675 
        1.82239         15.0891         3.16836         16.6032 
        1.82853         15.0264         3.14216          16.547 
        1.83466         14.9397         3.11627          16.477 
        1.84078          14.872          3.0907         16.3921 
        1.84692         14.7918         3.06538         16.3143 
        1.85306          14.726         3.04031         16.2652 
         1.8592         14.7009         3.01555         16.2148 
        1.86533          14.614         2.99109          16.133 
        1.87147         14.5217         2.96687         16.0573 
        1.87761         14.4494         2.94291         15.9961 
