# k  (h/Mpc)    Pcb(k)  (Mpc/h)^3    Pcb_linear(k) (Mpc/h)^3    Pcb_NL(k) (Mpc/h)^3   ShotnoiseSubtracted = false
     0.00783031         9844.81         9913.54         9824.14 
       0.013688         10821.9         11047.4         10971.8 
       0.019231         10095.8         10200.6         10136.1 
      0.0249154         8643.39         8588.23         8549.32 
      0.0312784         6736.35         6738.27         6729.25 
      0.0375637         5279.11         5305.29         5306.43 
      0.0433917         4436.09         4415.19         4415.73 
      0.0492413         3870.26         3870.52         3872.35 
      0.0555754         3548.87         3525.49         3524.32 
      0.0619321          3222.3         3276.27         3272.58 
       0.067871         3014.08         3025.66         3022.64 
      0.0738098         2723.89         2716.78         2704.78 
      0.0800417         2371.78         2347.63         2346.85 
      0.0862327         2008.44         1987.91         2007.11 
      0.0921407         1729.69         1698.43         1724.12 
      0.0982031         1531.57          1480.5         1520.63 
       0.104506         1363.69         1337.23         1384.95 
       0.110769         1285.82         1257.07          1290.9 
       0.116806         1248.06         1209.03         1234.83 
       0.122832         1184.97         1162.09         1185.18 
       0.129052         1118.37         1095.55         1114.67 
       0.135211         1047.97         1007.04         1029.24 
       0.141259          940.45          906.84         937.759 
       0.147318         839.736         807.827         851.782 
       0.153489         761.784          721.66         761.437 
       0.159709          710.38           656.9         702.503 
       0.165845         651.606         614.491         667.722 
       0.171974          639.14         587.871         634.234 
       0.178125         616.353           568.8         616.684 
       0.184229         581.038         549.642         592.117 
        0.19034         563.657         525.093         563.665 
       0.196428         536.628          494.07         529.229 
       0.202534         490.544         458.632         497.686 
       0.208729         470.859         422.454         462.508 
       0.214876         442.378         390.345         439.625 
       0.220989         409.224         364.523          416.56 
       0.227147         396.909         345.028          396.72 
        0.23329         381.053         330.759         383.847 
       0.239377         373.778          319.51         369.548 
       0.245482         355.499          308.82          353.33 
       0.251667         340.198         296.883          342.99 
       0.257832         333.583         283.264         327.096 
       0.263955         312.444         268.457         311.916 
       0.270079         297.223         253.404         298.195 
        0.27624         282.858         239.216         283.751 
       0.282372          273.32         226.853          273.34 
        0.28843         269.487         216.664         263.505 
       0.294538         255.513         208.189         254.857 
       0.300721         246.282         200.862         247.579 
        0.30691         241.722         194.093          240.73 
       0.313033         229.976         187.382          231.64 
       0.319153          225.43         180.377         224.044 
       0.325316         218.497         173.025         217.172 
        0.33145         211.235         165.651         208.271 
       0.337538         202.727         158.592         201.022 
       0.343633         195.776         152.046         196.434 
       0.349808         189.522         146.109         191.224 
       0.355968         184.968         140.849         186.451 
       0.362074         179.282         136.177         180.768 
       0.368217         176.075         131.816         174.517 
       0.374374         171.248         127.605         169.789 
       0.380519          163.99         123.445         164.743 
       0.386598          160.66         119.321         161.294 
       0.392688         155.338         115.229          156.38 
        0.39888         152.073         111.176         152.113 
       0.405048          147.96         107.327         148.892 
       0.411186         145.824         103.751         144.725 
       0.417313         142.149         100.438         140.551 
       0.423458         138.444         97.3496         137.519 
       0.429607         134.517         94.4531         134.459 
       0.435692         132.188         91.7169          130.93 
       0.441815         128.722         89.0435         128.815 
       0.447964         124.435         86.4226         125.643 
       0.454126           122.2         83.8559         121.799 
       0.460267         120.749         81.3632         120.326 
       0.466387         117.357         78.9675         117.364 
        0.47254         115.881         76.6686         114.889 
       0.478662         111.939         74.4962         112.539 
       0.484765          110.04         72.4377         109.376 
       0.490885         107.726         70.4737         107.695 
       0.497035         106.355         68.5867         105.898 
       0.503198         104.422         66.7663         103.692 
       0.509342         101.634         65.0061         101.886 
       0.515458         99.7335         63.3027          100.37 
       0.521598         97.1306         61.6445          97.679 
       0.527764         96.2412         60.0342         95.7861 
       0.533884         95.2053         58.4922          94.307 
           0.54         92.5407         57.0082         92.4491 
       0.546137         90.2681         55.5762         91.1654 
       0.552299         88.6498         54.1953         88.9565 
       0.558452         87.1165         52.8703         87.2549 
       0.564573         86.4965         51.5986         86.2615 
       0.570708         84.0069         50.3648          84.872 
       0.576825          82.936         49.1715         83.0642 
       0.582926         81.9419         48.0164         81.6874 
       0.589034         80.3141         46.8952         80.8202 
       0.595184         79.1475         45.8024         79.1195 
       0.601379         77.5233          44.738         78.1673 
       0.607522         75.6981         43.7174         76.4581 
       0.613639         75.0574          42.734         75.6379 
       0.619772         73.6664         41.7794         74.3822 
       0.625918         73.0278         40.8527         73.2851 
       0.632068         71.2803         39.9539         72.0462 
       0.638161         70.3242         39.0905         71.2319 
         0.6443         69.7842         38.2465         70.0343 
       0.650464          68.063         37.4245         68.5512 
       0.656582         67.7017         36.6324         67.9743 
       0.662703         66.6724         35.8629         66.7741 
       0.668861         65.2207          35.111          66.006 
       0.675024         65.0099         34.3801         64.9188 
       0.681124         63.8541         33.6774         64.0212 
       0.687237         62.8082         32.9932         63.1379 
       0.693381         61.9268          32.325         62.1342 
       0.699536         61.2606         31.6744         61.5515 
       0.705665         60.4088         31.0448          60.964 
       0.711789         59.3937          30.433         59.7667 
       0.717957         58.5575         29.8337         59.0953 
        0.72409         57.8805         29.2541         58.5805 
       0.730186         57.5275         28.6934         57.8533 
       0.736317         56.6209         28.1445         56.9032 
       0.742472          55.557          27.608         56.2568 
       0.748622         54.7092          27.086         55.4997 
        0.75476         54.5258         26.5787          54.741 
       0.760888         54.0055         26.0852         53.9736 
       0.767043         52.8431         25.6024         53.6477 
       0.773185         52.0237         25.1328         53.1018 
       0.779291         51.5108         24.6778         52.3991 
       0.785407         50.9511         24.2334          51.625 
       0.791564           50.61         23.7972         51.0983 
       0.797719          49.659         23.3721          50.737 
       0.803834         49.3909         22.9601         49.9374 
       0.809972         48.8865         22.5566         49.3734 
       0.816124         48.1038          22.162         48.9345 
       0.822261          47.432         21.7779         48.3037 
       0.828378         47.2899         21.4041         47.6397 
       0.834502          46.667         21.0388         47.2376 
       0.840667         46.1984         20.6797         46.9247 
       0.846816         45.6742         20.3301         46.3805 
       0.852925         45.0824         19.9908         45.8581 
       0.859047         44.7983         19.6585         45.3246 
       0.865192         44.1508         19.3328         44.9154 
       0.871341         43.6908         19.0142         44.4033 
       0.877463         43.2062         18.7043          43.974 
       0.883569          43.094         18.4021         43.7007 
       0.889708         42.5544         18.1051         43.1839 
       0.895864         42.1919         17.8139         42.7988 
       0.902008         41.6494         17.5297         42.2594 
       0.908149         41.1096         17.2519         41.9576 
       0.914301         40.8154         16.9798         41.6319 
       0.920448         40.7236         16.7137         41.1768 
       0.926574         39.8629         16.4543         40.7347 
       0.932687         39.5835          16.201          40.392 
       0.938823         39.2052         15.9522         39.9005 
       0.944975         38.7057          15.708          39.585 
       0.951105         38.3881         15.4698         39.2657 
       0.957225         38.1445          15.237         38.8924 
       0.963368         37.7684         15.0083         38.4996 
       0.969511          37.432         14.7842         38.1462 
       0.975621         37.0096         14.5659         37.9777 
       0.981748         36.7151         14.3515         37.6287 
       0.987916         36.3176         14.1401           37.35 
        0.99406         36.1445         13.9337         36.8966 
        1.00019           35.67         13.7319         36.5295 
        1.00632         35.3885         13.5343         36.2454 
        1.01246         35.1151         13.3403         35.9162 
        1.01859         34.8582         13.1505         35.7695 
        1.02471         34.5171         12.9646         35.5113 
        1.03085         34.1839         12.7816          35.102 
        1.03698         33.9748         12.6026         34.7864 
        1.04314         33.6657         12.4263          34.472 
        1.04929         33.2565         12.2537         34.2716 
        1.05541         33.1391         12.0851         34.1097 
        1.06154         32.8044         11.9193         33.7782 
        1.06769         32.4856         11.7564         33.4877 
        1.07382         32.1595          11.597         33.2488 
        1.07993         32.0297          11.441         32.9852 
        1.08607         31.6976         11.2872         32.7555 
        1.09222         31.5273          11.136         32.4638 
        1.09836         31.2624         10.9879         32.2065 
        1.10449         31.0355         10.8426         31.9944 
        1.11063         30.7317         10.6997         31.6553 
        1.11677         30.6394         10.5595         31.4032 
         1.1229         30.2814         10.4221         31.2858 
        1.12903         30.0752          10.287         31.0385 
        1.13518         29.9122         10.1542          30.791 
        1.14131         29.6339         10.0238          30.559 
        1.14745         29.4156          9.8958            30.4 
        1.15359         29.0434            9.77         30.1097 
        1.15973         29.0132         9.64634         29.9522 
        1.16584         28.7445         9.52537         29.6467 
        1.17197         28.4671         9.40632         29.5403 
        1.17811         28.2828         9.28893         29.2953 
        1.18424          27.896          9.1739         29.0973 
        1.19038         27.7438         9.06049         28.9009 
        1.19652         27.6338         8.94904         28.6383 
        1.20267         27.3827         8.83947         28.5117 
        1.20881         27.1985         8.73177         28.3355 
        1.21495         27.1185         8.62603         28.1221 
        1.22108         26.9986         8.52207         27.9468 
         1.2272         26.6415         8.42007         27.7902 
        1.23334         26.5418          8.3195         27.5848 
        1.23949         26.3382         8.22035         27.3412 
        1.24562         26.1458         8.12309         27.1805 
        1.25174          25.963         8.02755         27.0574 
        1.25789         25.7775         7.93326         26.8594 
        1.26402         25.6259         7.84065         26.6598 
        1.27014         25.5067         7.74975         26.5457 
        1.27628         25.2399         7.66002         26.3535 
        1.28244         25.2522         7.57154         26.1913 
        1.28858         24.9241         7.48457         26.0136 
        1.29471         24.6971         7.39917         25.9069 
        1.30084         24.5198         7.31518         25.7107 
        1.30697         24.4933         7.23237          25.513 
        1.31312         24.2913         7.15072         25.3872 
        1.31925         24.0911         7.07059         25.2228 
        1.32537          23.907         6.99177         25.1063 
        1.33151         23.7336         6.91388         24.9288 
        1.33765         23.6932         6.83722         24.7713 
        1.34378         23.5605         6.76187         24.6587 
        1.34992         23.3207         6.68761         24.5054 
        1.35606         23.0965         6.61431         24.3603 
         1.3622         23.0394         6.54223         24.2299 
        1.36833         22.9748         6.47141          24.126 
        1.37445         22.7257         6.40167          23.972 
        1.38059         22.5786         6.33275         23.8438 
        1.38675         22.4832         6.26467         23.7028 
        1.39288         22.3498         6.19787         23.5712 
        1.39901         22.1514         6.13207         23.4173 
        1.40515         22.0482         6.06708         23.2945 
         1.4113         21.9837         6.00306         23.1601 
        1.41742         21.8166         5.94021         23.0014 
        1.42355          21.597         5.87814         22.9204 
         1.4297         21.5897         5.81677         22.7514 
        1.43585         21.4271          5.7563         22.6565 
        1.44198         21.2608         5.69692         22.5405 
        1.44809         21.0947         5.63849         22.3965 
        1.45423         21.0375         5.58067         22.2565 
        1.46036         20.9542         5.52376         22.1476 
        1.46649         20.7587         5.46763         22.0606 
        1.47263         20.6401         5.41224         21.9626 
        1.47877         20.5288         5.35763         21.8252 
        1.48491         20.3856          5.3037         21.7161 
        1.49104           20.27         5.25062         21.6018 
        1.49718         20.2225         5.19823         21.4985 
        1.50333         20.1218         5.14647         21.3652 
        1.50947         19.8903         5.09552         21.2531 
         1.5156          19.891         5.04534         21.1651 
        1.52172         19.7195         4.99583         21.0619 
        1.52787         19.6942         4.94689         20.9414 
          1.534         19.4769         4.89866         20.8281 
        1.54013         19.5011         4.85112         20.7103 
        1.54627         19.3065         4.80413         20.6038 
        1.55241         19.2235         4.75775         20.5122 
        1.55855         19.0887         4.71205         20.4131 
        1.56467         18.9459         4.66708         20.3319 
         1.5708         18.9241         4.62257         20.2273 
        1.57695         18.8178         4.57857         20.1165 
        1.58308         18.6591         4.53524         20.0279 
        1.58922         18.5682         4.49245         19.9264 
        1.59535         18.4954         4.45022         19.8242 
         1.6015         18.4398         4.40848         19.7175 
        1.60764         18.2657         4.36729         19.6175 
        1.61376         18.1628         4.32675         19.5401 
        1.61989         18.0654         4.28669         19.4653 
        1.62604         17.9533         4.24704         19.3681 
        1.63218         17.8103         4.20792         19.2813 
        1.63831         17.7812         4.16939         19.2092 
        1.64444         17.7072         4.13132         19.1073 
        1.65059         17.5802         4.09364         19.0032 
        1.65673         17.5173         4.05647         18.9227 
        1.66285         17.4304         4.01986         18.8574 
        1.66898         17.3391         3.98369         18.7748 
        1.67512         17.2547          3.9479         18.6613 
        1.68127         17.1548         3.91252         18.5771 
         1.6874           17.09         3.87764         18.4923 
        1.69353         16.9629         3.84321         18.3647 
        1.69967         16.8869         3.80912         18.3054 
        1.70581         16.8222         3.77546         18.2541 
        1.71193         16.7266         3.74233         18.1749 
        1.71806         16.6571         3.70953         18.0926 
        1.72421         16.5614         3.67706         18.0055 
        1.73035         16.4847         3.64501         17.9438 
        1.73649         16.3594         3.61335         17.8851 
        1.74262         16.2781         3.58209         17.7577 
        1.74876         16.2836         3.55118         17.6538 
        1.75489         16.1145         3.52071         17.6021 
        1.76101         16.0794         3.49059         17.5603 
        1.76715         15.9415         3.46079         17.4693 
        1.77329         15.8681          3.4313         17.3737 
        1.77943         15.8394         3.40214         17.2942 
        1.78557         15.7902         3.37336         17.2198 
        1.79171         15.6828         3.34491         17.1552 
        1.79785         15.5953         3.31679         17.0949 
        1.80399          15.487         3.28899         17.0278 
        1.81012         15.4592         3.26155         16.9504 
        1.81625         15.3304         3.23443         16.8738 
        1.82239         15.2759         3.20758         16.8087 
        1.82853         15.2124         3.18105         16.7518 
        1.83466         15.1246         3.15484         16.6809 
        1.84078         15.0561         3.12896          16.595 
        1.84692         14.9749         3.10332         16.5162 
        1.85306         14.9082         3.07794         16.4665 
         1.8592         14.8828         3.05288         16.4155 
        1.86533         14.7949         3.02811         16.3327 
        1.87147         14.7015         3.00359         16.2561 
