# k  (h/Mpc)    P(k)  (Mpc/h)^3    P_linear(k)  (Mpc/h)^3     P_NL(k)  ShotnoiseSubtracted = false
     0.00783031           26498         26654.5           26393 
       0.013688         28851.9         29775.1         29522.8 
       0.019231         27012.5         27506.2         27271.5 
      0.0249154         23344.9         23162.4         22979.6 
      0.0312784         18066.5         18174.5         18059.1 
      0.0375637         14139.1           14310         14259.6 
      0.0433917           11940         11909.3         11853.4 
      0.0492413         10411.1         10440.3           10396 
      0.0555754         9551.13         9509.63         9474.73 
      0.0619321         8581.73         8837.41         8799.47 
       0.067871         8050.23         8161.46         8137.88 
      0.0738098         7340.35         7328.28         7238.61 
      0.0800417         6411.83         6332.52         6314.06 
      0.0862327         5459.46         5362.22         5471.23 
      0.0921407         4773.31         4581.38         4730.37 
      0.0982031         4273.69         3993.52         4235.72 
       0.104506         3801.27         3607.06         3900.92 
       0.110769         3589.79         3390.85         3607.59 
       0.116806          3471.6         3261.26         3430.12 
       0.122832         3299.93         3134.65         3282.68 
       0.129052         3076.94         2955.15         3082.51 
       0.135211         2944.66          2716.4         2856.09 
       0.141259          2647.6         2446.13         2644.17 
       0.147318         2407.65         2179.05         2444.72 
       0.153489         2212.75         1946.62         2198.45 
       0.159709         2107.33         1771.93         2061.71 
       0.165845         1940.03         1657.54         1984.34 
       0.171974         1891.04         1585.73         1885.43 
       0.178125         1836.82         1534.29         1838.03 
       0.184229         1695.33         1482.61         1750.57 
        0.19034         1665.87          1416.4         1664.87 
       0.196428         1603.59         1332.71         1576.91 
       0.202534         1490.21         1237.12         1500.19 
       0.208729         1449.12         1139.53          1399.4 
       0.214876          1364.1         1052.92          1353.8 
       0.220989         1294.16         983.271         1303.29 
       0.227147         1252.58         930.686         1259.12 
        0.23329         1201.64         892.195          1224.5 
       0.239377         1195.37         861.852         1176.75 
       0.245482         1136.02         833.015            1127 
       0.251667         1095.01         800.814         1096.56 
       0.257832         1069.78         764.078         1050.01 
       0.263955         1016.77          724.14         1010.09 
       0.270079         983.459         683.537         974.345 
        0.27624         941.249         645.266         937.634 
       0.282372         927.043         611.918         916.128 
        0.28843         904.693         584.433         895.405 
       0.294538         863.357         561.572         866.589 
       0.300721         846.118          541.81         841.139 
        0.30691         821.192         523.548         829.078 
       0.313033         788.218         505.445         799.199 
       0.319153         779.563         486.551          775.18 
       0.325316         765.519         466.719          756.87 
        0.33145         745.014          446.83         728.059 
       0.337538         718.935         427.789         711.849 
       0.343633         702.092         410.131         701.355 
       0.349808          686.53         394.117         688.345 
       0.355968         672.054         379.926         672.366 
       0.362074         648.317         367.327         659.458 
       0.368217         643.775         355.561         642.371 
       0.374374         633.853         344.202         627.438 
       0.380519         609.963         332.985         612.689 
       0.386598         604.235         321.858         605.399 
       0.392688          587.34         310.821          589.87 
        0.39888         576.563         299.888         576.889 
       0.405048         561.226         289.505         564.815 
       0.411186          561.05         279.858         553.999 
       0.417313          551.26         270.922         544.617 
       0.423458         538.543         262.592         534.423 
       0.429607         522.431         254.779         526.003 
       0.435692         514.858         247.399          511.27 
       0.441815         505.727         240.187         507.301 
       0.447964         497.215         233.118         500.524 
       0.454126         490.393         226.194         486.006 
       0.460267          483.73          219.47         482.927 
       0.466387         471.464         213.008         474.961 
        0.47254         468.302         206.807         466.424 
       0.478662         457.447         200.947         457.671 
       0.484765         450.688         195.395         451.415 
       0.490885         448.259         190.097         442.481 
       0.497035         436.206         185.007         437.398 
       0.503198         434.825         180.096          431.92 
       0.509342          426.56         175.348         423.931 
       0.515458         418.301         170.754         418.983 
       0.521598         415.895         166.281         413.782 
       0.527764         406.781         161.937         409.983 
       0.533884         400.891         157.778         404.401 
           0.54         397.961         153.775         397.867 
       0.546137         390.872         149.911         393.095 
       0.552299         387.914         146.187          387.43 
       0.558452         381.472         142.613         383.101 
       0.564573         380.537         139.182         379.502 
       0.570708         373.148         135.855         374.304 
       0.576825         367.317         132.636         368.108 
       0.582926         365.739          129.52         365.311 
       0.589034         358.568         126.496         360.128 
       0.595184          355.69         123.548         354.867 
       0.601379         349.438         120.677         350.738 
       0.607522         343.485         117.924         345.069 
       0.613639         342.117         115.271         344.453 
       0.619772         339.614         112.696          342.18 
       0.625918         333.446         110.196         336.447 
       0.632068         332.087         107.772         333.905 
       0.638161         327.293         105.443         330.492 
         0.6443         323.055         103.167         326.165 
       0.650464         320.244         100.949         320.804 
       0.656582         316.224         98.8127         318.776 
       0.662703         314.994         96.7369         315.874 
       0.668861         309.215         94.7088           314.4 
       0.675024         308.046         92.7373           311.2 
       0.681124         301.282          90.842         306.549 
       0.687237          300.61         88.9963         303.225 
       0.693381         296.294         87.1938         300.192 
       0.699536          295.64         85.4389          298.25 
       0.705665         291.163         83.7405         293.542 
       0.711789         288.638         82.0904         292.084 
       0.717957         286.387         80.4739          290.84 
        0.72409         282.738         78.9103         286.576 
       0.730186         282.879          77.398          283.48 
       0.736317         277.892         75.9173         281.961 
       0.742472         275.909           74.47         279.781 
       0.748622         274.625          73.062         276.385 
        0.75476         270.734         71.6937         276.469 
       0.760888         269.492         70.3625         272.753 
       0.767043         266.136         69.0601         269.662 
       0.773185         263.173         67.7936         267.869 
       0.779291         261.417         66.5662          265.12 
       0.785407         259.661         65.3675         262.998 
       0.791564         258.004          64.191         261.019 
       0.797719          254.05         63.0442         258.907 
       0.803834         252.999         61.9328         257.327 
       0.809972         249.544         60.8444         254.948 
       0.816124         248.016         59.7799         252.455 
       0.822261         245.692         58.7439         251.473 
       0.828378         244.304         57.7357          249.07 
       0.834502         240.957         56.7504         247.258 
       0.840667         239.879         55.7818         245.057 
       0.846816         237.465         54.8387          243.43 
       0.852925         237.308         53.9234         241.706 
       0.859047         233.275         53.0271         239.378 
       0.865192         232.469         52.1484         237.306 
       0.871341         230.386         51.2891         235.666 
       0.877463         228.876         50.4532          234.49 
       0.883569          227.68         49.6381         234.123 
       0.889708         225.337         48.8369         230.936 
       0.895864         222.521         48.0514         229.875 
       0.902008         221.292         47.2849          227.45 
       0.908149         218.628         46.5356         225.721 
       0.914301         218.064         45.8014         223.877 
       0.920448         215.326         45.0838         222.924 
       0.926574         213.958         44.3841         221.352 
       0.932687         213.245         43.7008         219.221 
       0.938823          211.25         43.0296         218.913 
       0.944975         210.868         42.3709         216.968 
       0.951105         208.661         41.7285         215.571 
       0.957225         206.693         41.1005         213.856 
       0.963368         206.357         40.4834         212.427 
       0.969511         203.666          39.879         211.173 
       0.975621         201.437         39.2903         209.726 
       0.981748          200.76         38.7119         208.913 
       0.987916         199.479         38.1417         207.113 
        0.99406          197.61          37.585         205.817 
        1.00019         195.916         37.0407         204.369 
        1.00632         195.084         36.5077          202.75 
        1.01246         193.669         35.9844         201.231 
        1.01859         191.977         35.4723         200.302 
        1.02471           190.5         34.9708         198.988 
        1.03085         189.743         34.4773          197.97 
        1.03698         188.001         33.9944         197.242 
        1.04314         187.143         33.5187         195.571 
        1.04929          185.57         33.0533         194.034 
        1.05541         185.349         32.5986         193.113 
        1.06154         183.359         32.1513         192.339 
        1.06769         182.078         31.7118         190.976 
        1.07382         180.023         31.2819         189.814 
        1.07993         179.743          30.861         188.779 
        1.08607          178.47         30.4461         187.251 
        1.09222         177.009         30.0385          186.28 
        1.09836         175.661         29.6388         185.283 
        1.10449         174.862         29.2469          184.69 
        1.11063         173.721         28.8616         183.075 
        1.11677         172.022         28.4834         182.012 
         1.1229         171.681         28.1127         180.844 
        1.12903         169.663         27.7483         179.702 
        1.13518         168.561         27.3901         178.729 
        1.14131         167.596         27.0384         177.819 
        1.14745         166.649          26.693         176.303 
        1.15359          165.33         26.3537         175.887 
        1.15973         164.671         26.0201         174.671 
        1.16584         163.668         25.6938          174.23 
        1.17197         162.703         25.3727         173.099 
        1.17811         160.773         25.0561         171.832 
        1.18424          160.16         24.7458         170.831 
        1.19038         159.132         24.4399         170.385 
        1.19652         157.697         24.1392          168.78 
        1.20267         156.723         23.8437          168.44 
        1.20881         156.026         23.5532         167.337 
        1.21495         155.014         23.2679         166.285 
        1.22108         153.799         22.9875         165.384 
         1.2272         153.026         22.7124         164.799 
        1.23334         151.726         22.4411         163.844 
        1.23949         151.389         22.1736         162.819 
        1.24562          149.99         21.9113         161.564 
        1.25174         149.396         21.6536          160.82 
        1.25789         148.174         21.3992         159.824 
        1.26402         147.293         21.1495          159.31 
        1.27014         146.477         20.9043         158.398 
        1.27628         145.734         20.6622          158.05 
        1.28244         144.516         20.4235         156.968 
        1.28858         143.616          20.189         156.241 
        1.29471         142.592         19.9586         155.401 
        1.30084         141.947          19.732         154.228 
        1.30697         141.015         19.5087         153.444 
        1.31312         140.518         19.2884         152.618 
        1.31925         139.391         19.0723         152.005 
        1.32537         138.809         18.8597         151.192 
        1.33151          137.49         18.6496         150.483 
        1.33765           137.1         18.4428         149.751 
        1.34378         136.122         18.2395         148.906 
        1.34992         135.208         18.0392         148.127 
        1.35606          134.43         17.8415          147.18 
         1.3622         133.496         17.6471          146.82 
        1.36833         132.979          17.456         145.936 
        1.37445         132.039         17.2679         144.981 
        1.38059         130.978          17.082         144.395 
        1.38675         130.011         16.8984          143.51 
        1.39288          129.39         16.7182         143.029 
        1.39901         128.797         16.5407         142.263 
        1.40515         127.749         16.3654         141.395 
         1.4113         127.336         16.1927         140.656 
        1.41742         126.346         16.0232         140.037 
        1.42355         125.375         15.8557          139.28 
         1.4297          124.67         15.6902         138.629 
        1.43585         124.274         15.5271         138.152 
        1.44198         123.336         15.3669         137.522 
        1.44809         122.839         15.2093         136.649 
        1.45423         121.977         15.0534         135.926 
        1.46036         121.375         14.8999         135.271 
        1.46649         120.342         14.7484         134.696 
        1.47263         120.072          14.599         134.068 
        1.47877         118.929         14.4517         133.152 
        1.48491         118.222         14.3062          132.53 
        1.49104         117.576         14.1631          132.07 
        1.49718         116.639         14.0218         131.428 
        1.50333         116.008         13.8821         130.644 
        1.50947         115.297         13.7447         130.025 
         1.5156          114.68         13.6093         129.556 
        1.52172         114.076         13.4758         129.022 
        1.52787         113.299         13.3438         128.259 
          1.534         112.784         13.2137         127.654 
        1.54013         112.501         13.0855         127.211 
        1.54627         111.412         12.9587         126.644 
        1.55241         110.827         12.8336         125.951 
        1.55855         110.015         12.7103         125.257 
        1.56467         109.481          12.589          124.68 
         1.5708         109.142         12.4689         124.049 
        1.57695         108.331         12.3503         123.469 
        1.58308         107.466         12.2334         123.011 
        1.58922         106.898          12.118         122.454 
        1.59535         106.187         12.0041         121.861 
         1.6015         105.554         11.8915         121.326 
        1.60764         105.033         11.7804         120.739 
        1.61376         104.504          11.671         120.146 
        1.61989         103.889         11.5629         119.684 
        1.62604          103.48          11.456         118.939 
        1.63218         102.432         11.3505         118.311 
        1.63831         102.039         11.2465         117.961 
        1.64444         101.576         11.1439         117.426 
        1.65059         100.684         11.0422         116.863 
        1.65673         100.231         10.9419         116.259 
        1.66285          99.935         10.8432         115.777 
        1.66898         99.2223         10.7456         115.418 
        1.67512         98.2681         10.6491         114.795 
        1.68127         98.0415         10.5537         114.247 
         1.6874         97.4404         10.4596         113.791 
        1.69353          96.676         10.3667         113.237 
        1.69967          96.339         10.2748         112.759 
        1.70581         95.5007          10.184         112.236 
        1.71193         95.2562         10.0946         111.674 
        1.71806         94.5671         10.0061         111.223 
        1.72421         93.8976         9.91852         110.818 
        1.73035          93.623         9.83208         110.334 
        1.73649         93.0936         9.74668         109.724 
        1.74262         92.3233         9.66237         109.068 
        1.74876         91.7365         9.57899         108.593 
        1.75489         91.4287         9.49678         108.248 
        1.76101         91.0385         9.41555         107.867 
        1.76715         90.4854         9.33516         107.362 
        1.77329         89.9436         9.25562         106.859 
        1.77943          89.172         9.17696         106.429 
        1.78557         88.6385         9.09934         106.009 
        1.79171         88.1568          9.0226         105.465 
        1.79785         87.6454         8.94673         104.924 
        1.80399         87.1007         8.87175         104.548 
        1.81012         86.7347         8.79772         104.164 
        1.81625         85.9996         8.72458         103.672 
        1.82239         85.7136         8.65215         103.167 
        1.82853         85.2171         8.58058         102.753 
        1.83466         84.7411         8.50989         102.281 
        1.84078         84.3494         8.44007           101.8 
        1.84692         83.7085         8.37091         101.475 
        1.85306         83.1561         8.30245         100.988 
         1.8592         82.7064         8.23486         100.447 
        1.86533         82.1857         8.16806         100.113 
        1.87147         81.8172         8.10192         99.7073 
        1.87761         81.4306         8.03648         99.2262 
