# k  (h/Mpc)    P(k)  (Mpc/h)^3    P_linear(k)  (Mpc/h)^3     P_NL(k)  ShotnoiseSubtracted = false
     0.00783031         5464.75         5506.23         5457.18 
       0.013688         6033.98         6135.84         6096.11 
       0.019231          5621.8         5665.68         5632.83 
      0.0249154         4795.15         4770.24         4752.49 
      0.0312784          3746.7         3742.77         3742.32 
      0.0375637         2938.96         2946.86          2950.1 
      0.0433917         2464.23         2452.47         2455.59 
      0.0492413         2151.19         2149.94         2153.22 
      0.0555754         1970.23         1958.29          1958.9 
      0.0619321         1797.67         1819.87         1818.84 
       0.067871         1677.39         1680.67         1679.17 
      0.0738098         1512.24          1509.1         1504.87 
      0.0800417         1314.54         1304.04         1303.91 
      0.0862327         1112.19         1104.23            1111 
      0.0921407         953.917         943.436         952.619 
      0.0982031         841.151         822.379          836.31 
       0.104506          750.44         742.798         759.027 
       0.110769          707.01         698.274         709.668 
       0.116806         685.435         671.587         680.052 
       0.122832         652.035         645.515         652.994 
       0.129052         616.566         608.552         614.605 
       0.135211         573.671         559.387         566.602 
       0.141259         514.816          503.73         513.841 
       0.147318         458.182          448.73          463.43 
       0.153489         413.665         400.866         414.079 
       0.159709         382.391         364.893         379.989 
       0.165845         351.803         341.336         359.058 
       0.171974         343.884         326.549          341.73 
       0.178125         331.315         315.957         331.634 
       0.184229         315.054         305.314         319.282 
        0.19034         304.484         291.679         304.263 
       0.196428         288.273         274.446         285.603 
       0.202534         263.659          254.76         267.267 
       0.208729         250.206         234.664         247.844 
       0.214876         234.485         216.827         233.245 
       0.220989         216.215         202.485         219.761 
       0.227147         208.946         191.656         208.587 
        0.23329         200.586          183.73         201.164 
       0.239377         195.493         177.481         193.989 
       0.245482         186.793         171.543         185.918 
       0.251667         178.391         164.912         179.938 
       0.257832          174.24         157.347         171.608 
       0.263955         163.076         149.123          163.18 
       0.270079         154.584         140.761          155.24 
        0.27624         146.522          132.88         147.212 
       0.282372         140.553         126.013         141.211 
        0.28843         137.803         120.353         135.653 
       0.294538         131.219         115.645         130.816 
       0.300721         125.765         111.575         126.843 
        0.30691         123.303         107.815          122.94 
       0.313033         117.794         104.087         118.347 
       0.319153         115.264         100.196          114.31 
       0.325316         110.408         96.1117         110.496 
        0.33145         106.167          92.016         105.907 
       0.337538         101.999         88.0948         101.826 
       0.343633         98.4541         84.4586         98.6724 
       0.349808         94.8968         81.1607         95.7422 
       0.355968         92.0678         78.2385         93.1865 
       0.362074         89.9012         75.6439         90.0873 
       0.368217          87.458         73.2209          86.875 
       0.374374         85.0082         70.8818         84.4726 
       0.380519         81.3783         68.5719         81.7837 
       0.386598         79.1264         66.2805          79.586 
       0.392688          76.347         64.0077         77.2752 
        0.39888         74.8286         61.7562         74.8673 
       0.405048         72.7194          59.618         72.7546 
       0.411186         70.8498         57.6314         70.9535 
       0.417313         68.7395         55.7913         68.6914 
       0.423458         66.8325         54.0758         67.0234 
       0.429607         65.2988         52.4668         65.2495 
       0.435692         64.1493          50.947         63.5769 
       0.441815         61.8131         49.4618         62.2854 
       0.447964         59.6156         48.0061         60.4873 
       0.454126          58.506         46.5803         58.6935 
       0.460267         57.7897         45.1957         57.6921 
       0.466387         56.0734         43.8649         56.0501 
        0.47254         55.2197         42.5879         54.8333 
       0.478662          53.168         41.3812         53.5636 
       0.484765          52.096         40.2377         52.0078 
       0.490885         50.6191         39.1467         51.1444 
       0.497035          49.944         38.0986         50.1769 
       0.503198         48.7877         37.0874         48.8575 
       0.509342         47.3758         36.1096         47.9029 
       0.515458         46.5024         35.1634         47.1191 
       0.521598         45.3111         34.2423          45.696 
       0.527764         44.6663         33.3478         44.5256 
       0.533884         43.9394         32.4913         43.7146 
           0.54         42.7457         31.6669          42.865 
       0.546137          41.494         30.8714         42.1355 
       0.552299         40.6553         30.1045          41.006 
       0.558452         39.7864         29.3684         40.1391 
       0.564573         39.3964          28.662         39.5805 
       0.570708         38.2522         27.9767         38.8258 
       0.576825         37.7815         27.3138          38.019 
       0.582926          37.154         26.6722         37.2778 
       0.589034         36.3118         26.0494         36.7757 
       0.595184         35.7439         25.4423         35.9396 
       0.601379         34.8156         24.8511         35.4171 
       0.607522         34.0794         24.2842          34.523 
       0.613639         33.6696         23.7379         34.0174 
       0.619772         32.9124         23.2076         33.4207 
       0.625918         32.4123         22.6929         32.9154 
       0.632068         31.9524         22.1936         32.2568 
       0.638161         31.2471          21.714         31.7258 
         0.6443         30.8741         21.2452         31.1035 
       0.650464         30.0482         20.7886         30.5714 
       0.656582         29.8472         20.3486         30.1545 
       0.662703         29.3149         19.9211         29.5504 
       0.668861         28.6102         19.5035         29.1932 
       0.675024         28.2933         19.0975         28.5772 
       0.681124         27.9866         18.7072         28.1285 
       0.687237         27.3903         18.3271         27.6775 
       0.693381         26.9055         17.9559         27.1775 
       0.699536         26.6388         17.5945         26.9191 
       0.705665          26.125         17.2448         26.5347 
       0.711789         25.6848         16.9049         25.9239 
       0.717957         25.1697         16.5721         25.6613 
        0.72409         24.8778         16.2501         25.3166 
       0.730186         24.6876         15.9386         24.9099 
       0.736317         24.1715         15.6337         24.4977 
       0.742472         23.8617         15.3357         24.1693 
       0.748622         23.4269         15.0457          23.787 
        0.75476         22.9492         14.7639         23.4762 
       0.760888         22.8724         14.4898         23.1557 
       0.767043         22.3685         14.2216         22.8866 
       0.773185         22.0461         13.9608         22.5453 
       0.779291         21.7554          13.708         22.2639 
       0.785407         21.4609         13.4612         21.8968 
       0.791564         21.3433         13.2189         21.6047 
       0.797719         20.7947         12.9827         21.3973 
       0.803834         20.7029         12.7539         21.0464 
       0.809972          20.321         12.5297         20.7677 
       0.816124         20.0803         12.3105         20.5057 
       0.822261         19.7849         12.0972         20.2153 
       0.828378         19.6183         11.8896         19.9057 
       0.834502         19.3596         11.6867         19.7348 
       0.840667         19.1324         11.4872         19.4789 
       0.846816         18.7739          11.293         19.2333 
       0.852925         18.6261         11.1045         19.0592 
       0.859047         18.4373         10.9199         18.7765 
       0.865192         18.1334          10.739         18.5374 
       0.871341         17.9124          10.562         18.3422 
       0.877463         17.6709         10.3899         18.1212 
       0.883569         17.5375          10.222         17.9175 
       0.889708         17.2763          10.057         17.6923 
       0.895864         17.0359         9.89527         17.4535 
       0.902008           16.87         9.73742         17.2709 
       0.908149         16.6116         9.58312         17.1171 
       0.914301         16.4625         9.43192         16.9752 
       0.920448         16.2714         9.28415         16.7003 
       0.926574         16.0812         9.14006         16.4965 
       0.932687         15.8537         8.99936         16.3156 
       0.938823         15.6177         8.86112         16.1078 
       0.944975         15.4975         8.72549         15.9573 
       0.951105         15.3527         8.59319         15.7644 
       0.957225         15.2005         8.46388         15.6046 
       0.963368         14.9714          8.3368           15.43 
       0.969511         14.8165         8.21233         15.2498 
       0.975621         14.6903         8.09109         15.1217 
       0.981748         14.4835         7.97199         14.9662 
       0.987916         14.3772         7.85455         14.7945 
        0.99406         14.1629         7.73993         14.6372 
        1.00019         14.0603         7.62783         14.4903 
        1.00632         13.9448         7.51806         14.3579 
        1.01246         13.7497          7.4103          14.223 
        1.01859         13.6096         7.30484         14.0977 
        1.02471         13.4668         7.20157          13.935 
        1.03085         13.3722         7.09994         13.7793 
        1.03698         13.2599          7.0005         13.6439 
        1.04314         13.0765         6.90254          13.497 
        1.04929         12.8873          6.8067         13.4071 
        1.05541         12.8268         6.71306          13.315 
        1.06154          12.711         6.62095         13.1291 
        1.06769         12.5283         6.53044         12.9799 
        1.07382         12.4096         6.44192         12.8882 
        1.07993         12.3062         6.35524         12.7591 
        1.08607          12.187         6.26981         12.6545 
        1.09222         12.0629         6.18586         12.5631 
        1.09836         11.9285         6.10355         12.4276 
        1.10449         11.8597         6.02284         12.2976 
        1.11063         11.7524          5.9435           12.19 
        1.11677         11.6707         5.86563         12.0661 
         1.1229         11.5299         5.78928         11.9815 
        1.12903         11.3999         5.71424         11.8747 
        1.13518         11.3373         5.64047         11.7554 
        1.14131         11.2324         5.56804          11.652 
        1.14745         11.0727         5.49693         11.5694 
        1.15359         10.9443         5.42705         11.4338 
        1.15973         10.8907         5.35835         11.3614 
        1.16584         10.7749         5.29116         11.2627 
        1.17197         10.6523         5.22503         11.2016 
        1.17811         10.5862         5.15982         11.0434 
        1.18424         10.4768         5.09593          10.969 
        1.19038          10.429         5.03293         10.9077 
        1.19652         10.2821         4.97102         10.7804 
        1.20267         10.2476         4.91016          10.713 
        1.20881         10.1065         4.85033         10.6214 
        1.21495         10.0531          4.7916         10.5416 
        1.22108         9.97628         4.73384         10.4516 
         1.2272         9.87463         4.67718         10.3761 
        1.23334          9.8231         4.62132         10.2953 
        1.23949         9.72463         4.56625          10.189 
        1.24562         9.60399         4.51222         10.1172 
        1.25174         9.57253         4.45915         10.0452 
        1.25789         9.49299         4.40677         9.96339 
        1.26402          9.4009         4.35533         9.87301 
        1.27014         9.34436         4.30484         9.80418 
        1.27628         9.24082         4.25499          9.7121 
        1.28244         9.21365         4.20584         9.67175 
        1.28858         9.09903         4.15754         9.58712 
        1.29471         9.00841          4.1101         9.51577 
        1.30084         8.93176         4.06344         9.46933 
        1.30697          8.8818         4.01744         9.37607 
        1.31312         8.81499         3.97209         9.30387 
        1.31925         8.75767         3.92758         9.24849 
        1.32537         8.66595          3.8838          9.1882 
        1.33151          8.5966         3.84053         9.11861 
        1.33765         8.56003         3.79794         9.03953 
        1.34378         8.49399         3.75609         8.97775 
        1.34992         8.40749         3.71484         8.92483 
        1.35606         8.32796         3.67412         8.84699 
         1.3622         8.27299         3.63409         8.78352 
        1.36833         8.23731         3.59474         8.74359 
        1.37445         8.16881         3.55601         8.66656 
        1.38059         8.09343         3.51772          8.5988 
        1.38675          8.0588         3.47991         8.55862 
        1.39288         7.97425          3.4428         8.48341 
        1.39901         7.90466         3.40625         8.42633 
        1.40515         7.86556         3.37015         8.36747 
         1.4113         7.80501         3.33459         8.31074 
        1.41742         7.75558         3.29967         8.26995 
        1.42355         7.68354         3.26519         8.21719 
         1.4297         7.63364          3.2311         8.14247 
        1.43585         7.57676         3.19751         8.10126 
        1.44198         7.54846         3.16453         8.05012 
        1.44809         7.48424         3.13208         8.00045 
        1.45423          7.4233         3.09996         7.93186 
        1.46036         7.36988         3.06835          7.8784 
        1.46649         7.32011         3.03717         7.84295 
        1.47263         7.26951         3.00639         7.80485 
        1.47877         7.20559         2.97606         7.74261 
        1.48491         7.17079          2.9461         7.68342 
        1.49104         7.12129         2.91662         7.63715 
        1.49718         7.08379         2.88752         7.59959 
        1.50333         7.04464         2.85877         7.55199 
        1.50947         6.98033         2.83047         7.50676 
         1.5156         6.94587         2.80259         7.46231 
        1.52172         6.88063         2.77509          7.4094 
        1.52787         6.87008          2.7479         7.35688 
          1.534         6.80601         2.72111           7.313 
        1.54013         6.76698         2.69471         7.26366 
        1.54627         6.70831          2.6686         7.21448 
        1.55241         6.64518         2.64284         7.17431 
        1.55855         6.62906         2.61746         7.13731 
        1.56467         6.58737         2.59247         7.10149 
         1.5708         6.54633         2.56775         7.05956 
        1.57695         6.50256         2.54331         7.01272 
        1.58308         6.46096         2.51924         6.97505 
        1.58922         6.41888         2.49547         6.94255 
        1.59535         6.38084         2.47201         6.89836 
         1.6015         6.31641         2.44883          6.8544 
        1.60764          6.2839         2.42595         6.81179 
        1.61376         6.25451         2.40343          6.7725 
        1.61989         6.20401         2.38117         6.74601 
        1.62604         6.18148         2.35915         6.70824 
        1.63218         6.13784         2.33742         6.66939 
        1.63831         6.09691         2.31602         6.63721 
        1.64444         6.05467         2.29487         6.59728 
        1.65059         6.01322         2.27394         6.55453 
        1.65673          5.9877         2.25329         6.52026 
        1.66285         5.93667         2.23296         6.48598 
        1.66898         5.91816         2.21287         6.44264 
        1.67512         5.89563         2.19298          6.4044 
        1.68127         5.83635         2.17333         6.37627 
         1.6874         5.82559         2.15396         6.34397 
        1.69353         5.75403         2.13483         6.29769 
        1.69967         5.73558          2.1159         6.26756 
        1.70581         5.70075          2.0972         6.23752 
        1.71193         5.66428         2.07879         6.20622 
        1.71806         5.63318         2.06057         6.18662 
        1.72421         5.60076         2.04254         6.15076 
        1.73035         5.57837         2.02473         6.11688 
        1.73649         5.54649         2.00715         6.08966 
        1.74262         5.50043         1.98979         6.04493 
        1.74876          5.4808         1.97262         6.01088 
        1.75489         5.45037         1.95569         5.98226 
        1.76101         5.39808         1.93896         5.94916 
        1.76715         5.39582          1.9224         5.92512 
        1.77329         5.34887         1.90602         5.89253 
        1.77943         5.31126         1.88983         5.85601 
        1.78557         5.31121         1.87384         5.82844 
        1.79171         5.26383         1.85804         5.79791 
        1.79785         5.23299         1.84241          5.7671 
        1.80399         5.21359         1.82697         5.74365 
        1.81012         5.17181         1.81173         5.72034 
        1.81625         5.14897         1.79667          5.6949 
        1.82239         5.11708         1.78175          5.6679 
        1.82853         5.07911         1.76701         5.63924 
        1.83466          5.0498         1.75245         5.61245 
        1.84078         5.01954         1.73808         5.58551 
        1.84692         5.01421         1.72384         5.55314 
        1.85306         4.97793         1.70974         5.52217 
         1.8592         4.95719         1.69582         5.49723 
        1.86533         4.91769         1.68206         5.47324 
        1.87147         4.90029         1.66844         5.44394 
        1.87761         4.87768         1.65496          5.4206 
