# k  (h/Mpc)    Pcb(k)  (Mpc/h)^3    Pcb_linear(k) (Mpc/h)^3    Pcb_NL(k) (Mpc/h)^3   ShotnoiseSubtracted = false
     0.00783031         9065.88         9130.01          9047.9 
       0.013688          9972.7         10174.1         10105.1 
       0.019231         9301.65         9394.22         9335.71 
      0.0249154         7958.77         7909.31         7874.65 
      0.0312784         6205.38         6205.61         6198.69 
      0.0375637         4863.66         4885.91         4887.76 
      0.0433917         4085.58         4066.18         4067.55 
      0.0492413         3564.76         3564.57         3566.96 
      0.0555754         3268.24         3246.81         3246.15 
      0.0619321         2969.74         3017.29         3014.25 
       0.067871         2776.87          2786.5         2783.82 
      0.0738098         2508.46         2502.03         2491.77 
      0.0800417         2183.63         2162.06         2161.49 
      0.0862327         1848.76         1830.77         1847.37 
      0.0921407            1591         1564.18         1586.39 
      0.0982031         1407.81         1363.47         1398.03 
       0.104506         1253.82         1231.53         1272.51 
       0.110769         1182.08         1157.71         1186.72 
       0.116806         1147.26         1113.46         1135.53 
       0.122832         1089.51         1070.23         1089.97 
       0.129052         1028.71         1008.95         1025.26 
       0.135211         962.786         927.435         946.438 
       0.141259         863.985         835.159         861.612 
       0.147318         770.939         743.973         781.695 
       0.153489         698.817         664.616         698.694 
       0.159709         650.729         604.975         644.021 
       0.165845         597.085         565.919         611.556 
       0.171974         585.472         541.403         581.043 
       0.178125         564.461          523.84         564.795 
       0.184229         532.897         506.196         542.557 
        0.19034         516.623         483.587         516.567 
       0.196428         491.406         455.017         484.936 
       0.202534         449.139         422.379         455.664 
       0.208729         430.383         389.062         423.337 
       0.214876         404.242          359.49         401.759 
       0.220989         373.635          335.71         380.314 
       0.227147         362.251         317.756         361.967 
        0.23329          347.79         304.614         350.044 
       0.239377         340.779         294.255         337.101 
       0.245482         324.319         284.409         322.392 
       0.251667         310.225         273.416         312.825 
       0.257832         304.093         260.874         298.321 
       0.263955         284.703         247.237         284.335 
       0.270079         270.652         233.374         271.615 
        0.27624         257.428         220.307         258.296 
       0.282372         248.439         208.922         248.653 
        0.28843         244.825         199.538         239.556 
       0.294538         232.257         191.733         231.597 
       0.300721         223.617         184.985          224.94 
        0.30691         219.488         178.751         218.578 
       0.313033         208.922          172.57         210.326 
       0.319153         204.735         166.119         203.384 
       0.325316         198.072         159.348         197.072 
        0.33145         191.323         152.558         188.979 
       0.337538         183.638         146.056         182.266 
       0.343633         177.297         140.028         177.877 
       0.349808         171.517          134.56         173.078 
       0.355968         167.257         129.716         168.708 
       0.362074         162.348         125.413         163.483 
       0.368217         159.187         121.396         157.796 
       0.374374         154.752         117.518         153.497 
       0.380519         148.184         113.688         148.882 
       0.386598         145.015          109.89         145.598 
       0.392688         140.145         106.121         141.228 
        0.39888         137.267         102.389         137.258 
       0.405048         133.527         98.8433         134.226 
       0.411186         131.354         95.5497         130.547 
       0.417313         127.932         92.4989         126.694 
       0.423458         124.589         89.6546         123.901 
       0.429607         121.161         86.9872         121.077 
       0.435692         119.068         84.4672         117.917 
       0.441815         115.749         82.0051         115.935 
       0.447964         111.834         79.5914         112.989 
       0.454126         109.775         77.2276         109.539 
       0.460267         108.513         74.9319         108.141 
       0.466387         105.438         72.7256         105.407 
        0.47254         104.088         70.6084         103.178 
       0.478662         100.446         68.6077         101.044 
       0.484765         98.7193          66.712         98.1625 
       0.490885         96.5152         64.9031         96.6435 
       0.497035         95.3424         63.1653         95.0051 
       0.503198         93.4746         61.4888          92.948 
       0.509342         90.9576         59.8678          91.298 
       0.515458         89.2479          58.299         89.9252 
       0.521598          86.912         56.7719           87.45 
       0.527764         86.0623         55.2888         85.6445 
       0.533884         85.1141         53.8687         84.3043 
           0.54         82.6709          52.502         82.6591 
       0.546137         80.6104         51.1832         81.4725 
       0.552299         79.1003         49.9115         79.4543 
       0.558452         77.7015         48.6912         77.8977 
       0.564573         77.1239           47.52         76.9832 
       0.570708         74.8812         46.3838         75.7034 
       0.576825         73.9558         45.2848         74.1066 
       0.582926         73.0296          44.221         72.8315 
       0.589034         71.5451         43.1884         72.0375 
       0.595184         70.4717         42.1819         70.5337 
       0.601379         68.9624         41.2017         69.6391 
       0.607522         67.3664         40.2618         68.0591 
       0.613639         66.7731         39.3561         67.2982 
       0.619772         65.4561          38.477         66.1468 
       0.625918          64.867         37.6235         65.1958 
       0.632068         63.3933         36.7958          64.073 
       0.638161         62.4312         36.0006         63.2855 
         0.6443         61.9576         35.2234         62.1843 
       0.650464         60.3965         34.4663         60.8901 
       0.656582         60.0916         33.7368         60.3522 
       0.662703          59.118         33.0281         59.2548 
       0.668861         57.8224         32.3357         58.5621 
       0.675024         57.5884         31.6626         57.5612 
       0.681124         56.5994         31.0154         56.7465 
       0.687237          55.606         30.3853         55.9487 
       0.693381         54.8434         29.7699         55.0391 
       0.699536         54.2268         29.1707         54.5475 
       0.705665         53.4474         28.5909         53.9751 
       0.711789         52.5417         28.0275           52.86 
       0.717957          51.768         27.4756         52.2972 
        0.72409          51.169         26.9417         51.8059 
       0.730186         50.8175         26.4254          51.135 
       0.736317          49.973         25.9198         50.2883 
       0.742472         49.0851         25.4257         49.6951 
       0.748622         48.3239          24.945         49.0188 
        0.75476         48.0377         24.4778         48.3457 
       0.760888         47.6496         24.0233         47.6669 
       0.767043         46.5963         23.5787         47.3636 
       0.773185         45.8671         23.1462         46.8476 
       0.779291         45.3953         22.7272         46.2282 
       0.785407         44.8738         22.3179         45.5241 
       0.791564          44.622         21.9162         45.0285 
       0.797719         43.7343         21.5247         44.7102 
       0.803834         43.4783         21.1452         43.9979 
       0.809972         43.0052         20.7736         43.4815 
       0.816124         42.3556         20.4102         43.0807 
       0.822261         41.7201         20.0565         42.5081 
       0.828378         41.5901         19.7122         41.9122 
       0.834502          41.021         19.3758         41.5708 
       0.840667         40.6037         19.0451         41.2596 
       0.846816         40.1335         18.7231         40.7749 
       0.852925         39.6084         18.4106         40.3134 
       0.859047         39.3802         18.1046          39.823 
       0.865192         38.7626         17.8046         39.4547 
       0.871341         38.3469         17.5112         39.0062 
       0.877463         37.9093         17.2258          38.616 
       0.883569         37.7934         16.9475         38.3569 
       0.889708          37.311          16.674         37.8932 
       0.895864         36.9698         16.4058         37.5244 
       0.902008         36.5249         16.1441         37.0622 
       0.908149         36.0386         15.8883         36.8036 
       0.914301         35.7399         15.6376         36.5156 
       0.920448         35.6357         15.3926         36.0736 
       0.926574         34.9282         15.1537         35.6843 
       0.932687         34.6356         14.9204         35.3816 
       0.938823         34.2661         14.6912         34.9323 
       0.944975         33.8452         14.4664         34.6555 
       0.951105         33.5855          14.247         34.3771 
       0.957225         33.3346         14.0326         34.0289 
       0.963368         33.0103         13.8219         33.6781 
       0.969511         32.6929         13.6156         33.3527 
       0.975621         32.3601         13.4146          33.184 
       0.981748         32.0702         13.2171         32.8746 
       0.987916         31.7242         13.0224         32.6278 
        0.99406         31.5287         12.8324         32.2296 
        1.00019         31.1449         12.6465         31.9113 
        1.00632          30.906         12.4645          31.655 
        1.01246         30.6342         12.2859         31.3617 
        1.01859         30.3935          12.111         31.2181 
        1.02471         30.0843         11.9398         30.9752 
        1.03085         29.8129         11.7713         30.6145 
        1.03698         29.6324         11.6064         30.3343 
        1.04314          29.348          11.444         30.0456 
        1.04929         28.9542         11.2851         29.8699 
        1.05541         28.8936         11.1299         29.7295 
        1.06154         28.5889         10.9772           29.42 
        1.06769         28.2667         10.8271         29.1564 
        1.07382         28.0174         10.6803         28.9436 
        1.07993         27.8815         10.5366         28.7008 
        1.08607         27.5835          10.395         28.5014 
        1.09222          27.421         10.2558         28.2591 
        1.09836         27.1803         10.1193         28.0325 
        1.10449         26.9938         9.98553         27.8283 
        1.11063         26.7172         9.85399         27.5387 
        1.11677         26.6346         9.72488         27.3079 
         1.1229         26.3296         9.59831         27.1882 
        1.12903         26.1234         9.47389         26.9797 
        1.13518         26.0086         9.35157          26.756 
        1.14131         25.7485         9.23149         26.5482 
        1.14745         25.5345         9.11359         26.4022 
        1.15359         25.2174         8.99774          26.144 
        1.15973         25.1752         8.88385         25.9972 
        1.16584         24.9412         8.77245         25.7411 
        1.17197         24.6891          8.6628         25.6372 
        1.17811         24.5253          8.5547         25.4085 
        1.18424         24.1976         8.44876          25.225 
        1.19038         24.0593         8.34431         25.0808 
        1.19652         23.9412         8.24167         24.8324 
        1.20267         23.7532         8.14077         24.7186 
        1.20881         23.5745         8.04157         24.5603 
        1.21495         23.5154          7.9442         24.3871 
        1.22108         23.3877         7.84845         24.2113 
         1.2272         23.0828         7.75451         24.0828 
        1.23334         22.9894          7.6619         23.8919 
        1.23949         22.8131         7.57058         23.6745 
        1.24562          22.639         7.48101         23.5416 
        1.25174         22.4725         7.39302         23.4244 
        1.25789         22.3063         7.30618         23.2524 
        1.26402         22.1815         7.22089         23.0628 
        1.27014         22.0621         7.13718         22.9567 
        1.27628         21.8305         7.05454         22.7939 
        1.28244         21.8445         6.97305         22.6701 
        1.28858         21.5531         6.89296         22.5049 
        1.29471         21.3602         6.81431         22.3988 
        1.30084         21.2146         6.73696         22.2387 
        1.30697         21.1621         6.66069         22.0497 
        1.31312         20.9839          6.5855         21.9368 
        1.31925         20.8186          6.5117         21.8009 
        1.32537          20.652         6.43912         21.6944 
        1.33151         20.4943         6.36738         21.5428 
        1.33765         20.4699         6.29677         21.3992 
        1.34378         20.3522         6.22738         21.3009 
        1.34992         20.1308         6.15899         21.1692 
        1.35606         19.9476         6.09149          21.039 
         1.3622         19.8875         6.02511         20.9192 
        1.36833         19.8252         5.95988         20.8263 
        1.37445         19.6226         5.89566         20.6872 
        1.38059         19.4814         5.83218         20.5732 
        1.38675         19.4062         5.76949         20.4561 
        1.39288         19.2678         5.70796         20.3317 
        1.39901          19.105         5.64737         20.1972 
        1.40515          19.011         5.58752         20.0774 
         1.4113         18.9506         5.52855         19.9562 
        1.41742          18.812         5.47067         19.8391 
        1.42355         18.6131          5.4135         19.7629 
         1.4297         18.5959         5.35698          19.606 
        1.43585         18.4585          5.3013         19.5243 
        1.44198         18.3335         5.24661         19.4216 
        1.44809         18.1859          5.1928         19.3047 
        1.45423         18.1226         5.13955         19.1687 
        1.46036         18.0455         5.08714         19.0713 
        1.46649         17.8868         5.03545         18.9993 
        1.47263         17.7746         4.98443         18.9138 
        1.47877         17.6721         4.93414         18.7949 
        1.48491         17.5568         4.88447          18.698 
        1.49104         17.4483         4.83559         18.5914 
        1.49718         17.4258         4.78734         18.5011 
        1.50333         17.3224         4.73967         18.3887 
        1.50947         17.1204         4.69275         18.2937 
         1.5156           17.12         4.64653         18.2153 
        1.52172          16.985         4.60094         18.1185 
        1.52787         16.9426         4.55587         18.0074 
          1.534         16.7688         4.51145         17.9112 
        1.54013         16.7734         4.46767         17.8117 
        1.54627         16.6118         4.42439         17.7153 
        1.55241         16.5301         4.38168         17.6324 
        1.55855          16.419         4.33959         17.5496 
        1.56467         16.3011         4.29817         17.4776 
         1.5708          16.271         4.25718         17.3813 
        1.57695         16.1789         4.21666         17.2814 
        1.58308         16.0407         4.17676         17.2063 
        1.58922         15.9675         4.13735         17.1217 
        1.59535         15.8902         4.09846          17.026 
         1.6015         15.8392         4.06002         16.9384 
        1.60764         15.7049         4.02209         16.8509 
        1.61376          15.617         3.98475         16.7706 
        1.61989         15.5149         3.94785         16.7185 
        1.62604         15.4263         3.91134         16.6359 
        1.63218         15.3178         3.87531         16.5575 
        1.63831         15.2733         3.83982         16.4975 
        1.64444         15.2142         3.80476         16.4075 
        1.65059         15.1068         3.77006         16.3145 
        1.65673         15.0442         3.73583         16.2404 
        1.66285         14.9672         3.70211         16.1815 
        1.66898         14.8856         3.66881         16.1104 
        1.67512         14.8344         3.63584         16.0091 
        1.68127         14.7313         3.60325         15.9392 
         1.6874         14.6721         3.57114         15.8658 
        1.69353         14.5672         3.53943         15.7436 
        1.69967         14.4876         3.50804         15.6963 
        1.70581         14.4443         3.47703         15.6541 
        1.71193         14.3584         3.44652         15.5836 
        1.71806         14.2925         3.41631         15.5216 
        1.72421         14.2191         3.38641         15.4423 
        1.73035         14.1456         3.35689         15.3836 
        1.73649         14.0312         3.32774         15.3345 
        1.74262         13.9817         3.29895          15.222 
        1.74876         13.9576         3.27048         15.1319 
        1.75489         13.8275         3.24241         15.0878 
        1.76101          13.784         3.21468         15.0502 
        1.76715         13.6859         3.18724         14.9711 
        1.77329         13.6197         3.16008         14.8847 
        1.77943          13.583         3.13322         14.8123 
        1.78557         13.5422         3.10672         14.7494 
        1.79171          13.449         3.08052         14.6966 
        1.79785         13.3647         3.05462         14.6448 
        1.80399         13.2755         3.02901         14.5838 
        1.81012         13.2567         3.00374          14.517 
        1.81625         13.1549         2.97877         14.4544 
        1.82239         13.1005         2.95404          14.399 
        1.82853          13.042          2.9296         14.3448 
        1.83466         12.9706         2.90547         14.2847 
        1.84078          12.907         2.88163         14.2141 
        1.84692         12.8494         2.85802         14.1386 
        1.85306         12.7908         2.83464         14.0946 
         1.8592          12.761         2.81157         14.0556 
        1.86533         12.6906         2.78876         13.9814 
        1.87147         12.5987         2.76618         13.9121 
