# k  (h/Mpc)    P(k)  (Mpc/h)^3    P_linear(k)  (Mpc/h)^3     P_NL(k)  ShotnoiseSubtracted = false
     0.00783031         23480.2         23621.2         23394.5 
       0.013688         25593.7         26368.1           26153 
       0.019231           23948         24355.1         24157.2 
      0.0249154         20667.7         20507.6         20358.3 
      0.0312784         16011.8           16091         16003.2 
      0.0375637         12532.2         12669.2         12633.2 
      0.0433917         10575.9         10543.8         10503.3 
      0.0492413         9221.65         9243.09         9211.76 
      0.0555754         8461.27         8419.15         8393.48 
      0.0619321         7612.64            7824         7794.97 
       0.067871          7140.4         7225.54         7207.57 
      0.0738098         6500.41          6487.9         6417.86 
      0.0800417         5676.19         5606.33         5592.77 
      0.0862327         4827.73         4747.29         4835.55 
      0.0921407         4210.21            4056         4176.05 
      0.0982031         3763.22         3535.55         3730.26 
       0.104506         3346.64         3193.41         3429.37 
       0.110769         3159.72         3001.99         3174.54 
       0.116806         3059.17         2887.26         3021.25 
       0.122832         2905.71         2775.17         2893.11 
       0.129052         2715.57         2616.25         2717.05 
       0.135211         2590.78         2404.88         2516.43 
       0.141259         2328.15         2165.61         2323.59 
       0.147318         2109.77         1929.15         2143.28 
       0.153489         1935.32         1723.38          1924.7 
       0.159709         1838.03         1568.72         1800.54 
       0.165845         1689.53         1467.45         1730.47 
       0.171974         1650.26         1403.88         1643.08 
       0.178125         1600.89         1358.34         1601.74 
       0.184229          1481.2         1312.59         1527.04 
        0.19034          1452.3         1253.97         1452.19 
       0.196428         1396.58         1179.88         1372.79 
       0.202534         1292.58         1095.25         1304.12 
       0.208729         1256.85         1008.85         1215.59 
       0.214876          1182.5         932.168         1174.26 
       0.220989         1116.75         870.509         1127.87 
       0.227147         1081.79         823.954         1087.07 
        0.23329         1037.75         789.878         1056.88 
       0.239377         1031.22         763.014         1015.24 
       0.245482         978.885         737.484         971.616 
       0.251667         942.827         708.976         945.576 
       0.257832          921.82         676.453         904.429 
       0.263955          874.04         641.095         868.806 
       0.270079         843.044         605.149          837.29 
        0.27624         806.102         571.267         804.599 
       0.282372         791.945         541.743         784.117 
        0.28843         775.299          517.41         764.653 
       0.294538         737.781          497.17         740.332 
       0.300721         721.809         479.675         718.541 
        0.30691         702.184         463.507         706.903 
       0.313033         671.826          447.48         681.179 
       0.319153         663.432         430.753         660.559 
       0.325316         651.456         413.195         643.906 
        0.33145          633.87         395.587         618.906 
       0.337538          610.53         378.729         604.175 
       0.343633         595.399         363.097         595.393 
       0.349808         581.194         348.919         583.431 
       0.355968         569.334         336.356         570.109 
       0.362074         547.631         325.202         558.145 
       0.368217         544.165         314.785         542.334 
       0.374374         535.638         304.729         529.611 
       0.380519          514.24         294.798          516.34 
       0.386598         509.008         284.947         510.537 
       0.392688         494.631         275.176         495.839 
        0.39888          484.16         265.497         485.508 
       0.405048         471.368         256.305         475.609 
       0.411186         471.175         247.764         464.986 
       0.417313         463.166         239.853         456.497 
       0.423458          452.01         232.478         448.393 
       0.429607         437.631         225.561         440.546 
       0.435692         431.213         219.027         428.171 
       0.441815         423.438         212.642         424.347 
       0.447964         415.135         206.383         417.893 
       0.454126         409.982         200.254         405.702 
       0.460267         403.399         194.301         403.048 
       0.466387         393.411          188.58         396.072 
        0.47254         390.034          183.09         388.789 
       0.478662         381.176         177.902         381.082 
       0.484765         375.119         172.986         375.208 
       0.490885         372.646         168.296         368.099 
       0.497035         362.652          163.79         363.438 
       0.503198         361.592         159.443         358.536 
       0.509342         354.386         155.239         352.175 
       0.515458         347.164         151.171         347.928 
       0.521598         344.104         147.211         342.991 
       0.527764         337.294         143.366         339.703 
       0.533884         332.938         139.683         334.814 
           0.54         329.571          136.14           328.9 
       0.546137         323.016         132.719         324.794 
       0.552299         320.977         129.422         319.874 
       0.558452         315.297         126.258         316.065 
       0.564573         314.018         123.221         313.209 
       0.570708         307.794         120.275         309.204 
       0.576825         302.671         117.425         303.376 
       0.582926         301.519         114.666         300.821 
       0.589034         295.157         111.989         296.679 
       0.595184         293.117         109.379         291.902 
       0.601379         287.915         106.837         288.418 
       0.607522         282.204           104.4         283.877 
       0.613639         281.144         102.052         283.434 
       0.619772         279.544         99.7721         281.329 
       0.625918         273.697          97.559         276.057 
       0.632068         272.313         95.4128         273.509 
       0.638161         269.034         93.3509         271.193 
         0.6443         264.885         91.3354         267.683 
       0.650464         262.582         89.3723         262.659 
       0.656582         259.101         87.4807         261.013 
       0.662703         258.342          85.643         258.544 
       0.668861         252.895         83.8475         257.054 
       0.675024         251.934         82.1021          254.43 
       0.681124         247.035         80.4241         250.258 
       0.687237          246.22         78.7901         247.612 
       0.693381         242.076         77.1944         245.055 
       0.699536         241.609         75.6407          243.32 
       0.705665         238.046         74.1371         239.508 
       0.711789         235.248         72.6762         238.446 
       0.717957         233.843          71.245         237.203 
        0.72409         230.547         69.8608         233.855 
       0.730186         230.864         68.5219         231.239 
       0.736317         226.791          67.211         229.617 
       0.742472         225.111         65.9297          227.38 
       0.748622         223.384         64.6832         224.895 
        0.75476         221.304         63.4718         224.875 
       0.760888         219.336         62.2933         221.464 
       0.767043         216.231         61.1403         219.338 
       0.773185         213.834          60.019         217.762 
       0.779291         212.624         58.9323         215.331 
       0.785407         210.959         57.8711         213.586 
       0.791564         209.478         56.8295         211.694 
       0.797719         206.201         55.8142         209.939 
       0.803834         205.721         54.8303         208.756 
       0.809972         202.736         53.8667          206.84 
       0.816124         200.819         52.9243         204.751 
       0.822261         199.019         52.0071         203.839 
       0.828378          198.08         51.1145         201.765 
       0.834502         195.314         50.2422         200.155 
       0.840667         194.914         49.3847         198.209 
       0.846816         192.141         48.5497         196.936 
       0.852925         191.915         47.7394         195.551 
       0.859047         189.058         46.9459         193.881 
       0.865192         188.318          46.168          191.89 
       0.871341         186.631         45.4073         190.687 
       0.877463         185.127         44.6672          189.63 
       0.883569         184.247         43.9455         189.225 
       0.889708         182.665         43.2362         186.634 
       0.895864         179.983         42.5408         185.645 
       0.902008         178.852         41.8622         183.739 
       0.908149         176.896         41.1988          182.41 
       0.914301         176.117         40.5488         180.894 
       0.920448         174.503         39.9135         179.952 
       0.926574         173.012         39.2941          178.48 
       0.932687         172.668         38.6892         177.131 
       0.938823         170.913         38.0949         176.601 
       0.944975         170.516         37.5118         174.911 
       0.951105         168.392          36.943          173.72 
       0.957225         167.022         36.3871         172.398 
       0.963368         166.777         35.8408         171.276 
       0.969511         164.535         35.3057         170.099 
       0.975621         162.377         34.7844         169.075 
       0.981748         162.156         34.2724         168.182 
       0.987916         161.081         33.7675         166.819 
        0.99406         159.567         33.2748         165.649 
        1.00019          158.67         32.7928         164.406 
        1.00632         157.616         32.3209         163.189 
        1.01246         156.365         31.8577         161.788 
        1.01859         154.745         31.4043         161.099 
        1.02471          153.54         30.9603         160.159 
        1.03085         152.906         30.5234         159.272 
        1.03698         152.024         30.0959          158.66 
        1.04314         151.053         29.6747         157.295 
        1.04929         149.832         29.2627         156.054 
        1.05541         149.636         28.8601         155.334 
        1.06154         148.024         28.4642         154.635 
        1.06769         147.046          28.075         153.548 
        1.07382         145.209         27.6945         152.683 
        1.07993          144.88         27.3218         151.759 
        1.08607         144.306         26.9545         150.499 
        1.09222         142.698         26.5936         149.753 
        1.09836         141.782         26.2398         148.841 
        1.10449         141.192         25.8928          148.33 
        1.11063         139.902         25.5517         147.121 
        1.11677         138.851         25.2169         146.141 
         1.1229         138.472         24.8887         145.253 
        1.12903         136.719         24.5661         144.385 
        1.13518          136.06         24.2489         143.695 
        1.14131         135.464         23.9376         142.696 
        1.14745         134.273         23.6318         141.658 
        1.15359         133.456         23.3314          141.19 
        1.15973         132.769         23.0361         140.318 
        1.16584         131.928         22.7472         139.727 
        1.17197         131.242         22.4629         138.918 
        1.17811           129.8         22.1826         137.913 
        1.18424         129.245         21.9079         137.045 
        1.19038         128.466         21.6371          136.78 
        1.19652         127.101         21.3709         135.506 
        1.20267         126.504         21.1093         135.108 
        1.20881         125.703         20.8521         134.156 
        1.21495         125.223         20.5996         133.445 
        1.22108           124.1         20.3513          132.62 
         1.2272         123.793         20.1077         132.051 
        1.23334         122.533         19.8675          131.45 
        1.23949         122.069         19.6308         130.601 
        1.24562         121.103         19.3985         129.528 
        1.25174         120.697         19.1703         128.866 
        1.25789         119.679         18.9452           128.1 
        1.26402         118.933          18.724         127.755 
        1.27014         118.326         18.5069         127.024 
        1.27628         117.882         18.2926         126.747 
        1.28244         116.706         18.0813         125.846 
        1.28858         116.003         17.8737         125.208 
        1.29471          115.09         17.6697         124.482 
        1.30084         114.662         17.4691         123.597 
        1.30697         113.912         17.2714         122.943 
        1.31312         113.432         17.0764         122.217 
        1.31925         112.319         16.8851         121.844 
        1.32537         111.956         16.6968         121.223 
        1.33151         110.854         16.5108         120.556 
        1.33765         110.689         16.3277          120.02 
        1.34378         109.963         16.1478         119.405 
        1.34992           109.1         15.9705         118.716 
        1.35606         108.605         15.7954         117.959 
         1.3622         107.936         15.6233         117.583 
        1.36833         107.343         15.4542         116.851 
        1.37445         106.489         15.2876         116.158 
        1.38059         105.879          15.123          115.52 
        1.38675         105.224         14.9605         114.933 
        1.39288         104.545         14.8009           114.4 
        1.39901         103.845         14.6438         113.895 
        1.40515          103.31         14.4886         113.321 
         1.4113         102.848         14.3357          112.78 
        1.41742         102.336         14.1856         112.248 
        1.42355          101.39         14.0374         111.487 
         1.4297         100.824         13.8908         111.106 
        1.43585          100.61         13.7464         110.613 
        1.44198         99.8229         13.6046          110.21 
        1.44809         99.1914         13.4651         109.519 
        1.45423          98.729          13.327         108.808 
        1.46036         98.0721         13.1911         108.323 
        1.46649          97.249         13.0571         107.943 
        1.47263          97.067         12.9248         107.451 
        1.47877          96.319         12.7944         106.725 
        1.48491         95.5782         12.6656         106.189 
        1.49104         95.1256         12.5388         105.869 
        1.49718         94.4776         12.4137         105.233 
        1.50333         93.8326         12.2901         104.663 
        1.50947         93.5661         12.1684         104.239 
         1.5156         92.8803         12.0486         103.791 
        1.52172         92.2822         11.9304         103.276 
        1.52787         91.8636         11.8135         102.761 
          1.534         91.3777         11.6983         102.306 
        1.54013         90.9905         11.5848           101.9 
        1.54627         90.2656         11.4726         101.431 
        1.55241         89.7945         11.3618         100.875 
        1.55855         89.0828         11.2527          100.33 
        1.56467         88.6775         11.1453         99.9421 
         1.5708         88.2802          11.039          99.437 
        1.57695         87.7862         10.9339         98.9465 
        1.58308         86.9592         10.8305          98.594 
        1.58922         86.6262         10.7283         98.1389 
        1.59535         86.2087         10.6274         97.7169 
         1.6015         85.5503         10.5277         97.2202 
        1.60764         85.2043         10.4294         96.7405 
        1.61376         84.8843         10.3326         96.4007 
        1.61989         84.2642         10.2369         95.9466 
        1.62604         83.9659         10.1422         95.2673 
        1.63218         83.1698         10.0488         94.7909 
        1.63831         82.9703         9.95678           94.59 
        1.64444         82.2367         9.86587         94.1705 
        1.65059         81.7639         9.77588          93.694 
        1.65673         81.4212         9.68711         93.2175 
        1.66285         81.2439         9.59969         92.8273 
        1.66898         80.5753         9.51332         92.4886 
        1.67512         79.7633         9.42785          92.003 
        1.68127         79.6492         9.34335         91.6418 
         1.6874         79.3374         9.26007         91.2909 
        1.69353          78.591         9.17785         90.7352 
        1.69967         78.2957         9.09644         90.3777 
        1.70581         77.7321         9.01605         90.0131 
        1.71193         77.4548         8.93694         89.5545 
        1.71806         76.7075          8.8586         89.1667 
        1.72421          76.349         8.78106         88.8643 
        1.73035         76.0435         8.70452         88.4941 
        1.73649         75.6295         8.62892         88.0051 
        1.74262         75.0329         8.55428         87.5238 
        1.74876         74.6502         8.48047         87.1544 
        1.75489         74.5033         8.40768         86.8441 
        1.76101         74.0317         8.33577         86.5207 
        1.76715         73.5369          8.2646         86.1727 
        1.77329         73.1263         8.19417         85.7487 
        1.77943         72.6219         8.12454         85.3418 
        1.78557         72.2544         8.05582           85.02 
        1.79171         71.8434         7.98788         84.6266 
        1.79785         71.4388         7.92071         84.2002 
        1.80399         70.9419         7.85433         83.8585 
        1.81012          70.621         7.78879          83.565 
        1.81625         70.0644         7.72403         83.1864 
        1.82239         69.8695         7.65991         82.7588 
        1.82853          69.399         7.59655         82.4202 
        1.83466         68.9889         7.53397         82.0406 
        1.84078          68.708         7.47215           81.67 
        1.84692         68.3253         7.41093         81.4572 
        1.85306         67.9595         7.35032         81.0247 
         1.8592         67.6546         7.29048          80.546 
        1.86533         67.1556         7.23134         80.3552 
        1.87147         66.7607         7.17278         80.0701 
        1.87761         66.4285         7.11485         79.6658 
