# k  (h/Mpc)    P(k)  (Mpc/h)^3    P_linear(k)  (Mpc/h)^3     P_NL(k)  ShotnoiseSubtracted = false
     0.00783031         22827.1         22964.7         22745.1 
       0.013688         24887.9         25631.3         25423.9 
       0.019231         23284.5         23673.7         23483.5 
      0.0249154         20088.7         19933.6         19791.1 
      0.0312784         15567.1         15640.5         15558.3 
      0.0375637         12184.4         12314.5         12281.3 
      0.0433917         10280.9         10248.5         10211.1 
      0.0492413         8964.37         8984.27          8955.5 
      0.0555754         8225.41         8183.39         8159.56 
      0.0619321         7402.74          7604.9         7577.67 
       0.067871         6943.26          7023.2         7006.35 
      0.0738098         6318.76         6306.22         6240.12 
      0.0800417         5517.11         5449.33         5436.77 
      0.0862327         4691.33         4614.35         4698.38 
      0.0921407         4088.96         3942.41         4056.59 
      0.0982031         3653.47         3436.54         3621.58 
       0.104506         3248.95         3103.98         3328.14 
       0.110769         3067.34         2917.92         3081.55 
       0.116806         2970.41          2806.4         2933.38 
       0.122832            2821         2697.45         2809.33 
       0.129052         2637.72         2542.99         2638.47 
       0.135211         2514.73         2337.54          2443.4 
       0.141259         2259.58         2104.96         2254.85 
       0.147318         2046.08         1875.13         2078.73 
       0.153489         1876.09         1675.12          1866.2 
       0.159709         1780.63         1524.79         1744.84 
       0.165845         1636.28         1426.35         1676.35 
       0.171974         1598.92         1364.56          1591.5 
       0.178125         1550.64          1320.3         1551.42 
       0.184229         1435.57         1275.83         1479.42 
        0.19034         1406.89         1218.85          1406.9 
       0.196428         1352.55         1146.84         1329.43 
       0.202534         1250.77         1064.57         1262.49 
       0.208729         1216.08         980.597         1176.61 
       0.214876         1144.05         906.063         1136.18 
       0.220989         1079.33         846.131         1090.72 
       0.227147         1045.74          800.88          1050.7 
        0.23329         1003.17         767.757         1021.42 
       0.239377         996.546         741.646         981.135 
       0.245482         945.783         716.831         938.838 
       0.251667         910.766         689.121         913.698 
       0.257832         890.657         657.509         873.739 
       0.263955         844.022         623.142         839.066 
       0.270079         813.576         588.202         808.452 
        0.27624         777.778         555.268         776.616 
       0.282372         763.668         526.572         756.414 
        0.28843         748.122          502.92         737.258 
       0.294538         711.515         483.247         713.871 
       0.300721         695.809         466.241         692.878 
        0.30691         677.247         450.527         681.343 
       0.313033         647.552         434.949         656.498 
       0.319153         639.233          418.69         636.583 
       0.325316         627.644         401.624         620.325 
        0.33145         610.662         384.509         596.145 
       0.337538         587.958         368.123         581.737 
       0.343633         573.177         352.928         573.283 
       0.349808         559.298         339.148         561.575 
       0.355968         547.944         326.936         548.792 
       0.362074          526.81         316.094         537.039 
       0.368217         523.498          305.97         521.561 
       0.374374         515.201         296.195         509.282 
       0.380519         494.405         286.542         496.375 
       0.386598         489.267         276.967         490.824 
       0.392688         475.418          267.47         476.396 
        0.39888         465.098         258.062         466.557 
       0.405048         452.831         249.127         457.117 
       0.411186         452.609         240.825         446.591 
       0.417313         444.912         233.136         438.287 
       0.423458         434.109         225.967         430.572 
       0.429607         420.165         219.244         422.885 
       0.435692         413.965         212.893         411.011 
       0.441815          406.48         206.687         407.233 
       0.447964         398.258         200.604         400.881 
       0.454126         393.399         194.646         389.174 
       0.460267         386.919          188.86          386.59 
       0.466387         377.367         183.299         379.822 
        0.47254         373.979         177.963         372.807 
       0.478662         365.491          172.92         365.345 
       0.484765         359.613         168.142          359.54 
       0.490885          357.11         163.583         352.811 
       0.497035          347.59         159.203         348.257 
       0.503198         346.564         154.978         343.478 
       0.509342         339.575         150.892         337.455 
       0.515458         332.624         146.938         333.346 
       0.521598         329.398         143.089         328.458 
       0.527764         323.096         139.351         325.277 
       0.533884         319.021         135.772         320.552 
           0.54           315.6         132.327          314.79 
       0.546137          309.17         129.003         310.844 
       0.552299         307.258         125.798         306.076 
       0.558452         301.772         122.722         302.367 
       0.564573         300.473          119.77          299.65 
       0.570708         294.452         116.907         295.866 
       0.576825         289.501         114.136         290.157 
       0.582926         288.384         111.455         287.649 
       0.589034          282.25         108.853         283.737 
       0.595184         280.335         106.316         279.062 
       0.601379         275.387         103.845         275.724 
       0.607522         269.735         101.476         271.411 
       0.613639         268.736         99.1938         270.962 
       0.619772         267.267          96.978         268.884 
       0.625918         261.593         94.8269         263.751 
       0.632068         260.137         92.7408         261.199 
       0.638161         257.171         90.7366         259.102 
         0.6443         253.093         88.7776         255.746 
       0.650464         250.835         86.8695         250.844 
       0.656582         247.494         85.0309         249.249 
       0.662703         246.789         83.2446          246.88 
       0.668861         241.463         81.4994         245.381 
       0.675024         240.536         79.8028         242.862 
       0.681124         236.035         78.1718         238.835 
       0.687237         235.163         76.5836         236.323 
       0.693381         231.075         75.0325         233.847 
       0.699536         230.638         73.5224         232.157 
       0.705665         227.263         72.0609         228.555 
       0.711789         224.441         70.6409         227.548 
       0.717957         223.162         69.2498          226.28 
        0.72409         219.963         67.9043         223.144 
       0.730186          220.33         66.6029         220.634 
       0.736317         216.471         65.3288         218.989 
       0.742472         214.797         64.0834         216.778 
       0.748622         212.999         62.8718         214.463 
        0.75476         211.239         61.6942         214.381 
       0.760888          209.19         60.5488         211.068 
       0.767043         206.139          59.428         209.125 
       0.773185         203.859         58.3381         207.595 
       0.779291         202.743         57.2819         205.231 
       0.785407         201.105         56.2504         203.552 
       0.791564         199.661          55.238         201.712 
       0.797719         196.505         54.2511         200.057 
       0.803834         196.152         53.2948         198.917 
       0.809972         193.299         52.3582         197.087 
       0.816124         191.275         51.4421         195.103 
       0.822261          189.61         50.5506         194.185 
       0.828378         188.746          49.683         192.185 
       0.834502         186.159         48.8352          190.61 
       0.840667         185.821         48.0017         188.751 
       0.846816         183.019         47.1901          187.55 
       0.852925         182.782         46.4024         186.223 
       0.859047         180.152         45.6312         184.677 
       0.865192          179.42         44.8751         182.724 
       0.871341         177.821         44.1356         181.576 
       0.877463         176.313         43.4163         180.563 
       0.883569         175.518         42.7149         180.124 
       0.889708         174.041         42.0254         177.675 
       0.895864         171.446         41.3495         176.702 
       0.902008         170.335         40.6898         174.904 
       0.908149         168.516         40.0451         173.642 
       0.914301          167.67         39.4133         172.193 
       0.920448         166.296         38.7957         171.255 
       0.926574         164.784         38.1937         169.832 
       0.932687          164.46         37.6057          168.62 
       0.938823         162.799         37.0281         168.021 
       0.944975         162.398         36.4613         166.424 
       0.951105         160.316         35.9084         165.271 
       0.957225         159.053         35.3681         164.017 
       0.963368         158.799          34.837          162.95 
       0.969511         156.669         34.3169         161.781 
       0.975621         154.557         33.8103         160.857 
       0.981748         154.393         33.3126         159.964 
       0.987916          153.37         32.8219         158.679 
        0.99406         151.925         32.3429         157.542 
        1.00019         151.151         31.8745         156.346 
        1.00632         150.062         31.4158         155.207 
        1.01246         148.854         30.9655         153.846 
        1.01859         147.301         30.5248         153.196 
        1.02471         146.171         30.0932         152.319 
        1.03085         145.547         29.6686         151.472 
        1.03698         144.745          29.253         150.882 
        1.04314           143.8         28.8437         149.567 
        1.04929         142.673         28.4432         148.406 
        1.05541         142.441         28.0519         147.723 
        1.06154         140.892          27.667         147.022 
        1.06769         139.975         27.2888         145.992 
        1.07382         138.258         26.9189         145.177 
        1.07993         137.895         26.5567         144.285 
        1.08607         137.434         26.1997         143.093 
        1.09222         135.825         25.8489         142.386 
        1.09836         134.985         25.5049         141.487 
        1.10449         134.423         25.1677         141.007 
        1.11063          133.12         24.8362         139.875 
        1.11677         132.223         24.5107         138.917 
         1.1229         131.763         24.1917         138.085 
        1.12903         130.113         23.8781         137.267 
        1.13518          129.51         23.5699         136.612 
        1.14131         128.984         23.2672         135.616 
        1.14745         127.774           22.97         134.671 
        1.15359         127.038          22.678         134.198 
        1.15973         126.357          22.391         133.389 
        1.16584         125.544         22.1102         132.757 
        1.17197         124.899         21.8339         132.032 
        1.17811         123.581         21.5614         131.073 
        1.18424          123.01         21.2944         130.229 
        1.19038          122.29         21.0311         129.988 
        1.19652         120.972         20.7724         128.799 
        1.20267         120.396         20.5181         128.378 
        1.20881         119.609         20.2681         127.467 
        1.21495         119.216         20.0227         126.826 
        1.22108         118.123         19.7813         126.026 
         1.2272         117.891         19.5446         125.454 
        1.23334         116.651         19.3112         124.918 
        1.23949         116.152          19.081         124.111 
        1.24562         115.245         18.8552         123.078 
        1.25174         114.913         18.6335         122.442 
        1.25789         113.944         18.4146         121.716 
        1.26402         113.205         18.1997         121.397 
        1.27014         112.627         17.9887         120.706 
        1.27628         112.213         17.7804         120.432 
        1.28244         111.086          17.575         119.568 
        1.28858         110.455         17.3731         118.951 
        1.29471         109.572         17.1749         118.261 
        1.30084         109.154         16.9799          117.42 
        1.30697         108.414         16.7877         116.802 
        1.31312         107.977         16.5982         116.116 
        1.31925         106.853         16.4122         115.768 
        1.32537         106.529         16.2292         115.193 
        1.33151         105.517         16.0484         114.539 
        1.33765         105.348         15.8705         114.027 
        1.34378         104.672         15.6956         113.454 
        1.34992         103.845         15.5232         112.782 
        1.35606         103.404         15.3531         112.082 
         1.3622         102.756         15.1858         111.699 
        1.36833          102.16         15.0214         110.999 
        1.37445         101.364         14.8595         110.375 
        1.38059         100.794         14.6995         109.717 
        1.38675         100.208         14.5415         109.193 
        1.39288         99.5382         14.3864         108.646 
        1.39901         98.8371         14.2337         108.196 
        1.40515         98.3803         14.0829          107.68 
         1.4113          97.887         13.9342         107.169 
        1.41742         97.4752         13.7884         106.655 
        1.42355         96.5812         13.6443         105.919 
         1.4297         96.0259         13.5018          105.57 
        1.43585         95.7996         13.3615         105.071 
        1.44198         95.0862         13.2236          104.72 
        1.44809         94.4314          13.088         104.061 
        1.45423         94.0336         12.9538         103.361 
        1.46036         93.3548         12.8217         102.908 
        1.46649         92.6161         12.6914         102.564 
        1.47263         92.4059         12.5628         102.101 
        1.47877         91.7464         12.4361         101.408 
        1.48491          91.045         12.3109         100.893 
        1.49104         90.6178         12.1877         100.606 
        1.49718         90.0023         12.0661         99.9731 
        1.50333          89.372         11.9459         99.4378 
        1.50947         89.1731         11.8277         99.0542 
         1.5156         88.4839         11.7112         98.6188 
        1.52172         87.8799         11.5963         98.1077 
        1.52787         87.5289         11.4827         97.6362 
          1.534         87.0722         11.3707         97.2135 
        1.54013         86.6367         11.2604         96.8209 
        1.54627         86.0021         11.1513         96.3739 
        1.55241         85.5683         11.0436         95.8432 
        1.55855         84.8788         10.9376         95.3236 
        1.56467         84.4799         10.8332         94.9736 
         1.5708         84.0555         10.7299         94.4937 
        1.57695         83.6235         10.6277          94.021 
        1.58308         82.8586         10.5272          93.694 
        1.58922         82.5397         10.4278         93.2592 
        1.59535         82.1928         10.3298         92.8614 
         1.6015         81.5283         10.2329         92.3785 
        1.60764         81.1921         10.1373         91.9224 
        1.61376         80.9344         10.0432          91.621 
        1.61989         80.3094         9.95021         91.1815 
        1.62604          80.025         9.85819         90.5189 
        1.63218         79.2787         9.76739         90.0708 
        1.63831         79.0864         9.67794         89.9004 
        1.64444         78.3778         9.58958         89.5003 
        1.65059         77.9428         9.50211          89.042 
        1.65673         77.6329         9.41583         88.5879 
        1.66285         77.4385         9.33086         88.2154 
        1.66898         76.7722         9.24691         87.8891 
        1.67512         76.0514         9.16383         87.4324 
        1.68127         75.9146         9.08169         87.1041 
         1.6874           75.65         9.00074         86.7726 
        1.69353           74.92         8.92083         86.2223 
        1.69967         74.6294          8.8417          85.889 
        1.70581         74.1272         8.76356         85.5547 
        1.71193           73.83         8.68666         85.1219 
        1.71806         73.1309         8.61052          84.755 
        1.72421         72.7981         8.53515          84.457 
        1.73035         72.4844         8.46076          84.106 
        1.73649         72.1011         8.38727         83.6572 
        1.74262         71.5553         8.31472         83.2021 
        1.74876         71.1786         8.24297         82.8515 
        1.75489         71.0652         8.17222         82.5546 
        1.76101         70.5957         8.10233          82.241 
        1.76715         70.1316         8.03315         81.9106 
        1.77329         69.7345          7.9647         81.5051 
        1.77943         69.2699         7.89701         81.1138 
        1.78557         68.9442         7.83022         80.8092 
        1.79171         68.5272         7.76418         80.4408 
        1.79785         68.1704         7.69889         80.0401 
        1.80399         67.6835         7.63437         79.7134 
        1.81012         67.3583         7.57067         79.4255 
        1.81625         66.8753         7.50772         79.0701 
        1.82239         66.6599          7.4454         78.6747 
        1.82853         66.2187         7.38381         78.3455 
        1.83466         65.8403         7.32298         77.9841 
        1.84078         65.5514          7.2629         77.6417 
        1.84692         65.2105         7.20339         77.4385 
        1.85306         64.8953         7.14447         77.0262 
         1.8592         64.5994         7.08631         76.5744 
        1.86533         64.1034         7.02882         76.3939 
        1.87147         63.7269         6.97191         76.1213 
        1.87761         63.4019          6.9156         75.7384 
