# k  (h/Mpc)    Pcb(k)  (Mpc/h)^3    Pcb_linear(k) (Mpc/h)^3    Pcb_NL(k) (Mpc/h)^3   ShotnoiseSubtracted = false
     0.00783031         4442.57         4477.21         4437.38 
       0.013688         4912.29         4989.32         4957.48 
       0.019231         4574.83         4607.11         4581.02 
      0.0249154         3897.54         3879.02         3865.35 
      0.0312784          3047.7         3043.54         3044.06 
      0.0375637         2391.47         2396.33         2399.48 
      0.0433917         2003.75         1994.31          1997.4 
      0.0492413          1749.6          1748.3         1751.39 
      0.0555754         1601.65         1592.46         1593.16 
      0.0619321         1463.71          1479.9         1479.21 
       0.067871         1364.54          1366.7         1365.45 
      0.0738098         1229.41         1227.18         1224.18 
      0.0800417         1068.09         1060.44         1060.31 
      0.0862327         903.563         897.953         902.568 
      0.0921407         774.196         767.195         773.518 
      0.0982031          681.81         668.753          678.24 
       0.104506         608.778         604.039         614.988 
       0.110769         573.381         567.832         575.487 
       0.116806         555.533          546.13         551.722 
       0.122832          528.89         524.928         529.813 
       0.129052         500.246         494.871         498.773 
       0.135211         464.534         454.889         459.596 
       0.141259          416.91          409.63         416.287 
       0.147318         370.833         364.905         374.682 
       0.153489         334.337         325.982         334.775 
       0.159709         308.269         296.729         306.769 
       0.165845         283.991         277.573         289.363 
       0.171974         277.121         265.548         275.593 
       0.178125         266.988         256.934         267.291 
       0.184229         254.505          248.28         257.507 
        0.19034         245.702         237.191          245.48 
       0.196428         232.243         223.178          230.47 
       0.202534         212.585          207.17         215.371 
       0.208729         200.973         190.828         199.553 
       0.214876         188.123         176.324         187.228 
       0.220989         173.457          164.66         176.127 
       0.227147          167.34         155.854         167.045 
        0.23329          160.62         149.408         160.938 
       0.239377         156.264         144.327         155.258 
       0.245482         149.561         139.498         148.954 
       0.251667         142.802         134.106         144.013 
       0.257832         139.183         127.954         137.356 
       0.263955         130.352         121.266         130.515 
       0.270079         123.459         114.466         123.985 
        0.27624         116.858         108.057         117.473 
       0.282372         111.869         102.473         112.521 
        0.28843         109.383         97.8702         107.992 
       0.294538         104.316         94.0417         104.044 
       0.300721          99.887         90.7323         100.803 
        0.30691         97.8375         87.6743         97.6368 
       0.313033         93.6166         84.6429         94.0165 
       0.319153         91.5379         81.4789         90.7698 
       0.325316         87.3919         78.1576         87.6459 
        0.33145         83.9161          74.827         83.9905 
       0.337538           80.65         71.6382         80.6839 
       0.343633         77.8536         68.6813         77.9922 
       0.349808         74.9421         65.9994         75.5856 
       0.355968         72.5623         63.6235          73.519 
       0.362074          70.934         61.5132          71.024 
       0.368217          68.845         59.5429         68.4823 
       0.374374         66.9554         57.6408         66.5791 
       0.380519         64.1062          55.762          64.422 
       0.386598         62.1831         53.8991         62.6104 
       0.392688         59.9801         52.0506         60.7694 
        0.39888         58.7425         50.2199         58.8407 
       0.405048         57.0659         48.4811         57.0421 
       0.411186         55.4307         46.8656         55.6463 
       0.417313         53.7269         45.3692         53.8534 
       0.423458         52.1705         43.9741         52.4992 
       0.429607         51.0454         42.6658         51.0402 
       0.435692         50.1096         41.4298         49.7287 
       0.441815         48.1852         40.2222         48.6558 
       0.447964         46.4523         39.0383         47.2093 
       0.454126         45.6035         37.8789         45.8289 
       0.460267         44.9837         36.7529         44.9637 
       0.466387         43.6206         35.6707          43.641 
        0.47254         42.8968         34.6323         42.6663 
       0.478662          41.321          33.651         41.6265 
       0.484765         40.4202         32.7211         40.4317 
       0.490885         39.2138          31.834         39.7336 
       0.497035         38.6027         30.9816         38.9428 
       0.503198         37.7227         30.1593         37.8591 
       0.509342         36.5878         29.3642         37.0903 
       0.515458         35.9265         28.5947         36.4538 
       0.521598         35.0203         27.8457         35.3348 
       0.527764         34.4662         27.1183         34.4044 
       0.533884         33.7752         26.4218         33.7282 
           0.54         32.9287         25.7514          33.051 
       0.546137         31.9083         25.1045         32.4587 
       0.552299         31.2674         24.4808         31.5684 
       0.558452          30.551         23.8822         30.8967 
       0.564573         30.2033         23.3078         30.4418 
       0.570708         29.3565         22.7505         29.8305 
       0.576825          28.958         22.2114         29.1991 
       0.582926         28.4206         21.6897         28.6178 
       0.589034          27.765         21.1832         28.2006 
       0.595184         27.3408         20.6896         27.5047 
       0.601379         26.5941         20.2088         27.1151 
       0.607522         26.0448         19.7478         26.4268 
       0.613639         25.6729         19.3036         25.9896 
       0.619772         25.1058         18.8723         25.5471 
       0.625918         24.6529         18.4537         25.1182 
       0.632068         24.3485         18.0478         24.5909 
       0.638161         23.7841         17.6577         24.1616 
         0.6443         23.4397         17.2765         23.6736 
       0.650464         22.8074         16.9052         23.3039 
       0.656582         22.6273         16.5474          22.933 
       0.662703         22.2356         16.1998         22.4642 
       0.668861         21.6736         15.8601         22.1883 
       0.675024         21.3703           15.53         21.6876 
       0.681124         21.1919         15.2126         21.3355 
       0.687237         20.7246         14.9035         20.9676 
       0.693381         20.2997         14.6017         20.5813 
       0.699536          20.118         14.3078         20.3494 
       0.705665         19.6906         14.0234         20.0596 
       0.711789         19.3541          13.747         19.5983 
       0.717957          18.926         13.4763         19.3616 
        0.72409         18.7174         13.2145         19.0892 
       0.730186         18.5769         12.9612         18.7603 
       0.736317         18.1617         12.7133         18.4465 
       0.742472         17.9361         12.4709         18.2031 
       0.748622         17.5925         12.2351          17.894 
        0.75476         17.1685          12.006         17.6474 
       0.760888         17.1044         11.7831         17.4093 
       0.767043         16.7421          11.565         17.1714 
       0.773185         16.5045         11.3529         16.8977 
       0.779291         16.2883         11.1473         16.6859 
       0.785407         16.0472         10.9466         16.4075 
       0.791564         15.9182         10.7496          16.182 
       0.797719         15.5005         10.5575         15.9885 
       0.803834         15.4411         10.3714         15.7234 
       0.809972         15.1202         10.1891         15.5223 
       0.816124         14.9387         10.0109         15.2975 
       0.822261         14.7308         9.83738         15.0788 
       0.828378         14.5708         9.66854          14.849 
       0.834502         14.3816         9.50354         14.7006 
       0.840667         14.2048         9.34134          14.487 
       0.846816         13.8978          9.1834         14.2988 
       0.852925         13.8149         9.03012         14.1736 
       0.859047         13.6284         8.88004         13.9563 
       0.865192         13.4154         8.73289         13.7635 
       0.871341         13.2422         8.58899         13.6149 
       0.877463          13.052           8.449         13.4367 
       0.883569         12.9398          8.3125         13.2612 
       0.889708         12.7272         8.17833         13.0971 
       0.895864         12.5431         8.04679         12.9119 
       0.902008         12.4115         7.91843         12.7756 
       0.908149         12.2063         7.79295         12.6363 
       0.914301         12.1076            7.67         12.5341 
       0.920448         11.9354         7.54983         12.3202 
       0.926574         11.8174         7.43266         12.1658 
       0.932687         11.6303         7.31824         12.0016 
       0.938823         11.4567         7.20583         11.8633 
       0.944975         11.3758         7.09553         11.7481 
       0.951105         11.2402         6.98794          11.574 
       0.957225         11.1355         6.88279         11.4724 
       0.963368          10.943         6.77944         11.3317 
       0.969511         10.8233         6.67823         11.1992 
       0.975621         10.7215         6.57964          11.085 
       0.981748         10.5633         6.48279         10.9653 
       0.987916         10.4879         6.38728         10.8246 
        0.99406          10.323         6.29407         10.7149 
        1.00019         10.2436         6.20292         10.6071 
        1.00632         10.1564         6.11366         10.4987 
        1.01246         10.0049         6.02603         10.4073 
        1.01859         9.89547         5.94026         10.2901 
        1.02471         9.77797         5.85628          10.152 
        1.03085         9.71221         5.77364         10.0466 
        1.03698         9.61772         5.69277         9.94825 
        1.04314         9.47257         5.61312         9.83603 
        1.04929         9.33938         5.53517         9.75854 
        1.05541         9.27544         5.45903         9.68002 
        1.06154         9.18659         5.38413         9.54387 
        1.06769         9.07731         5.31053         9.43031 
        1.07382         8.95319         5.23854         9.35748 
        1.07993         8.87743         5.16805         9.26147 
        1.08607         8.79968         5.09858         9.17871 
        1.09222         8.69198         5.03031         9.10043 
        1.09836           8.609         4.96338         8.98859 
        1.10449         8.52916         4.89775         8.89673 
        1.11063          8.4668         4.83323         8.81861 
        1.11677         8.38899          4.7699         8.72104 
         1.1229         8.29152         4.70782         8.65712 
        1.12903         8.19742         4.64679         8.58035 
        1.13518         8.12208          4.5868         8.48688 
        1.14131         8.05248          4.5279          8.4049 
        1.14745          7.9219         4.47008         8.33503 
        1.15359         7.83604         4.41325         8.23927 
        1.15973         7.78763         4.35739         8.17273 
        1.16584          7.7019         4.30275         8.10601 
        1.17197          7.6119         4.24897          8.0564 
        1.17811         7.55711         4.19595          7.9399 
        1.18424         7.49122         4.14398         7.88034 
        1.19038         7.44717         4.09275         7.82151 
        1.19652         7.34386         4.04241         7.73418 
        1.20267         7.30719         3.99292           7.679 
        1.20881         7.19198         3.94427          7.6128 
        1.21495         7.15083          3.8965         7.54557 
        1.22108         7.08665         3.84954         7.48407 
         1.2272          7.0159         3.80347         7.41274 
        1.23334         6.97727         3.75804         7.35808 
        1.23949          6.9045         3.71325         7.28757 
        1.24562         6.81922         3.66932         7.22468 
        1.25174         6.79146         3.62616         7.16912 
        1.25789         6.71389         3.58357         7.10147 
        1.26402          6.6541         3.54174         7.04043 
        1.27014         6.61973         3.50067         6.98597 
        1.27628         6.53434         3.46014         6.91481 
        1.28244         6.50458         3.42017         6.87843 
        1.28858         6.42754         3.38089         6.81715 
        1.29471          6.3574         3.34231         6.76621 
        1.30084         6.30243         3.30437         6.72864 
        1.30697         6.27076         3.26696         6.65639 
        1.31312         6.21288         3.23008         6.60286 
        1.31925         6.16813         3.19389         6.56487 
        1.32537         6.10321         3.15829         6.51695 
        1.33151         6.05388          3.1231         6.46069 
        1.33765          6.0096         3.08847          6.3995 
        1.34378         5.97634         3.05444         6.35025 
        1.34992          5.9099         3.02089         6.31073 
        1.35606         5.85067         2.98778         6.25385 
         1.3622          5.8033         2.95522         6.20178 
        1.36833         5.77648         2.92323         6.17748 
        1.37445         5.72575         2.89173         6.11896 
        1.38059         5.66494         2.86059         6.06313 
        1.38675         5.63709         2.82984         6.03297 
        1.39288         5.58142         2.79967         5.98339 
        1.39901         5.52685         2.76995         5.93786 
        1.40515         5.48963         2.74059         5.89353 
         1.4113         5.44732         2.71167         5.85234 
        1.41742         5.41436         2.68328         5.81722 
        1.42355         5.35671         2.65524         5.77472 
         1.4297         5.31929         2.62752         5.72295 
        1.43585         5.28249          2.6002         5.69049 
        1.44198         5.25044         2.57338         5.64949 
        1.44809         5.20364         2.54699         5.60921 
        1.45423         5.15958         2.52087         5.56746 
        1.46036         5.12142         2.49517         5.52593 
        1.46649         5.08746         2.46981         5.49403 
        1.47263         5.04814         2.44479         5.46367 
        1.47877         5.00355         2.42012         5.41378 
        1.48491         4.97814         2.39576         5.37447 
        1.49104         4.93709         2.37178         5.34405 
        1.49718         4.90832         2.34812          5.3093 
        1.50333         4.87261         2.32474          5.2727 
        1.50947         4.83183         2.30172         5.23966 
         1.5156         4.80325         2.27905         5.20663 
        1.52172         4.75386         2.25669          5.1688 
        1.52787         4.74232         2.23458         5.12761 
          1.534         4.69577          2.2128         5.09505 
        1.54013         4.67215         2.19132         5.05786 
        1.54627         4.63076          2.1701         5.02344 
        1.55241         4.58269         2.14915         4.99534 
        1.55855         4.57041          2.1285         4.96074 
        1.56467         4.54606         2.10819         4.93397 
         1.5708         4.49914         2.08808         4.90827 
        1.57695         4.47031         2.06821         4.87127 
        1.58308         4.43736         2.04864         4.83935 
        1.58922         4.41493          2.0293         4.81758 
        1.59535         4.38619         2.01023         4.78895 
         1.6015         4.33192         1.99138         4.75286 
        1.60764         4.30968         1.97277         4.71916 
        1.61376         4.28964         1.95446         4.69392 
        1.61989         4.25299         1.93636         4.66956 
        1.62604         4.23779         1.91845         4.64028 
        1.63218         4.20555         1.90078         4.61324 
        1.63831         4.17445         1.88337         4.58739 
        1.64444         4.14152         1.86618         4.55418 
        1.65059         4.10975         1.84916         4.52626 
        1.65673         4.09688         1.83237         4.50254 
        1.66285         4.06176         1.81583         4.47516 
        1.66898         4.04562         1.79949         4.44235 
        1.67512         4.02094         1.78333         4.41671 
        1.68127         3.97471         1.76734         4.39427 
         1.6874         3.96563         1.75159         4.37155 
        1.69353         3.92361         1.73604         4.34654 
        1.69967         3.90876         1.72064         4.31662 
        1.70581         3.87869         1.70543          4.2915 
        1.71193         3.85757         1.69047         4.27192 
        1.71806         3.83077         1.67565         4.24909 
        1.72421         3.80514         1.66098         4.22389 
        1.73035         3.79042          1.6465         4.20007 
        1.73649         3.76704          1.6322          4.1768 
        1.74262         3.72809         1.61808         4.14989 
        1.74876         3.71798         1.60412         4.12574 
        1.75489         3.69657         1.59035         4.10093 
        1.76101         3.65883         1.57675         4.07536 
        1.76715         3.65708         1.56329         4.05973 
        1.77329         3.62227         1.54997         4.03773 
        1.77943         3.59086          1.5368         4.01076 
        1.78557         3.59243          1.5238         3.98879 
        1.79171         3.55909         1.51095         3.96502 
        1.79785         3.54323         1.49824         3.94174 
        1.80399         3.52155         1.48569         3.92425 
        1.81012          3.4941         1.47329         3.90809 
        1.81625         3.47482         1.46104         3.88847 
        1.82239         3.45471         1.44891         3.86712 
        1.82853         3.42447         1.43693         3.84839 
        1.83466         3.40126         1.42509         3.82931 
        1.84078         3.38219          1.4134         3.80811 
        1.84692         3.37049         1.40182         3.78546 
        1.85306         3.34745         1.39035         3.76173 
         1.8592         3.33334         1.37903         3.74123 
        1.86533          3.3103         1.36784         3.72453 
        1.87147         3.29638         1.35677         3.70427 
