# k  (h/Mpc)    P(k)  (Mpc/h)^3    P_linear(k)  (Mpc/h)^3     P_NL(k)  ShotnoiseSubtracted = false
     0.00783031          3944.7         3975.82         3940.47 
       0.013688         4364.55         4430.68         4402.58 
       0.019231         4063.97         4091.31         4068.37 
      0.0249154         3460.47         3444.75          3432.9 
      0.0312784         2706.86         2702.82         2703.61 
      0.0375637         2124.36         2128.07         2131.05 
      0.0433917         1779.36         1771.06            1774 
      0.0492413         1553.85         1552.59         1555.48 
      0.0555754         1422.12          1414.2         1414.89 
      0.0619321         1300.59         1314.23         1313.66 
       0.067871         1211.96         1213.71         1212.58 
      0.0738098         1091.64         1089.81          1087.3 
      0.0800417         948.161         941.729         941.609 
      0.0862327          802.08         797.435         801.197 
      0.0921407         686.961         681.314         686.499 
      0.0982031         604.646         593.892          601.63 
       0.104506         540.092         536.421         545.307 
       0.110769         508.621         504.268         510.467 
       0.116806         492.632         484.996         489.479 
       0.122832         469.188         466.168         470.056 
       0.129052         443.804         439.474         442.556 
       0.135211          411.78         403.969          407.71 
       0.141259         369.584         363.776           369.1 
       0.147318         328.674         324.057         331.923 
       0.153489         296.148         289.492         296.571 
       0.159709         272.756         263.513         271.595 
       0.165845         251.439         246.501          255.99 
       0.171974         245.147         235.822         243.886 
       0.178125          236.19         228.173         236.478 
       0.184229         225.381         220.487         227.884 
        0.19034         217.483          210.64         217.275 
       0.196428         205.428         198.195         204.012 
       0.202534         188.123         183.979         190.532 
       0.208729         177.546         169.466         176.468 
       0.214876         166.096         156.585         165.351 
       0.220989         153.166         146.228         155.444 
       0.227147          147.64         138.408         147.386 
        0.23329         141.699         132.683         141.934 
       0.239377         137.754         128.171         136.946 
       0.245482         131.945         123.882          131.45 
       0.251667          125.98         119.094          127.03 
       0.257832         122.655         113.631         121.162 
       0.263955         114.921         107.691         115.094 
       0.270079         108.806         101.653         109.268 
        0.27624         102.925         95.9614         103.493 
       0.282372         98.4459          91.002         99.0642 
        0.28843         96.1317         86.9145         95.0376 
       0.294538         91.7397         83.5146         91.5289 
       0.300721         87.8222         80.5758         88.6448 
        0.30691         85.9761           77.86         85.8381 
       0.313033         82.3269         75.1678         82.6674 
       0.319153         80.4668          72.358         79.7966 
       0.325316         76.7213         69.4086         77.0113 
        0.33145         73.6296         66.4508         73.7935 
       0.337538         70.7722          63.619         70.8641 
       0.343633         68.3192         60.9931         68.4296 
       0.349808         65.7275         58.6115         66.2811 
       0.355968         63.5855         56.5011         64.4456 
       0.362074         62.1743         54.6274         62.2426 
       0.368217         60.2898         52.8777         60.0152 
       0.374374         58.6518         51.1884         58.3419 
       0.380519         56.1641         49.5203         56.4395 
       0.386598         54.4249         47.8655         54.8247 
       0.392688         52.4907         46.2241         53.1977 
        0.39888         51.3814         44.5982         51.4989 
       0.405048         49.9053         43.0541         49.8752 
       0.411186         48.4181         41.6194         48.6519 
       0.417313         46.9138         40.2905         47.0814 
       0.423458          45.525         39.0517         45.8781 
       0.429607         44.5657         37.8897          44.579 
       0.435692         43.7277         36.7922         43.4303 
       0.441815         42.0253         35.7196         42.4693 
       0.447964         40.5074         34.6684         41.1942 
       0.454126         39.7714         33.6387         39.9965 
       0.460267         39.2009         32.6388         39.2083 
       0.466387         38.0023         31.6777         38.0407 
        0.47254         37.3462         30.7555         37.1766 
       0.478662         35.9875         29.8841         36.2508 
       0.484765         35.1767         29.0583         35.2176 
       0.490885          34.109         28.2704         34.5972 
       0.497035         33.5351         27.5135         33.8922 
       0.503198         32.7826         26.7833         32.9292 
       0.509342          31.779         26.0771         32.2479 
       0.515458         31.2083         25.3938          31.681 
       0.521598          30.427         24.7286         30.7045 
       0.527764         29.9259         24.0826         29.8923 
       0.533884           29.27         23.4641         29.2848 
           0.54          28.565         22.8688         28.6849 
       0.546137          27.663         22.2943         28.1598 
       0.552299         27.1091         21.7404         27.3802 
       0.558452         26.4716         21.2089         26.7971 
       0.564573         26.1477         20.6987         26.3931 
       0.570708         25.4303         20.2038         25.8502 
       0.576825         25.0653         19.7251         25.2964 
       0.582926         24.5778         19.2617         24.7896 
       0.589034         24.0098          18.812          24.416 
       0.595184         23.6472         18.3736         23.7904 
       0.601379         22.9892         17.9466         23.4598 
       0.607522         22.5173         17.5372         22.8651 
       0.613639         22.1697         17.1427         22.4669 
       0.619772         21.6876         16.7598         22.0893 
       0.625918         21.2721          16.388         21.6981 
       0.632068         21.0168         16.0275         21.2352 
       0.638161         20.5238         15.6811         20.8569 
         0.6443         20.2044         15.3426         20.4303 
       0.650464         19.6594         15.0128         20.1219 
       0.656582         19.4932         14.6951         19.7825 
       0.662703         19.1601         14.3864         19.3753 
       0.668861         18.6651         14.0847         19.1337 
       0.675024         18.3818         13.7915         18.6926 
       0.681124         18.2464         13.5097         18.3832 
       0.687237         17.8376         13.2352          18.055 
       0.693381         17.4499         12.9671         17.7204 
       0.699536         17.2982         12.7062         17.5046 
       0.705665         16.9193         12.4536         17.2594 
       0.711789         16.6248         12.2082         16.8638 
       0.717957         16.2456         11.9678         16.6405 
        0.72409         16.0712         11.7352         16.4045 
       0.730186         15.9493         11.5103         16.1137 
       0.736317         15.5824         11.2901         15.8413 
       0.742472         15.3884         11.0749         15.6352 
       0.748622         15.0896         10.8655         15.3631 
        0.75476         14.7078          10.662         15.1426 
       0.760888         14.6461         10.4641         14.9375 
       0.767043         14.3386         10.2704         14.7236 
       0.773185         14.1343          10.082         14.4846 
       0.779291         13.9557         9.89948            14.3 
       0.785407         13.7374         9.72122         14.0592 
       0.791564         13.6083         9.54625         13.8636 
       0.797719         13.2545          9.3757         13.6823 
       0.803834         13.2019         9.21042         13.4547 
       0.809972          12.919         9.04855         13.2872 
       0.816124         12.7602         8.89025         13.0835 
       0.822261         12.5846         8.73618         12.8945 
       0.828378         12.4361         8.58624         12.6998 
       0.834502         12.2729         8.43971         12.5627 
       0.840667         12.1203         8.29567         12.3735 
       0.846816         11.8472         8.15541         12.2112 
       0.852925         11.7805         8.01929         12.1015 
       0.859047         11.6063           7.886         11.9152 
       0.865192         11.4274         7.75532         11.7463 
       0.871341         11.2757         7.62754         11.6162 
       0.877463         11.1098         7.50322         11.4583 
       0.883569         11.0115           7.382         11.3013 
       0.889708         10.8227         7.26285         11.1622 
       0.895864         10.6658         7.14603         11.0023 
       0.902008         10.5481         7.03203         10.8838 
       0.908149         10.3691          6.9206         10.7541 
       0.914301         10.2856         6.81142         10.6681 
       0.920448         10.1339          6.7047         10.4822 
       0.926574         10.0381         6.60064         10.3516 
       0.932687         9.87159         6.49903         10.1981 
       0.938823         9.72416          6.3992         10.0871 
       0.944975          9.6566         6.30125         9.98688 
       0.951105         9.52846         6.20571         9.82944 
       0.957225         9.44324         6.11232         9.74777 
       0.963368         9.27423         6.02055         9.62191 
       0.969511         9.16915         5.93067         9.51043 
       0.975621          9.0773         5.84311         9.40496 
       0.981748         8.94247          5.7571          9.3005 
       0.987916         8.87464         5.67229         9.17857 
        0.99406         8.73801         5.58951         9.08614 
        1.00019         8.66594         5.50856         8.99484 
        1.00632         8.58995         5.42929         8.89659 
        1.01246         8.45995         5.35147         8.82169 
        1.01859         8.36386         5.27531         8.71289 
        1.02471         8.25749         5.20073         8.58853 
        1.03085         8.20297         5.12734         8.50253 
        1.03698         8.11768         5.05552         8.41966 
        1.04314          7.9938         4.98478         8.32167 
        1.04929         7.88059         4.91557         8.25091 
        1.05541         7.82052         4.84794         8.18053 
        1.06154         7.74169         4.78143         8.06711 
        1.06769         7.65972         4.71606          7.9709 
        1.07382         7.54142         4.65214         7.90463 
        1.07993          7.4769         4.58954         7.82143 
        1.08607         7.41314         4.52784         7.74955 
        1.09222         7.31644         4.46722         7.67817 
        1.09836          7.2538         4.40778          7.5786 
        1.10449         7.17017         4.34949         7.50307 
        1.11063         7.12314          4.2922         7.43585 
        1.11677         7.05163         4.23596         7.35178 
         1.1229         6.97232         4.18083         7.29549 
        1.12903         6.89304         4.12663         7.23234 
        1.13518         6.81853         4.07335          7.1507 
        1.14131         6.75854         4.02105         7.07746 
        1.14745          6.6472         3.96969         7.01409 
        1.15359         6.57602         3.91923          6.9363 
        1.15973         6.53079         3.86962         6.87419 
        1.16584         6.46065          3.8211          6.8191 
        1.17197         6.38327         3.77334          6.7724 
        1.17811          6.3324         3.72625         6.67701 
        1.18424         6.27945         3.68011          6.6228 
        1.19038         6.23835         3.63461         6.56805 
        1.19652          6.1562          3.5899         6.49698 
        1.20267         6.11846         3.54595         6.44732 
        1.20881         6.02001         3.50274         6.39181 
        1.21495         5.98396         3.46033         6.33291 
        1.22108         5.92498         3.41862         6.28053 
         1.2272         5.86591         3.37771         6.21472 
        1.23334         5.83381         3.33736         6.16893 
        1.23949         5.76948         3.29759         6.11272 
        1.24562          5.7017         3.25857         6.05607 
        1.25174         5.67422         3.22025         6.00695 
        1.25789         5.59889         3.18242         5.94713 
        1.26402         5.55407         3.14527         5.89678 
        1.27014         5.52478         3.10881         5.84978 
        1.27628         5.45034         3.07281         5.78895 
        1.28244         5.42291         3.03732         5.75428 
        1.28858         5.36125         3.00243         5.70218 
        1.29471         5.29923         2.96817         5.66011 
        1.30084         5.25285         2.93448          5.6261 
        1.30697         5.22711         2.90126         5.56235 
        1.31312          5.1734         2.86851         5.51782 
        1.31925         5.13321         2.83636         5.48635 
        1.32537         5.08132         2.80475         5.44412 
        1.33151         5.03812          2.7735         5.39489 
        1.33765          4.9953         2.74275         5.34189 
        1.34378         4.97321         2.71252         5.29971 
        1.34992         4.91606         2.68273         5.26505 
        1.35606         4.86693         2.65333         5.21727 
         1.3622         4.82333         2.62441         5.17113 
        1.36833         4.79821           2.596         5.15135 
        1.37445           4.754         2.56803         5.10149 
        1.38059         4.70141         2.54038          5.0524 
        1.38675         4.67563         2.51307         5.02537 
        1.39288         4.63258         2.48627         4.98664 
        1.39901         4.58446         2.45988         4.94651 
        1.40515         4.55125         2.43381         4.90767 
         1.4113         4.51543         2.40813         4.87202 
        1.41742         4.48893         2.38291         4.84003 
        1.42355         4.43821         2.35801         4.80373 
         1.4297         4.40516         2.33339         4.76116 
        1.43585         4.37687         2.30914         4.73276 
        1.44198         4.34373         2.28532         4.69564 
        1.44809         4.30528         2.26188         4.66104 
        1.45423         4.26814         2.23868         4.62806 
        1.46036         4.23782         2.21586         4.59256 
        1.46649         4.20851         2.19334         4.56344 
        1.47263         4.17441         2.17112         4.53579 
        1.47877         4.13784         2.14921         4.49261 
        1.48491          4.1154         2.12758         4.46214 
        1.49104         4.07958         2.10628         4.43625 
        1.49718         4.05486         2.08527         4.40373 
        1.50333         4.02095         2.06451         4.37215 
        1.50947         3.98752         2.04407         4.34403 
         1.5156         3.96294         2.02394         4.31621 
        1.52172         3.92295         2.00408         4.28491 
        1.52787         3.90946         1.98444         4.24771 
          1.534         3.87056         1.96509         4.22074 
        1.54013         3.85281         1.94603         4.18977 
        1.54627         3.81644         1.92717         4.16054 
        1.55241         3.77725         1.90857          4.1366 
        1.55855         3.76509         1.89024          4.1045 
        1.56467         3.74556          1.8722         4.08208 
         1.5708         3.70154         1.85434         4.06133 
        1.57695         3.67695         1.83669         4.02832 
        1.58308         3.64775         1.81931         4.00034 
        1.58922         3.63272         1.80214          3.9827 
        1.59535         3.60706         1.78521         3.95919 
         1.6015         3.56153         1.76846         3.92796 
        1.60764         3.54332         1.75194         3.89886 
        1.61376         3.52525         1.73567         3.87752 
        1.61989          3.4925          1.7196         3.85553 
        1.62604          3.4795          1.7037         3.83036 
        1.63218         3.45313         1.68801         3.80803 
        1.63831         3.42681         1.67255         3.78572 
        1.64444         3.39942         1.65728         3.75631 
        1.65059         3.37366         1.64216         3.73329 
        1.65673           3.361         1.62725          3.7126 
        1.66285         3.33256         1.61257         3.68892 
        1.66898         3.31625         1.59806         3.66243 
        1.67512         3.29409          1.5837         3.64058 
        1.68127         3.25675          1.5695         3.62088 
         1.6874         3.24536         1.55552         3.60232 
        1.69353          3.2147          1.5417          3.5827 
        1.69967         3.20008         1.52803         3.55472 
        1.70581         3.17422         1.51453          3.5328 
        1.71193          3.1575         1.50124         3.51739 
        1.71806         3.13367         1.48808         3.49532 
        1.72421         3.11236         1.47505         3.47381 
        1.73035         3.09763         1.46219         3.45383 
        1.73649         3.07822         1.44949         3.43347 
        1.74262          3.0475         1.43696         3.41258 
        1.74876         3.03789         1.42456         3.39268 
        1.75489          3.0183         1.41233          3.3709 
        1.76101         2.98846         1.40025         3.34859 
        1.76715          2.9858          1.3883         3.33449 
        1.77329         2.95753         1.37647         3.31631 
        1.77943          2.9299         1.36477         3.29412 
        1.78557         2.92997         1.35322          3.2749 
        1.79171         2.90278         1.34181         3.25457 
        1.79785         2.89012         1.33053         3.23496 
        1.80399         2.86836         1.31938         3.21974 
        1.81012         2.84935         1.30837         3.20572 
        1.81625         2.83052         1.29749         3.18868 
        1.82239         2.81502         1.28672         3.17042 
        1.82853         2.79083         1.27608         3.15525 
        1.83466         2.76881         1.26556         3.13906 
        1.84078         2.75375         1.25518         3.12039 
        1.84692          2.7406          1.2449         3.10129 
        1.85306         2.72217         1.23471         3.08115 
         1.8592         2.71058         1.22466         3.06369 
        1.86533         2.69284         1.21473         3.04998 
        1.87147         2.68126         1.20489         3.03271 
        1.87761         2.66095         1.19516         3.01661 
