# k  (h/Mpc)    Pcb(k)  (Mpc/h)^3    Pcb_linear(k) (Mpc/h)^3    Pcb_NL(k) (Mpc/h)^3   ShotnoiseSubtracted = false
     0.00783031         27388.3         27549.5         27277.7 
       0.013688         29814.5         30777.8         30515.2 
       0.019231         27916.5         28433.1         28188.4 
      0.0249154           24132         23943.1         23751.4 
      0.0312784           18672         18787.2         18664.8 
      0.0375637         14612.8         14792.4         14738.5 
      0.0433917         12341.4         12310.8         12251.2 
      0.0492413         10761.2         10792.2         10744.8 
      0.0555754         9871.94         9830.23         9793.06 
      0.0619321         8867.96         9135.35         9095.18 
       0.067871         8318.79         8436.61         8411.61 
      0.0738098         7587.45         7575.34         7480.68 
      0.0800417         6628.04         6546.02         6526.37 
      0.0862327         5644.73            5543         5657.45 
      0.0921407         4937.57         4735.84         4892.37 
      0.0982031         4422.07         4128.15         4382.69 
       0.104506         3933.41         3728.68         4037.54 
       0.110769         3714.74         3505.17         3733.36 
       0.116806         3591.65         3371.21         3549.11 
       0.122832         3414.57         3240.33         3396.18 
       0.129052          3182.5         3054.78         3189.03 
       0.135211         3047.33         2807.98         2954.99 
       0.141259         2740.22          2528.6         2737.03 
       0.147318         2493.47         2252.51         2531.59 
       0.153489         2292.38         2012.25         2277.17 
       0.159709          2184.2         1831.67         2136.46 
       0.165845         2011.41         1713.42         2056.78 
       0.171974         1959.84         1639.19         1954.55 
       0.178125         1904.08         1586.02         1905.38 
       0.184229         1756.72          1532.6         1814.43 
        0.19034         1726.86         1464.15         1725.63 
       0.196428         1662.57         1377.64         1635.05 
       0.202534          1546.2         1278.83         1555.89 
       0.208729         1503.49         1177.95         1451.59 
       0.214876         1415.45         1088.42         1404.58 
       0.220989         1343.97         1016.42         1352.72 
       0.227147         1300.61         962.061         1307.41 
        0.23329         1247.74         922.273          1271.5 
       0.239377          1241.4         890.909         1222.05 
       0.245482         1180.06           861.1         1170.55 
       0.251667         1137.58         827.815         1138.87 
       0.257832         1111.26         789.842         1090.77 
       0.263955         1056.62         748.555         1049.56 
       0.270079          1022.5         706.582         1012.58 
        0.27624           978.8         667.019         974.647 
       0.282372         964.436         632.548         952.733 
        0.28843         940.643         604.137         931.547 
       0.294538         898.154         580.505         901.511 
       0.300721         880.456         560.076         875.078 
        0.30691         854.171         541.199         862.794 
       0.313033         820.388         522.487          831.76 
       0.319153         811.589         502.956         806.784 
       0.325316         796.932         482.454         787.967 
        0.33145         775.614         461.895         758.089 
       0.337538          748.74         442.211         741.406 
       0.343633         731.352         423.958         730.429 
       0.349808         715.371         407.403         717.085 
       0.355968         700.177         392.737         700.396 
       0.362074         675.882         379.711         687.147 
       0.368217          671.02         367.549         669.658 
       0.374374         660.648         355.807           654.1 
       0.380519         636.054         344.209         638.931 
       0.386598         630.149          332.71         631.223 
       0.392688         612.565           321.3         615.416 
        0.39888          601.67         309.999         601.721 
       0.405048         585.647         299.266          589.09 
       0.411186         585.453         289.294         578.144 
       0.417313         575.142         280.057          568.47 
       0.423458         561.999         271.445         557.711 
       0.429607         545.419         263.369         549.108 
       0.435692         537.505         255.739         533.748 
       0.441815         528.007         248.285         529.716 
       0.447964         519.384         240.977          522.82 
       0.454126         512.117          233.82         507.678 
       0.460267         505.419         226.869          504.46 
       0.466387         492.541         220.189         496.208 
        0.47254         489.402         213.779         487.334 
       0.478662         477.991         207.722         478.292 
       0.484765         471.041         201.982         471.873 
       0.490885         468.565         196.506         462.478 
       0.497035         456.006         191.244         457.267 
       0.503198         454.524         186.168          451.61 
       0.509342         445.948          181.26         443.217 
       0.515458         437.442          176.51         438.066 
       0.521598          435.08         171.887         432.737 
       0.527764         425.455         167.397         428.795 
       0.533884         419.166         163.097          423.03 
           0.54         416.321         158.959         416.311 
       0.546137         409.042         154.966         411.371 
       0.552299          405.82         151.116         405.493 
       0.558452         399.179         147.421         401.005 
       0.564573         398.347         143.875         397.209 
       0.570708         390.612         140.435         391.693 
       0.576825          384.58         137.107         385.382 
       0.582926         382.857         133.887         382.496 
       0.589034         375.494         130.761          377.07 
       0.595184         372.381         127.713         371.653 
       0.601379         365.884         124.745         367.355 
       0.607522         359.811           121.9         361.396 
       0.613639         358.365         119.157         360.703 
       0.619772         355.608         116.496         358.359 
       0.625918         349.398         113.912         352.495 
       0.632068          347.97         111.406         349.917 
       0.638161         342.832         108.998         346.258 
         0.6443         338.565         106.645         341.698 
       0.650464         335.563         104.353         336.256 
       0.656582         331.408         102.144         334.094 
       0.662703         330.043         99.9983         331.092 
       0.668861         324.163         97.9019         329.593 
       0.675024         322.924         95.8639         326.224 
       0.681124         315.756         93.9046         321.465 
       0.687237         315.069         91.9967         317.969 
       0.693381         310.677         90.1335         314.795 
       0.699536         309.968         88.3194         312.789 
       0.705665         305.261         86.5637         307.868 
       0.711789         302.775          84.858         306.297 
       0.717957          300.29          83.187          305.01 
        0.72409         296.547         81.5707         300.546 
       0.730186         296.683         80.0074         297.323 
       0.736317         291.486         78.4768         295.799 
       0.742472         289.367         76.9807         293.629 
       0.748622         288.165         75.5253         290.003 
        0.75476         283.826         74.1108         290.068 
       0.760888         282.765         72.7348         286.275 
       0.767043         279.315         71.3885         282.955 
       0.773185         276.212         70.0792         281.096 
       0.779291         274.314         68.8104         278.248 
       0.785407         272.524         67.5713         276.026 
       0.791564         270.808         66.3551         274.029 
       0.797719         266.659         65.1696         271.843 
       0.803834         265.501         64.0208          270.14 
       0.809972         261.948         62.8957         267.633 
       0.816124         260.423         61.7953         265.049 
       0.822261         257.995         60.7244         264.017 
       0.828378           256.5         59.6822         261.531 
       0.834502          253.06         58.6637         259.652 
       0.840667         251.765         57.6624         257.397 
       0.846816         249.415         56.6875         255.684 
       0.852925          249.28         55.7413         253.862 
       0.859047         244.966         54.8149         251.383 
       0.865192         244.138         53.9066         249.283 
       0.871341         241.956         53.0183         247.507 
       0.877463         240.411         52.1542         246.309 
       0.883569         239.166         51.3116         245.916 
       0.889708         236.597         50.4834         242.597 
       0.895864         233.775         49.6714         241.506 
       0.902008          232.51          48.879         238.953 
       0.908149         229.691         48.1045         237.111 
       0.914301         229.118         47.3455         235.178 
       0.920448          226.15         46.6037         234.211 
       0.926574         224.798         45.8805          232.62 
       0.932687         223.946         45.1742         230.303 
       0.938823         221.917         44.4803         230.006 
       0.944975         221.532         43.7994         228.022 
       0.951105         219.291         43.1353         226.567 
       0.957225         217.179         42.4862         224.741 
       0.963368         216.806         41.8483         223.229 
       0.969511         213.997         41.2235         221.928 
       0.975621         211.768         40.6149           220.4 
       0.981748         210.961         40.0171           219.6 
       0.987916         209.628         39.4276         217.685 
        0.99406         207.672         38.8522         216.355 
        1.00019         205.776         38.2895         214.846 
        1.00632         204.982         37.7385         213.136 
        1.01246         203.509         37.1976          211.59 
        1.01859          201.83         36.6682         210.589 
        1.02471         200.299         36.1498         209.174 
        1.03085         199.495         35.6396         208.132 
        1.03698         197.496         35.1405         207.374 
        1.04314         196.669         34.6488         205.609 
        1.04929         195.053         34.1676         204.013 
        1.05541         194.774         33.6976         203.043 
        1.06154         192.669         33.2353         202.228 
        1.06769         191.332         32.7809         200.786 
        1.07382         189.264         32.3366         199.543 
        1.07993         188.967         31.9015         198.481 
        1.08607         187.524         31.4726         196.896 
        1.09222         186.099         31.0512          195.87 
        1.09836         184.635          30.638         194.832 
        1.10449         183.776         30.2329         194.226 
        1.11063         182.653         29.8347          192.52 
        1.11677         180.856         29.4437         191.422 
         1.1229         180.447         29.0605         190.186 
        1.12903          178.39         28.6838         188.979 
        1.13518         177.172         28.3135         187.911 
        1.14131         176.112         27.9499         187.027 
        1.14745         175.208          27.593         185.404 
        1.15359         173.758         27.2422         184.986 
        1.15973         173.105         26.8974         183.688 
        1.16584         172.076         26.5601         183.248 
        1.17197          171.01         26.2281         182.061 
        1.17811         168.988         25.9008         180.726 
        1.18424         168.339         25.5801         179.672 
        1.19038         167.267         25.2638         179.182 
        1.19652         165.791         24.9531         177.508 
        1.20267         164.706         24.6476          177.16 
        1.20881         164.046         24.3472         176.017 
        1.21495         162.901         24.0524         174.894 
        1.22108         161.664         23.7625         173.973 
         1.2272         160.784         23.4781         173.369 
        1.23334         159.454         23.1977         172.333 
        1.23949          159.12         22.9212         171.265 
        1.24562         157.605           22.65         169.968 
        1.25174         156.983         22.3836         169.199 
        1.25789         155.735         22.1207         168.134 
        1.26402         154.787         21.8625         167.579 
        1.27014         153.929          21.609         166.624 
        1.27628         153.085         21.3588         166.247 
        1.28244         151.857         21.1121         165.118 
        1.28858         150.946         20.8696         164.366 
        1.29471         149.875         20.6315         163.496 
        1.30084         149.165         20.3973         162.244 
        1.30697          148.15         20.1664         161.433 
        1.31312         147.706         19.9387         160.594 
        1.31925         146.501         19.7153         159.914 
        1.32537         145.905         19.4955         159.057 
        1.33151         144.544         19.2783         158.328 
        1.33765          144.09         19.0646         157.541 
        1.34378         143.046         18.8545         156.637 
        1.34992         142.125         18.6474         155.824 
        1.35606         141.273          18.443         154.845 
         1.3622         140.248          18.242         154.476 
        1.36833         139.746         18.0446         153.551 
        1.37445         138.809         17.8501         152.545 
        1.38059         137.608         17.6579         151.951 
        1.38675         136.582         17.4681         151.009 
        1.39288         135.978         17.2818         150.517 
        1.39901         135.387         17.0984         149.702 
        1.40515         134.234         16.9172         148.771 
         1.4113         133.789         16.7386          147.97 
        1.41742         132.714         16.5634         147.317 
        1.42355         131.755         16.3903         146.578 
         1.4297         131.005         16.2192         145.852 
        1.43585          130.53         16.0506         145.367 
        1.44198          129.59          15.885          144.69 
        1.44809         129.093         15.7221          143.77 
        1.45423         128.129         15.5609         143.033 
        1.46036          127.52         15.4022         142.336 
        1.46649         126.474         15.2457          141.72 
        1.47263         126.148         15.0912         141.061 
        1.47877         124.918          14.939         140.085 
        1.48491         124.263         14.7886         139.445 
        1.49104         123.541         14.6406         138.954 
        1.49718         122.517         14.4945         138.299 
        1.50333         121.889         14.3502         137.453 
        1.50947         121.074         14.2081         136.794 
         1.5156         120.478         14.0682         136.322 
        1.52172         119.853         13.9301         135.771 
        1.52787         118.995         13.7937         134.954 
          1.534         118.493         13.6592         134.309 
        1.54013         118.171         13.5266         133.854 
        1.54627         117.032         13.3956         133.266 
        1.55241         116.439         13.2663         132.535 
        1.55855         115.587         13.1388         131.798 
        1.56467          115.02         13.0134         131.185 
         1.5708         114.666         12.8893         130.518 
        1.57695         113.794         12.7666          129.91 
        1.58308         112.939         12.6458         129.435 
        1.58922         112.289         12.5265          128.85 
        1.59535          111.54         12.4088         128.206 
         1.6015         110.891         12.2924         127.655 
        1.60764         110.324         12.1775         127.043 
        1.61376         109.754         12.0645         126.389 
        1.61989          109.11         11.9528         125.923 
        1.62604         108.694         11.8422         125.155 
        1.63218         107.587         11.7332         124.487 
        1.63831         107.134         11.6257         124.105 
        1.64444         106.744         11.5196         123.548 
        1.65059         105.764         11.4145         122.962 
        1.65673         105.269         11.3108         122.321 
        1.66285         104.926         11.2088          121.81 
        1.66898         104.171         11.1079         121.442 
        1.67512         103.229         11.0081         120.787 
        1.68127         102.947         10.9095         120.198 
         1.6874         102.279         10.8122         119.715 
        1.69353          101.51         10.7162         119.154 
        1.69967         101.159         10.6212         118.647 
        1.70581          100.27         10.5273         118.085 
        1.71193          99.997         10.4349         117.496 
        1.71806         99.3402         10.3435         117.039 
        1.72421         98.5966         10.2529         116.598 
        1.73035         98.2957         10.1636         116.084 
        1.73649         97.7551         10.0753         115.455 
        1.74262         96.9597         9.98813         114.746 
        1.74876         96.3031         9.90194         114.244 
        1.75489         95.9592         9.81695         113.893 
        1.76101         95.5681         9.73299         113.494 
        1.76715         95.0151         9.64989          112.94 
        1.77329         94.4458         9.56766         112.417 
        1.77943         93.6247         9.48636         111.983 
        1.78557         93.0404         9.40612         111.535 
        1.79171         92.5359         9.32679         110.948 
        1.79785         91.9971         9.24836         110.381 
        1.80399         91.4482         9.17085         110.006 
        1.81012          91.044         9.09433         109.588 
        1.81625         90.3018         9.01872         109.063 
        1.82239         89.9719         8.94385         108.549 
        1.82853         89.4642         8.86987         108.112 
        1.83466         88.9765         8.79679         107.617 
        1.84078         88.5704         8.72462         107.112 
        1.84692         87.8624         8.65313          106.75 
        1.85306         87.2738         8.58236         106.249 
         1.8592         86.7749         8.51249         105.699 
        1.86533         86.2372         8.44344         105.324 
        1.87147          85.891         8.37507         104.877 
