# k  (h/Mpc)    P(k)  (Mpc/h)^3    P_linear(k)  (Mpc/h)^3     P_NL(k)  ShotnoiseSubtracted = false
     0.00783031         51.8229         52.2151         52.1678 
       0.013688         69.5596         69.8619         69.6452 
       0.019231         75.3786         75.4885         75.1605 
      0.0249154         73.9143         74.1588         73.9338 
      0.0312784         68.1643         68.2303         68.1405 
      0.0375637         61.0839         61.0352          60.996 
      0.0433917         54.9534         54.9395         54.9438 
      0.0492413         50.1108         50.0618         50.0744 
      0.0555754         46.1725         46.1784         46.1772 
      0.0619321         43.3436         43.2839         43.2725 
       0.067871         40.9148         40.9429         40.9119 
      0.0738098         38.4794         38.5263          38.479 
      0.0800417         35.6186         35.6871          35.645 
      0.0862327         32.5647         32.5975           32.57 
      0.0921407         29.6026         29.6113         29.5977 
      0.0982031         26.7588         26.7749         26.7771 
       0.104506         24.3242         24.2921         24.3044 
       0.110769         22.4136         22.3881         22.3966 
       0.116806         21.0246         21.0408          21.041 
       0.122832         20.0454         20.0404         20.0384 
       0.129052         19.1617         19.1876         19.1802 
       0.135211         18.3145         18.3536         18.3427 
       0.141259         17.4178          17.438         17.4295 
       0.147318         16.3995          16.398         16.3963 
       0.153489         15.2479         15.2584         15.2559 
       0.159709         14.1122         14.1188         14.1249 
       0.165845          13.123         13.0955         13.1131 
       0.171974         12.2315         12.2358         12.2534 
       0.178125         11.5546         11.5549         11.5787 
       0.184229         11.0469          11.037         11.0602 
        0.19034         10.6077          10.626          10.647 
       0.196428         10.2564         10.2632         10.2775 
       0.202534         9.90752         9.89295         9.90775 
       0.208729         9.47583          9.4778         9.49196 
       0.214876         9.00402         9.02078         9.04234 
       0.220989         8.55549         8.53963         8.56497 
       0.227147         8.04706         8.05923         8.08561 
        0.23329         7.60612         7.61569         7.64901 
       0.239377         7.22775         7.23315         7.27061 
       0.245482         6.90405         6.91365         6.94808 
       0.251667         6.65317         6.64847         6.68604 
       0.257832          6.4217         6.42566         6.46221 
       0.263955         6.22333         6.22446         6.25871 
       0.270079         6.02436         6.02419         6.05659 
        0.27624         5.82363         5.81209         5.84257 
       0.282372          5.5973         5.58726         5.62036 
        0.28843         5.35648          5.3567         5.39125 
       0.294538         5.12849         5.12575         5.16285 
       0.300721         4.91727         4.90432         4.94486 
        0.30691         4.70676         4.70365         4.74514 
       0.313033         4.53463         4.52906         4.57009 
       0.319153          4.3662         4.37735         4.42127 
       0.325316         4.25433         4.24191         4.28731 
        0.33145         4.12622         4.11762         4.16018 
       0.337538         4.00382         3.99772         4.03874 
       0.343633         3.87903         3.87668         3.91733 
       0.349808         3.75746         3.75106         3.79319 
       0.355968         3.63203         3.62381         3.67134 
       0.362074         3.50489         3.49876         3.54438 
       0.368217         3.38496         3.37749         3.41965 
       0.374374         3.26353         3.26383         3.30977 
       0.380519         3.16744         3.15963          3.2043 
       0.386598         3.07583         3.06585         3.11221 
       0.392688         2.99264         2.97973         3.02581 
        0.39888         2.90745         2.89775         2.94322 
       0.405048         2.82995         2.81947          2.8625 
       0.411186         2.75503         2.74288         2.79036 
       0.417313         2.67421         2.66664         2.71218 
       0.423458         2.60291         2.59063         2.63702 
       0.429607          2.5233         2.51549          2.5605 
       0.435692         2.45121         2.44321         2.49024 
       0.441815         2.38302         2.37373         2.42357 
       0.447964         2.32304         2.30786         2.35623 
       0.454126          2.2547         2.24585         2.29354 
       0.460267          2.1953         2.18794         2.23686 
       0.466387         2.13968          2.1333         2.18019 
        0.47254         2.08827         2.08054         2.12785 
       0.478662         2.03882         2.02952         2.07595 
       0.484765         1.98712         1.97977         2.02673 
       0.490885         1.93869         1.93069         1.98083 
       0.497035         1.89648         1.88221         1.93267 
       0.503198         1.84596         1.83491         1.88154 
       0.509342         1.80283         1.78938         1.83744 
       0.515458         1.75625         1.74587         1.79612 
       0.521598         1.71519         1.70404         1.75069 
       0.527764         1.67231         1.66394         1.71054 
       0.533884         1.63889         1.62591         1.67285 
           0.54           1.601         1.58935         1.63544 
       0.546137         1.56718         1.55377         1.60082 
       0.552299         1.53114         1.51894         1.56303 
       0.558452         1.49472         1.48501         1.52982 
       0.564573         1.46345         1.45208         1.50037 
       0.570708         1.43174         1.41992         1.46724 
       0.576825         1.39928         1.38873         1.43524 
       0.582926         1.37169         1.35857         1.40587 
       0.589034           1.337         1.32936         1.37801 
       0.595184            1.31         1.30102         1.34539 
       0.601379         1.28307         1.27351           1.321 
       0.607522         1.25882         1.24713         1.29391 
       0.613639         1.23594         1.22164         1.26781 
       0.619772         1.20693         1.19677         1.24439 
       0.625918         1.18345         1.17246         1.21834 
       0.632068         1.16157         1.14876         1.19402 
       0.638161         1.13723          1.1259         1.17092 
         0.6443         1.11473         1.10348         1.14775 
       0.650464         1.09103          1.0816         1.12763 
       0.656582         1.07143         1.06048         1.10582 
       0.662703         1.05131         1.03995          1.0847 
       0.668861         1.03346         1.01987         1.06598 
       0.675024         1.01189         1.00033          1.0453 
       0.681124        0.990731        0.981527         1.02587 
       0.687237        0.975023        0.963194         1.00596 
       0.693381         0.95772        0.945261        0.986975 
       0.699536        0.936387        0.927762        0.970028 
       0.705665        0.920315        0.910784        0.955649 
       0.711789        0.905404         0.89424        0.938409 
       0.717957        0.887708        0.877984        0.920719 
        0.72409        0.872954        0.862217        0.904981 
       0.730186        0.856662         0.84693        0.888466 
       0.736317        0.844006        0.831932        0.873149 
       0.742472        0.828588        0.817248        0.860819 
       0.748622        0.813626         0.80294        0.846342 
        0.75476        0.798385        0.789018        0.830495 
       0.760888        0.784267        0.775458        0.817318 
       0.767043        0.774759        0.762172        0.804403 
       0.773185        0.759624        0.749234        0.791947 
       0.779291        0.746926        0.736677        0.779084 
       0.785407        0.735081        0.724394         0.76612 
       0.791564        0.723106        0.712318        0.754018 
       0.797719        0.712113        0.700526         0.74061 
       0.803834        0.700674        0.689077        0.729707 
       0.809972        0.688806        0.677845         0.71955 
       0.816124         0.67745        0.666842        0.707002 
       0.822261        0.665937        0.656115         0.69603 
       0.828378        0.656685        0.645659        0.685462 
       0.834502        0.647019        0.635424        0.674402 
       0.840667        0.635248        0.625348        0.664818 
       0.846816        0.625618        0.615522        0.656503 
       0.852925        0.617664        0.605973        0.645875 
       0.859047        0.608037        0.596608        0.637557 
       0.865192        0.597926        0.587414        0.627365 
       0.871341         0.58852         0.57841        0.617744 
       0.877463        0.581668        0.569639        0.608491 
       0.883569        0.571872        0.561074        0.600531 
       0.889708        0.563261        0.552644        0.591925 
       0.895864        0.554962        0.544368        0.583145 
       0.902008        0.546414        0.536281        0.574847 
       0.908149        0.538275        0.528365        0.567283 
       0.914301        0.529076        0.520599        0.558474 
       0.920448        0.522343        0.512998        0.550534 
       0.926574        0.514719        0.505577         0.54333 
       0.932687        0.507232        0.498321        0.534964 
       0.938823        0.501672        0.491183        0.529615 
       0.944975        0.493949         0.48417        0.520509 
       0.951105        0.487486        0.477321         0.51367 
       0.957225        0.481437        0.470618        0.507989 
       0.963368        0.474355        0.464022        0.500477 
       0.969511        0.467012        0.457554        0.493983 
       0.975621        0.460437        0.451246        0.486135 
       0.981748        0.455618        0.445042        0.480216 
       0.987916        0.449125        0.438916         0.47531 
        0.99406        0.442705        0.432931        0.469384 
        1.00019        0.437543         0.42707        0.463262 
        1.00632        0.430465        0.421324        0.456695 
        1.01246        0.424759        0.415677        0.450631 
        1.01859        0.419913        0.410144        0.445428 
        1.02471        0.414143        0.404719        0.440061 
        1.03085        0.409902        0.399375        0.433528 
        1.03698        0.403699         0.39414        0.427932 
        1.04314        0.398733        0.388978        0.423111 
        1.04929        0.393187        0.383921        0.417911 
        1.05541        0.388943        0.378975         0.41335 
        1.06154        0.383398        0.374106        0.408273 
        1.06769        0.378157        0.369315        0.403089 
        1.07382        0.373892        0.364625        0.398291 
        1.07993        0.368699        0.360028        0.393484 
        1.08607        0.365422        0.355493        0.388934 
        1.09222        0.360126        0.351031        0.383886 
        1.09836        0.356612        0.346653        0.379799 
        1.10449         0.35207        0.342355        0.375297 
        1.11063        0.347118        0.338126        0.370402 
        1.11677        0.342542         0.33397        0.366661 
         1.1229        0.339156        0.329893        0.362439 
        1.12903        0.334633        0.325881         0.35816 
        1.13518        0.331077        0.321933         0.35414 
        1.14131        0.326813        0.318053        0.350267 
        1.14745        0.321965         0.31424        0.345659 
        1.15359         0.31905         0.31049        0.342112 
        1.15973        0.314678          0.3068        0.338653 
        1.16584        0.311934        0.303187        0.334436 
        1.17197        0.308184        0.299628        0.330769 
        1.17811        0.304971        0.296115        0.327523 
        1.18424        0.301983         0.29267         0.32331 
        1.19038        0.297887         0.28927        0.319952 
        1.19652        0.293753        0.285926        0.316679 
        1.20267        0.291475        0.282636        0.312445 
        1.20881         0.28797        0.279398        0.309745 
        1.21495        0.285258        0.276217        0.307075 
        1.22108        0.281653        0.273086        0.303118 
         1.2272        0.278868        0.270012        0.299499 
        1.23334        0.275564        0.266979        0.296667 
        1.23949        0.272495        0.263985        0.293991 
        1.24562        0.269528        0.261046        0.290836 
        1.25174        0.266743        0.258157        0.287403 
        1.25789        0.264293        0.255302        0.284357 
        1.26402        0.260567        0.252497        0.281522 
        1.27014        0.258121        0.249741        0.278534 
        1.27628        0.255617        0.247018         0.27561 
        1.28244        0.252213        0.244331        0.272898 
        1.28858        0.249976        0.241688        0.269677 
        1.29471        0.247902         0.23909        0.267327 
        1.30084        0.244752        0.236533        0.265201 
        1.30697        0.242292         0.23401        0.262297 
        1.31312        0.239084         0.23152        0.259549 
        1.31925        0.236902        0.229075        0.257253 
        1.32537        0.234769        0.226668        0.254801 
        1.33151        0.232562        0.224288        0.252226 
        1.33765        0.230143        0.221943        0.249753 
        1.34378        0.227431        0.219637         0.24739 
        1.34992        0.225261        0.217362        0.245076 
        1.35606        0.223026        0.215115        0.242279 
         1.3622        0.220811        0.212904        0.240025 
        1.36833        0.218434        0.210729        0.237963 
        1.37445        0.215817        0.208587        0.235856 
        1.38059        0.213897        0.206467         0.23336 
        1.38675        0.212604        0.204373        0.231159 
        1.39288        0.210195        0.202316        0.228843 
        1.39901        0.208064        0.200289         0.22687 
        1.40515        0.206345        0.198285        0.224666 
         1.4113        0.203803        0.196309        0.222771 
        1.41742        0.201855        0.194368        0.221174 
        1.42355        0.200336         0.19245        0.218312 
         1.4297        0.198069        0.190553        0.216802 
        1.43585        0.196384        0.188682        0.214754 
        1.44198         0.19468        0.186843         0.21209 
        1.44809        0.192532        0.185033         0.21103 
        1.45423        0.190951         0.18324        0.208364 
        1.46036        0.188963        0.181474        0.206786 
        1.46649        0.187645        0.179732         0.20543 
        1.47263         0.18569        0.178011        0.203372 
        1.47877         0.18344        0.176313        0.201574 
        1.48491        0.182189        0.174635        0.200009 
        1.49104        0.180018        0.172983        0.197743 
        1.49718        0.178426        0.171351        0.196527 
        1.50333        0.177268        0.169737        0.194198 
        1.50947         0.17537        0.168148        0.192433 
         1.5156        0.173734        0.166582        0.191222 
        1.52172        0.172307        0.165036        0.189294 
        1.52787        0.170709        0.163506        0.187627 
          1.534         0.16892        0.161998        0.186269 
        1.54013        0.167492        0.160511        0.184632 
        1.54627         0.16626        0.159039        0.182927 
        1.55241        0.164434        0.157586         0.18137 
        1.55855        0.162858        0.156154        0.179863 
        1.56467        0.162052        0.154743        0.178552 
         1.5708        0.160359        0.153346        0.176781 
        1.57695        0.158885        0.151964        0.175114 
        1.58308        0.157504        0.150603        0.173991 
        1.58922        0.156191        0.149257        0.172614 
        1.59535        0.154809        0.147928         0.17104 
         1.6015        0.153273        0.146614        0.169418 
        1.60764        0.152208        0.145317        0.168271 
        1.61376        0.150625        0.144039        0.167338 
        1.61989        0.149493        0.142776        0.165796 
        1.62604        0.148379        0.141525        0.164345 
        1.63218        0.147052        0.140289        0.163074 
        1.63831        0.145791        0.139072        0.161758 
        1.64444        0.144634        0.137869         0.16034 
        1.65059        0.143494        0.136677        0.159006 
        1.65673        0.142233          0.1355        0.157838 
        1.66285        0.141203        0.134341        0.156642 
        1.66898        0.139947        0.133195        0.155286 
        1.67512        0.138614        0.132061        0.154048 
        1.68127        0.137377        0.130938        0.152944 
         1.6874        0.136509        0.129832        0.151867 
        1.69353        0.135082        0.128738        0.150653 
        1.69967        0.134442        0.127655        0.149277 
        1.70581        0.132864        0.126585        0.148096 
        1.71193         0.13194        0.125532        0.147079 
        1.71806        0.130706        0.124488        0.145928 
        1.72421        0.130063        0.123454        0.144985 
        1.73035        0.128767        0.122433        0.143834 
        1.73649        0.127898        0.121424        0.142416 
        1.74262        0.126806        0.120427        0.141359 
        1.74876        0.125753        0.119441        0.140534 
        1.75489        0.124967        0.118468        0.139533 
        1.76101        0.123752        0.117506        0.138331 
        1.76715        0.122749        0.116554        0.137414 
        1.77329        0.121618        0.115611        0.136516 
        1.77943        0.120834        0.114678        0.135448 
        1.78557        0.120085        0.113757        0.134296 
        1.79171        0.119102        0.112846        0.133185 
        1.79785        0.118214        0.111945        0.132277 
        1.80399        0.117212        0.111054        0.131496 
        1.81012        0.116441        0.110174        0.130216 
        1.81625        0.115397        0.109304        0.129162 
        1.82239        0.114485        0.108442        0.128593 
        1.82853        0.113635         0.10759        0.127756 
        1.83466        0.112856        0.106748        0.126701 
        1.84078        0.111939        0.105916        0.125714 
        1.84692        0.111001        0.105091         0.12497 
        1.85306        0.110347        0.104274        0.123955 
         1.8592        0.109291        0.103468        0.122868 
        1.86533        0.108634         0.10267        0.122154 
        1.87147        0.107793         0.10188        0.121379 
        1.87761        0.107166        0.101098        0.120578 
