# k  (h/Mpc)    P(k)  (Mpc/h)^3    P_linear(k)  (Mpc/h)^3     P_NL(k)  ShotnoiseSubtracted = false
     0.00783031         1826.71         1843.96         1843.03 
       0.013688         2466.76         2465.57         2457.06 
       0.019231         2663.46         2663.51          2649.8 
      0.0249154         2594.69         2616.26         2605.12 
      0.0312784         2398.98         2406.92         2399.06 
      0.0375637         2155.06         2152.99         2145.97 
      0.0433917          1927.3         1937.92          1931.7 
      0.0492413         1763.49         1765.83          1759.9 
      0.0555754         1613.87         1628.83         1622.41 
      0.0619321         1531.52         1526.72         1519.92 
       0.067871         1432.64         1444.14         1436.75 
      0.0738098         1346.06         1358.89         1349.28 
      0.0800417         1240.72         1258.74         1249.51 
      0.0862327         1138.45         1149.76         1142.98 
      0.0921407         1038.66         1044.42         1038.41 
      0.0982031         936.209         944.376         941.336 
       0.104506         859.702         856.804         856.194 
       0.110769         792.126         789.647         787.789 
       0.116806          739.22         742.126         740.177 
       0.122832          708.13         706.841           705.6 
       0.129052         671.869         676.763         675.471 
       0.135211         641.894         647.345         646.196 
       0.141259         613.897         615.051         614.858 
       0.147318         580.415          578.37         579.872 
       0.153489         537.562         538.172         538.108 
       0.159709         500.619         497.976          499.99 
       0.165845         471.093         461.883         467.326 
       0.171974         437.201         431.563         436.975 
       0.178125         414.411         407.546          415.34 
       0.184229         397.875         389.281         397.234 
        0.19034         377.052         374.783         382.594 
       0.196428         368.647         361.986         368.148 
       0.202534         358.732         348.929         355.623 
       0.208729         341.967         334.287         340.634 
       0.214876         323.384         318.167         326.959 
       0.220989         311.996         301.196         310.923 
       0.227147         291.455         284.252         294.192 
        0.23329         277.324         268.608          280.69 
       0.239377         266.669         255.115         268.308 
       0.245482         251.852         243.847          256.05 
       0.251667         246.409         234.494         247.892 
       0.257832         238.395         226.635          239.88 
       0.263955          230.69         219.539         232.344 
       0.270079         223.781         212.476         224.936 
        0.27624         218.887         204.995         216.954 
       0.282372         210.385         197.065         209.612 
        0.28843         201.719         188.933         201.691 
       0.294538         193.635         180.787         194.422 
       0.300721         188.863         172.977         187.693 
        0.30691         180.201         165.899         181.016 
       0.313033         174.704         159.741         174.589 
       0.319153         166.984         154.391         170.018 
       0.325316           164.4         149.613          165.81 
        0.33145         159.053          145.23         160.572 
       0.337538         155.897         141.001         156.028 
       0.343633         151.057         136.732         152.115 
       0.349808         146.831         132.301         148.056 
       0.355968         142.925         127.813         144.544 
       0.362074         138.528         123.402         139.922 
       0.368217          134.67         119.125         134.904 
       0.374374         130.589         115.116         131.681 
       0.380519         127.323         111.441         127.823 
       0.386598         124.014         108.134         124.701 
       0.392688         121.724         105.096         121.948 
        0.39888         118.499         102.204           118.6 
       0.405048         116.031         99.4434         115.925 
       0.411186         113.638         96.7422         113.886 
       0.417313          110.15         94.0532         110.426 
       0.423458         107.691         91.3721         108.022 
       0.429607         104.854          88.722         105.259 
       0.435692         101.653         86.1727         103.034 
       0.441815         100.403         83.7221         101.303 
       0.447964         98.8172         81.3988         98.5917 
       0.454126         94.8927         79.2118         96.1479 
       0.460267         93.3896         77.1693         94.5489 
       0.466387         91.1472         75.2422         92.3131 
        0.47254          89.917         73.3811         90.6526 
       0.478662         88.4225         71.5819          88.708 
       0.484765         86.1928         69.8272         86.7055 
       0.490885         84.3993         68.0959         85.4977 
       0.497035         83.2599         66.3862         83.9808 
       0.503198         81.2154         64.7178         81.8862 
       0.509342         79.2482         63.1118         80.5403 
       0.515458          77.898         61.5771         79.5428 
       0.521598         76.8069          60.102         77.3657 
       0.527764         75.3843         58.6877         75.5796 
       0.533884          74.076         57.3463         74.3603 
           0.54         72.7761         56.0566         73.0915 
       0.546137         71.7611          54.802         72.1342 
       0.552299          70.744         53.5734         70.4947 
       0.558452         68.6884         52.3765         69.1838 
       0.564573         67.6707         51.2153         68.3864 
       0.570708          66.881          50.081         67.1836 
       0.576825         65.3418          48.981         66.0392 
       0.582926         64.2541         47.9169         64.9985 
       0.589034          62.659         46.8868         64.1191 
       0.595184          61.947         45.8872          62.866 
       0.601379         61.1411         44.9169          62.106 
       0.607522         59.8418         43.9865         60.8128 
       0.613639         59.5416         43.0877         59.9463 
       0.619772         58.0278         42.2103          59.047 
       0.625918          57.792          41.353         58.3929 
       0.632068         56.8895         40.5171         57.2484 
       0.638161          55.883         39.7106         56.4679 
         0.6443         54.9103         38.9199         55.4832 
       0.650464         54.0541         38.1482         54.7918 
       0.656582         53.7109         37.4036         54.1053 
       0.662703         52.6945         36.6793         53.1542 
       0.668861         51.9241          35.971         52.5778 
       0.675024         51.1272         35.2818         51.6777 
       0.681124         50.2877         34.6187         50.9568 
       0.687237         49.5053         33.9721         50.1789 
       0.693381         49.1187         33.3396         49.5156 
       0.699536         48.0422         32.7224         49.0257 
       0.705665         48.0381         32.1236         48.4754 
       0.711789         46.9645         31.5401         47.5669 
       0.717957         46.4751         30.9667         47.0815 
        0.72409         45.8065         30.4106         46.5953 
       0.730186         45.1951         29.8714         45.8895 
       0.736317         44.8312         29.3425         45.2796 
       0.742472         44.0566         28.8245         44.8837 
       0.748622         43.6953         28.3199         44.1653 
        0.75476         43.0062         27.8288         43.6536 
       0.760888         42.4854         27.3506         43.1867 
       0.767043         42.0245          26.882         42.7769 
       0.773185         41.3481         26.4257         42.2391 
       0.779291         41.1486         25.9828         41.8095 
       0.785407         40.6809         25.5496         41.2458 
       0.791564          39.957         25.1236         40.7642 
       0.797719         39.2919         24.7077         40.2963 
       0.803834         39.2229         24.3039         39.7796 
       0.809972         38.8067         23.9078         39.4618 
       0.816124         37.9285         23.5197         38.9352 
       0.822261         37.8234         23.1413         38.4229 
       0.828378         37.4113         22.7725         37.9983 
       0.834502         36.9851         22.4116         37.8128 
       0.840667         36.6125         22.0562         37.2512 
       0.846816         36.0525         21.7096         36.9199 
       0.852925         35.7655         21.3728          36.761 
       0.859047         35.3413         21.0425         36.1316 
       0.865192         35.0658         20.7182         35.7801 
       0.871341         34.8437         20.4007         35.5082 
       0.877463         34.2063         20.0913         35.0981 
       0.883569          33.848         19.7892         34.8377 
       0.889708         33.4869         19.4919         34.3785 
       0.895864         33.2707            19.2         34.0285 
       0.902008           33.01         18.9148         33.7485 
       0.908149         32.6758         18.6356         33.4653 
       0.914301         32.4981         18.3616         33.2422 
       0.920448         31.8364         18.0935          32.783 
       0.926574         31.6859         17.8318          32.446 
       0.932687         31.3569         17.5759          32.115 
       0.938823         30.9879         17.3241         31.8575 
       0.944975         30.6973         17.0768         31.5245 
       0.951105         30.4964         16.8352         31.1854 
       0.957225         30.1551         16.5988         31.0269 
       0.963368         29.9021         16.3662         30.6729 
       0.969511         29.6921          16.138         30.4433 
       0.975621         29.4739         15.9155         30.1468 
       0.981748         29.0958         15.6967         29.9532 
       0.987916         28.9087         15.4807         29.6119 
        0.99406         28.5887         15.2696         29.3777 
        1.00019         28.2268         15.0629          29.139 
        1.00632         28.1959         14.8602         28.9339 
        1.01246            27.9          14.661         28.7627 
        1.01859         27.5356         14.4659         28.4447 
        1.02471         27.4631         14.2745         28.1731 
        1.03085         27.1998          14.086         27.9694 
        1.03698         26.7905         13.9014         27.7345 
        1.04314         26.6485         13.7193         27.4481 
        1.04929         26.3619          13.541         27.2886 
        1.05541         26.1316         13.3665         27.1236 
        1.06154         25.9503         13.1948         26.8186 
        1.06769         25.8168         13.0258         26.6145 
        1.07382         25.5302         12.8604         26.4567 
        1.07993          25.419         12.6983         26.2279 
        1.08607         25.1229         12.5383         26.0059 
        1.09222         24.9476         12.3809         25.8357 
        1.09836         24.6564         12.2265         25.6059 
        1.10449         24.5815         12.0749         25.4002 
        1.11063         24.3151         11.9258         25.2668 
        1.11677         24.2145         11.7792         25.0225 
         1.1229         24.0777         11.6354          24.859 
        1.12903         23.7873         11.4939         24.7297 
        1.13518          23.552         11.3546         24.4887 
        1.14131         23.4513         11.2178         24.3073 
        1.14745         23.2883         11.0833         24.1257 
        1.15359         23.1296         10.9511         23.9715 
        1.15973         22.9301         10.8209         23.7998 
        1.16584         22.6562         10.6935         23.6983 
        1.17197         22.6201         10.5679         23.5182 
        1.17811         22.4039         10.4441         23.2806 
        1.18424         22.2062         10.3225         23.1647 
        1.19038         22.1295         10.2026         23.0003 
        1.19652          21.935         10.0847         22.8162 
        1.20267         21.7311         9.96862         22.6596 
        1.20881         21.6943         9.85443         22.5898 
        1.21495         21.5198         9.74223         22.4144 
        1.22108         21.3024         9.63181         22.2478 
         1.2272         21.1276         9.52338         22.0679 
        1.23334         20.9668         9.41639          21.977 
        1.23949         20.8132          9.3108         21.8071 
        1.24562         20.7728         9.20715         21.6395 
        1.25174         20.6202         9.10524         21.5336 
        1.25789         20.5012         9.00457         21.3808 
        1.26402         20.3832         8.90562         21.2089 
        1.27014         20.2107         8.80842         21.1018 
        1.27628          19.985         8.71238         20.9658 
        1.28244         19.9204          8.6176         20.8949 
        1.28858         19.8507         8.52438         20.7007 
        1.29471         19.6458         8.43275          20.569 
        1.30084         19.4904         8.34257         20.5189 
        1.30697         19.4208         8.25358          20.345 
        1.31312         19.2071         8.16578         20.2077 
        1.31925         19.0955         8.07954           20.14 
        1.32537         19.0394         7.99464         20.0342 
        1.33151         18.8792         7.91067         19.8729 
        1.33765         18.7613         7.82797         19.7438 
        1.34378         18.6593         7.74663          19.657 
        1.34992         18.4778          7.6664         19.5354 
        1.35606         18.4325         7.58714         19.3876 
         1.3622         18.3346         7.50916          19.288 
        1.36833         18.1869         7.43246         19.2273 
        1.37445         18.0991         7.35689         19.0753 
        1.38059         18.0179         7.28215         18.9371 
        1.38675         17.8388         7.20827         18.8683 
        1.39288         17.7461         7.13573         18.7429 
        1.39901         17.5904         7.06422          18.657 
        1.40515         17.5454         6.99354         18.5645 
         1.4113         17.4465         6.92387         18.4623 
        1.41742         17.3268         6.85541         18.3553 
        1.42355         17.2271         6.78777         18.2228 
         1.4297         17.1004         6.72084         18.1654 
        1.43585         17.0558         6.65485         18.0816 
        1.44198         16.9294            6.59         17.9589 
        1.44809          16.837         6.52615         17.8842 
        1.45423           16.72         6.46292         17.7834 
        1.46036         16.6595         6.40064         17.6671 
        1.46649         16.5654         6.33917         17.5711 
        1.47263         16.4241         6.27847         17.5047 
        1.47877         16.3575          6.2186          17.434 
        1.48491         16.2548         6.15942          17.289 
        1.49104         16.1874         6.10114         17.2247 
        1.49718         16.0859         6.04358         17.1451 
        1.50333         15.9936         5.98668         17.0572 
        1.50947         15.9059         5.93063           16.98 
         1.5156         15.8119         5.87538         16.8911 
        1.52172         15.7081         5.82085         16.7869 
        1.52787         15.6189          5.7669         16.6913 
          1.534         15.5501         5.71371         16.6168 
        1.54013          15.462         5.66124         16.5074 
        1.54627         15.3551         5.60935         16.4253 
        1.55241         15.2926          5.5581         16.3838 
        1.55855         15.2271         5.50757         16.3038 
        1.56467         15.1212         5.45782         16.2082 
         1.5708         15.0896         5.40854         16.1575 
        1.57695         14.9464          5.3598         16.0869 
        1.58308          14.892         5.31178          15.995 
        1.58922         14.8227         5.26432         15.9392 
        1.59535           14.76         5.21746         15.8476 
         1.6015         14.6476         5.17112          15.764 
        1.60764          14.582         5.12536         15.6961 
        1.61376         14.5486         5.08028         15.6198 
        1.61989         14.4205         5.03572         15.5609 
        1.62604         14.3827          4.9916         15.5007 
        1.63218         14.3045         4.94803         15.4168 
        1.63831          14.246         4.90509         15.3372 
        1.64444         14.1511         4.86265         15.2845 
        1.65059         14.0614         4.82061         15.1925 
        1.65673         14.0131         4.77912         15.1347 
        1.66285         13.8938         4.73824          15.085 
        1.66898         13.8581         4.69782          15.002 
        1.67512         13.8059         4.65781         14.9378 
        1.68127         13.7129         4.61822         14.8579 
         1.6874         13.6612         4.57919         14.7823 
        1.69353         13.5996         4.54063         14.7456 
        1.69967         13.5035         4.50243         14.6839 
        1.70581         13.4226         4.46469          14.621 
        1.71193         13.3809         4.42752         14.5607 
        1.71806         13.3536         4.39071         14.4832 
        1.72421         13.2448         4.35424         14.4348 
        1.73035         13.2122         4.31824         14.3646 
        1.73649         13.1561         4.28265         14.2782 
        1.74262         13.0644         4.24749         14.2597 
        1.74876         13.0156         4.21271          14.199 
        1.75489         12.9716         4.17839         14.1061 
        1.76101         12.8709         4.14447         14.0402 
        1.76715         12.8463         4.11088         14.0046 
        1.77329          12.779         4.07762         13.9454 
        1.77943         12.6922         4.04472         13.8807 
        1.78557          12.662         4.01224         13.8404 
        1.79171         12.6015         3.98011          13.775 
        1.79785         12.5352         3.94833         13.7012 
        1.80399         12.4669          3.9169         13.6569 
        1.81012         12.4143         3.88586         13.6155 
        1.81625         12.3399         3.85517         13.5699 
        1.82239         12.3038         3.82477         13.5143 
        1.82853          12.215         3.79472         13.4413 
        1.83466         12.1818         3.76501         13.3942 
        1.84078         12.1004         3.73566         13.3578 
        1.84692         12.0896         3.70658         13.2805 
        1.85306         12.0152         3.67778         13.2333 
         1.8592         11.9541         3.64932         13.2041 
        1.86533         11.9102         3.62119         13.1364 
        1.87147         11.8541         3.59332         13.0768 
        1.87761         11.8036         3.56574         13.0311 
