# k  (h/Mpc)    P(k)  (Mpc/h)^3    P_linear(k)  (Mpc/h)^3     P_NL(k)  ShotnoiseSubtracted = false
     0.00783031           11255         11407.2         11394.8 
       0.013688         15356.2         15246.3         15156.8 
       0.019231         16453.5         16467.1         16313.4 
      0.0249154         15810.9         16173.2           15986 
      0.0312784         14648.9           14878         14654.4 
      0.0375637         13206.3         13307.8         13073.4 
      0.0433917         11658.1           11978         11717.7 
      0.0492413         10726.1         10914.1         10649.2 
      0.0555754         9652.06         10067.2         9803.16 
      0.0619321         9315.22         9435.96         9162.81 
       0.067871         8548.75         8925.46         8655.69 
      0.0738098         8024.72         8398.54         8059.46 
      0.0800417         7319.96          7779.5         7451.15 
      0.0862327         6760.81         7105.91         6853.92 
      0.0921407         6236.62         6454.88         6219.16 
      0.0982031         5620.62         5836.54         5688.23 
       0.104506         5260.93          5295.3         5221.97 
       0.110769         4855.09         4880.24         4778.96 
       0.116806         4546.27         4586.54         4485.99 
       0.122832         4344.35         4368.45         4289.13 
       0.129052         4064.71         4182.56         4109.25 
       0.135211         3890.86         4000.74         3925.93 
       0.141259         3753.48         3801.15         3764.12 
       0.147318         3566.65         3574.45         3569.98 
       0.153489         3291.19         3326.02         3290.83 
       0.159709         3121.68         3077.59         3099.09 
       0.165845         3006.36         2854.53         2959.92 
       0.171974         2825.04         2667.14         2788.65 
       0.178125          2685.7         2518.71         2701.12 
       0.184229         2578.74         2405.83         2577.06 
        0.19034         2441.76         2316.23         2492.71 
       0.196428         2408.31         2237.14         2395.17 
       0.202534         2328.94         2156.44         2328.92 
       0.208729         2237.44         2065.95         2220.63 
       0.214876         2148.53         1966.33         2165.74 
       0.220989         2085.64         1861.44         2092.71 
       0.227147         1992.21         1756.72         2012.27 
        0.23329         1917.13         1660.04          1950.9 
       0.239377         1892.32         1576.65         1878.05 
       0.245482         1777.98         1507.01         1799.61 
       0.251667         1770.16         1449.21         1764.13 
       0.257832         1705.66         1400.64         1714.21 
       0.263955         1653.63         1356.79         1670.56 
       0.270079         1603.93         1313.13         1627.49 
        0.27624         1589.61          1266.9          1580.5 
       0.282372         1523.05         1217.89          1546.9 
        0.28843         1518.15         1167.63         1507.51 
       0.294538          1447.4         1117.29         1466.76 
       0.300721         1441.72         1069.02         1424.58 
        0.30691         1385.38         1025.28         1403.87 
       0.313033         1359.94         987.224         1363.36 
       0.319153         1341.17         954.155         1329.04 
       0.325316         1297.06         924.632         1312.78 
        0.33145         1269.95         897.541          1269.7 
       0.337538         1252.66         871.404         1251.02 
       0.343633         1224.57         845.021         1237.55 
       0.349808         1187.54         817.638          1215.7 
       0.355968         1180.75         789.902         1195.32 
       0.362074         1168.29         762.643         1170.29 
       0.368217         1134.47         736.209         1140.77 
       0.374374         1093.71         711.434         1122.27 
       0.380519         1094.69         688.721          1101.3 
       0.386598          1069.1          668.28         1087.29 
       0.392688         1064.57         649.507         1064.25 
        0.39888         1035.48         631.637         1052.16 
       0.405048         1023.64         614.573         1039.09 
       0.411186         1009.11          597.88         1017.25 
       0.417313         989.219         581.261         1002.74 
       0.423458         974.495         564.692         986.906 
       0.429607         959.942         548.314         968.063 
       0.435692         942.216         532.558         951.739 
       0.441815         937.682         517.414         948.599 
       0.447964          916.67         503.055          934.12 
       0.454126         907.046         489.539         910.931 
       0.460267          889.34         476.917         910.069 
       0.466387         878.505         465.006         892.922 
        0.47254         869.997         453.505         883.256 
       0.478662         863.809         442.385         871.586 
       0.484765         842.905         431.541         859.846 
       0.490885         837.091         420.842         845.745 
       0.497035         819.336         410.275         838.549 
       0.503198         814.724         399.964         828.546 
       0.509342         805.147         390.039         815.696 
       0.515458         801.673         380.554         811.838 
       0.521598         784.283         371.438          803.21 
       0.527764         767.361         362.697         794.318 
       0.533884         768.684         354.407         785.476 
           0.54         759.559         346.437         776.912 
       0.546137         754.267         338.683         767.718 
       0.552299         743.798         331.091         757.376 
       0.558452         739.477         323.694          751.77 
       0.564573         728.067         316.517          745.08 
       0.570708         721.513         309.507         738.161 
       0.576825         702.188         302.708         727.511 
       0.582926         705.619         296.133          721.29 
       0.589034         699.061         289.767         710.531 
       0.595184         691.727         283.588         705.644 
       0.601379         683.434         277.592         700.105 
       0.607522         674.399         271.842         691.144 
       0.613639         675.669         266.287         688.055 
       0.619772         658.478         260.865         686.576 
       0.625918         655.772         255.567          677.63 
       0.632068         648.031         250.401         672.474 
       0.638161         645.882         245.417         661.473 
         0.6443         633.155          240.53         658.969 
       0.650464         631.829          235.76         649.174 
       0.656582         629.355         231.159         644.611 
       0.662703         624.642         226.683         641.437 
       0.668861         613.502         222.305         637.751 
       0.675024          609.12         218.046         633.326 
       0.681124         606.025         213.948          622.99 
       0.687237         600.592         209.952         618.202 
       0.693381         593.875         206.043         613.166 
       0.699536         584.273         202.229         609.127 
       0.705665          584.48         198.528         603.425 
       0.711789          579.11         194.921         598.309 
       0.717957         573.709         191.378         596.371 
        0.72409         570.584         187.941         591.133 
       0.730186         562.925         184.609         586.222 
       0.736317         559.478          181.34         580.401 
       0.742472         557.086         178.139         575.794 
       0.748622         550.882          175.02          571.41 
        0.75476           543.1         171.986         571.724 
       0.760888         538.068          169.03         564.574 
       0.767043         538.162         166.134         559.028 
       0.773185         531.893         163.314         555.614 
       0.779291         527.173         160.577         550.804 
       0.785407         522.661         157.899          547.77 
       0.791564          517.15         155.267          545.53 
       0.797719         514.652         152.697         539.922 
       0.803834         510.595         150.201          537.28 
       0.809972         507.323         147.753         534.299 
       0.816124         506.792         145.354         526.647 
       0.822261         498.824         143.016         524.296 
       0.828378         496.301         140.737         520.937 
       0.834502         491.522         138.506         519.179 
       0.840667         486.902          136.31         515.233 
       0.846816          484.72         134.168         511.556 
       0.852925         479.709         132.086         508.358 
       0.859047         480.094         130.045         503.986 
       0.865192         474.413         128.041         500.668 
       0.871341         470.377         126.079         498.226 
       0.877463         468.514         124.167         494.921 
       0.883569         463.946           122.3         491.606 
       0.889708         461.286         120.462          487.51 
       0.895864         457.405         118.658         485.019 
       0.902008         454.849         116.895          482.13 
       0.908149         450.942          115.17         477.735 
       0.914301          446.95         113.477         474.616 
       0.920448          443.86          111.82         471.639 
       0.926574         438.009         110.203         468.469 
       0.932687         438.292         108.621         465.478 
       0.938823         432.829         107.065         464.528 
       0.944975         433.364         105.537         460.785 
       0.951105         427.232         104.044         456.627 
       0.957225         424.373         102.583         455.436 
       0.963368         420.441         101.145         452.319 
       0.969511         418.663          99.735         448.997 
       0.975621         415.316           98.36         446.507 
       0.981748         413.888         97.0076         443.294 
       0.987916         410.684         95.6725         442.223 
        0.99406         404.007         94.3678         439.037 
        1.00019         403.493         93.0902         434.176 
        1.00632         401.053         91.8378         432.142 
        1.01246           397.7         90.6069         429.509 
        1.01859         397.664         89.4007         426.354 
        1.02471         392.231         88.2183         425.153 
        1.03085         389.703         87.0534         423.625 
        1.03698         388.572         85.9123         421.208 
        1.04314         384.775         84.7871          418.25 
        1.04929         380.698         83.6848         414.925 
        1.05541         380.397         82.6068         412.268 
        1.06154         375.405         81.5454         409.869 
        1.06769         372.938         80.5012         407.142 
        1.07382         371.155         79.4789         404.936 
        1.07993         368.703         78.4769         403.041 
        1.08607         367.635         77.4882         399.933 
        1.09222         364.154         76.5157         397.487 
        1.09836         361.568         75.5613         396.502 
        1.10449         357.816         74.6244         393.723 
        1.11063         354.839         73.7026          390.76 
        1.11677         354.464         72.7969         389.206 
         1.1229         352.406         71.9081         387.114 
        1.12903         348.882         71.0336         385.025 
        1.13518         345.766          70.173         382.482 
        1.14131         344.466         69.3274         380.348 
        1.14745         341.896         68.4963          378.22 
        1.15359         339.602         67.6788         376.379 
        1.15973         337.468         66.8745           374.2 
        1.16584         334.964         66.0869         371.785 
        1.17197         333.957         65.3111         369.928 
        1.17811         330.814         64.5455         368.225 
        1.18424          327.73         63.7945         366.731 
        1.19038         326.051         63.0534         364.508 
        1.19652         323.743         62.3245         362.508 
        1.20267         322.658         61.6072         359.587 
        1.20881         320.782         60.9015         358.151 
        1.21495         317.774         60.2081         355.719 
        1.22108         316.086         59.5257         353.553 
         1.2272          313.79         58.8556         351.207 
        1.23334         311.421         58.1944         349.299 
        1.23949          310.18         57.5419         348.321 
        1.24562         308.035         56.9012         346.504 
        1.25174         304.849         56.2714         344.639 
        1.25789         302.541         55.6493         342.835 
        1.26402         301.219         55.0378         341.207 
        1.27014         298.799          54.437         338.644 
        1.27628         297.076         53.8435         337.861 
        1.28244         296.225         53.2578         336.434 
        1.28858         292.964         52.6817         334.021 
        1.29471         290.455         52.1154         331.296 
        1.30084         289.518         51.5581         329.912 
        1.30697         287.253         51.0081         328.807 
        1.31312         284.715         50.4655         327.064 
        1.31925         284.554         49.9325         324.678 
        1.32537          282.88         49.4078          322.71 
        1.33151         279.652         48.8889         321.577 
        1.33765         277.889         48.3778         319.832 
        1.34378         276.743         47.8751         318.106 
        1.34992         274.681         47.3792         315.844 
        1.35606         273.841         46.8894         314.218 
         1.3622         271.595         46.4075         312.931 
        1.36833         269.386         45.9335         311.892 
        1.37445         267.907         45.4665          309.21 
        1.38059         265.196         45.0045         308.465 
        1.38675         264.489          44.548         307.364 
        1.39288         262.179         44.0996         304.162 
        1.39901          261.38         43.6577         303.004 
        1.40515         259.293         43.2209          301.46 
         1.4113         257.684         42.7903         299.516 
        1.41742         256.151         42.3672         298.323 
        1.42355         253.661         41.9492         296.683 
         1.4297          252.35         41.5356         295.223 
        1.43585         250.737         41.1277         294.373 
        1.44198         249.221          40.727         292.169 
        1.44809         247.867         40.3324         291.249 
        1.45423         245.549         39.9416         288.811 
        1.46036         244.779         39.5567         287.456 
        1.46649         242.377         39.1768          286.57 
        1.47263         240.902         38.8017         285.024 
        1.47877         239.658         38.4317         283.129 
        1.48491         237.817         38.0659          281.67 
        1.49104         236.948         37.7058         280.301 
        1.49718         234.552           37.35         279.226 
        1.50333         233.349         36.9983         278.231 
        1.50947          231.84         36.6519         276.879 
         1.5156         229.795         36.3105         275.022 
        1.52172         229.032         35.9735         273.076 
        1.52787         227.261         35.6401         272.156 
          1.534         226.164         35.3114         270.987 
        1.54013         224.017         34.9871         269.445 
        1.54627         223.393         34.6664         268.211 
        1.55241         221.324         34.3497         267.063 
        1.55855         220.051         34.0374         265.686 
        1.56467         218.527         33.7299         264.061 
         1.5708         218.215         33.4254         262.645 
        1.57695         215.716         33.1242          261.58 
        1.58308         214.723         32.8274         260.266 
        1.58922          212.49         32.5341         258.808 
        1.59535         211.183         32.2445         257.832 
         1.6015         210.814         31.9581         256.443 
        1.60764         208.975         31.6753         254.797 
        1.61376         207.232         31.3967         253.719 
        1.61989         206.142         31.1213         252.641 
        1.62604         204.968         30.8486         251.412 
        1.63218          203.61         30.5794         250.365 
        1.63831         202.351          30.314         249.278 
        1.64444         201.395         30.0517         247.763 
        1.65059         199.484         29.7919          246.69 
        1.65673           198.7         29.5355         245.556 
        1.66285         197.378         29.2829         244.145 
        1.66898         195.872         29.0331         242.753 
        1.67512         195.318         28.7858         241.803 
        1.68127         192.991         28.5411         240.644 
         1.6874         191.963         28.2999         239.518 
        1.69353         191.028         28.0616         238.797 
        1.69967         189.596         27.8255         237.336 
        1.70581         188.483         27.5923          236.07 
        1.71193         187.131         27.3626         235.095 
        1.71806         186.409         27.1351         233.648 
        1.72421         184.761         26.9097         232.746 
        1.73035         184.016         26.6872         231.658 
        1.73649         182.838         26.4672         230.273 
        1.74262         181.484           26.25         229.682 
        1.74876         180.542          26.035         228.643 
        1.75489          178.92         25.8229          227.34 
        1.76101         177.963         25.6133         226.353 
        1.76715         177.185         25.4057         225.405 
        1.77329         176.214         25.2002         224.276 
        1.77943         175.032         24.9969         223.064 
        1.78557         173.787         24.7961         221.959 
        1.79171         172.588         24.5975         221.035 
        1.79785         171.274         24.4011          220.05 
        1.80399         170.366         24.2069         218.887 
        1.81012          169.24          24.015         218.124 
        1.81625         168.536         23.8254         217.218 
        1.82239         167.132         23.6375         215.977 
        1.82853          166.52         23.4518         214.972 
        1.83466         165.176         23.2682         213.876 
        1.84078          164.35         23.0868         212.797 
        1.84692         162.832         22.9071         212.142 
        1.85306         162.317         22.7291         211.081 
         1.8592         160.963         22.5532          209.95 
        1.86533         160.043         22.3793         209.443 
        1.87147          158.86         22.2071         208.702 
        1.87761         158.406         22.0366         207.575 
