# k  (h/Mpc)    Pcb(k)  (Mpc/h)^3    Pcb_linear(k) (Mpc/h)^3    Pcb_NL(k) (Mpc/h)^3   ShotnoiseSubtracted = false
     0.00783031         9482.17         9604.45         9595.59 
       0.013688         12920.4         12838.4         12769.4 
       0.019231         13860.3         13867.1         13748.9 
      0.0249154         13347.1         13619.9         13481.2 
      0.0312784         12364.6         12529.3         12368.8 
      0.0375637         11141.7         11207.1         11039.5 
      0.0433917         9855.11         10087.3         9902.43 
      0.0492413         9060.51         9191.35         9003.59 
      0.0555754         8174.91          8478.1         8290.21 
      0.0619321         7872.64         7946.54         7751.63 
       0.067871         7245.35         7516.63         7323.38 
      0.0738098         6801.34         7072.89         6829.65 
      0.0800417         6213.83         6551.57         6315.59 
      0.0862327         5733.75         5984.31         5803.55 
      0.0921407         5279.71         5436.04         5266.35 
      0.0982031          4755.8          4915.3         4809.64 
       0.104506         4440.42          4459.5         4408.06 
       0.110769         4095.94         4109.95         4036.36 
       0.116806         3830.23         3862.61         3789.77 
       0.122832         3663.57         3678.94         3621.85 
       0.129052         3433.34         3522.39         3468.99 
       0.135211         3286.63         3369.28         3315.71 
       0.141259         3166.46         3201.18         3174.29 
       0.147318         3005.82         3010.27         3009.11 
       0.153489         2774.23         2801.05         2775.15 
       0.159709         2625.88         2591.84         2608.08 
       0.165845         2519.39         2403.98          2483.6 
       0.171974         2363.15         2246.17         2336.03 
       0.178125          2245.1         2121.17         2257.15 
       0.184229         2158.21          2026.1         2155.01 
        0.19034         2036.43         1950.64         2082.65 
       0.196428          2010.2         1884.04         1999.36 
       0.202534            1948         1816.08          1942.3 
       0.208729         1867.65         1739.87         1852.65 
       0.214876         1786.61         1655.97         1805.18 
       0.220989         1735.22         1567.64         1739.82 
       0.227147         1650.47         1479.45         1667.69 
        0.23329         1586.69         1398.03         1615.45 
       0.239377         1561.79          1327.8         1554.51 
       0.245482         1464.75         1269.15         1487.28 
       0.251667          1456.5         1220.47         1456.62 
       0.257832         1404.56         1179.57         1414.02 
       0.263955         1362.01         1142.64         1376.07 
       0.270079         1320.62         1105.87         1339.62 
        0.27624         1309.21         1066.94         1299.53 
       0.282372         1253.52         1025.66         1267.73 
        0.28843         1241.94         983.337         1231.87 
       0.294538         1183.16         940.941         1199.08 
       0.300721         1179.47         900.292         1165.19 
        0.30691         1129.92         863.456         1145.16 
       0.313033          1109.6         831.409         1110.49 
       0.319153         1088.59         803.555          1083.3 
       0.325316         1054.12         778.691         1068.36 
        0.33145         1030.37         755.878         1032.82 
       0.337538         1017.92         733.865         1015.35 
       0.343633         991.594         711.645         1004.22 
       0.349808          961.02         688.588         985.423 
       0.355968         956.091         665.227         967.791 
       0.362074         943.308         642.271         946.237 
       0.368217         917.036          620.01          920.46 
       0.374374         881.894         599.143         904.849 
       0.380519         880.009         580.017         886.653 
       0.386598         860.508         562.801         875.219 
       0.392688         857.535         546.991         855.559 
        0.39888         832.994         531.942         845.051 
       0.405048         821.467         517.572         835.605 
       0.411186         808.952         503.514         815.801 
       0.417313         793.677         489.518         801.453 
       0.423458         781.882         475.562         789.758 
       0.429607         768.394         461.771         773.575 
       0.435692         752.936         448.502         760.694 
       0.441815         749.342         435.748          756.52 
       0.447964          733.14         423.655         743.825 
       0.454126         720.391         412.275          726.27 
       0.460267         708.532         401.641         724.296 
       0.466387         700.879         391.612         710.581 
        0.47254         689.859         381.926         702.913 
       0.478662           687.5         372.562         691.851 
       0.484765         669.388         363.428         680.448 
       0.490885         663.909         354.418         670.739 
       0.497035         650.975         345.519         664.619 
       0.503198         644.594         336.836         655.507 
       0.509342         638.267         328.478         646.921 
       0.515458         634.066         320.489         643.316 
       0.521598         621.071         312.812         634.055 
       0.527764         607.592         305.451         626.364 
       0.533884         607.495         298.469         619.353 
           0.54         599.692         291.757         611.809 
       0.546137         597.098         285.227         604.635 
       0.552299         586.838         278.833         596.782 
       0.558452         583.866         272.603         591.711 
       0.564573         574.421         266.559         586.668 
       0.570708         567.806         260.656         581.661 
       0.576825         554.675         254.931         572.057 
       0.582926         555.079         249.392         566.283 
       0.589034         549.782         244.032         558.482 
       0.595184         544.351         238.828         553.412 
       0.601379          538.36         233.778          549.39 
       0.607522         530.762         228.936         543.111 
       0.613639         530.386         224.257          539.34 
       0.619772         516.171         219.692         537.797 
       0.625918         515.333          215.23         530.831 
       0.632068         508.457         210.879         525.037 
       0.638161         506.552         206.681          518.54 
         0.6443         496.621         202.566         515.816 
       0.650464         494.563         198.549          507.54 
       0.656582         493.346         194.674         503.417 
       0.662703         489.319         190.904         501.854 
       0.668861         480.514         187.218         497.743 
       0.675024         476.911         183.631         493.413 
       0.681124          474.49         180.179         485.964 
       0.687237         469.705         176.814         482.006 
       0.693381         463.956         173.522         478.315 
       0.699536         458.434          170.31         475.314 
       0.705665         456.601         167.193         470.999 
       0.711789         452.425         164.156         466.973 
       0.717957          448.44         161.172         464.446 
        0.72409         444.921         158.278         460.729 
       0.730186         440.185         155.471         457.067 
       0.736317         436.712         152.718         452.174 
       0.742472         435.152         150.022         448.196 
       0.748622         430.239         147.396         444.695 
        0.75476         425.498          144.84          444.31 
       0.760888         420.744         142.351         438.878 
       0.767043         421.238         139.912         435.713 
       0.773185         415.375         137.537         432.408 
       0.779291          410.29         135.232         428.566 
       0.785407         408.163         132.977         426.115 
       0.791564         403.884         130.761         423.375 
       0.797719         401.464         128.596         419.794 
       0.803834         398.253         126.494         417.488 
       0.809972          395.79         124.432         414.538 
       0.816124         395.925         122.412         409.425 
       0.822261         389.153         120.443         407.464 
       0.828378         387.379         118.524         404.545 
       0.834502         384.861         116.645         402.706 
       0.840667          379.76         114.795         399.688 
       0.846816         378.497         112.992          397.14 
       0.852925         374.908         111.239         394.212 
       0.859047          374.19          109.52         391.407 
       0.865192         370.484         107.832         388.909 
       0.871341         367.295         106.179         386.438 
       0.877463         364.847         104.569         383.977 
       0.883569         362.279         102.997         381.728 
       0.889708         359.459         101.449         378.435 
       0.895864         355.379         99.9298         376.315 
       0.902008         354.629         98.4453          373.79 
       0.908149         352.332         96.9922         370.432 
       0.914301         348.094         95.5665         368.668 
       0.920448         345.277         94.1711         365.297 
       0.926574         342.478         92.8089         363.326 
       0.932687         342.715         91.4768         360.355 
       0.938823         338.134         90.1665         359.974 
       0.944975         337.508         88.8792         357.586 
       0.951105          334.31         87.6219         354.691 
       0.957225         331.574         86.3914         352.621 
       0.963368         327.718         85.1806         349.982 
       0.969511          326.05         83.9933         347.673 
       0.975621          323.54         82.8353         346.574 
       0.981748         323.614         81.6964         344.078 
       0.987916         320.236          80.572         342.556 
        0.99406         315.946         79.4732         340.484 
        1.00019         316.003         78.3973         337.137 
        1.00632         313.603         77.3426         335.069 
        1.01246         310.713         76.3059         333.014 
        1.01859         310.729         75.2902         331.167 
        1.02471         306.811         74.2944         329.894 
        1.03085         303.918         73.3134         328.193 
        1.03698         303.184         72.3524         326.536 
        1.04314         300.449         71.4047         324.075 
        1.04929         298.056         70.4764         321.673 
        1.05541         297.196         69.5686         319.813 
        1.06154         293.727         68.6747         318.019 
        1.06769         292.591         67.7953         316.262 
        1.07382         290.847         66.9343         314.117 
        1.07993         288.643         66.0905         312.753 
        1.08607         287.756         65.2578         310.796 
        1.09222         285.303         64.4389         308.766 
        1.09836         282.741         63.6351         307.971 
        1.10449         280.072         62.8461         305.794 
        1.11063         278.059         62.0698         303.868 
        1.11677         277.458          61.307         302.056 
         1.1229         275.566         60.5585         300.835 
        1.12903         273.322          59.822         299.297 
        1.13518         271.517         59.0973         297.257 
        1.14131         269.755         58.3851         295.775 
        1.14745         269.013         57.6852         294.048 
        1.15359          266.36         56.9967         292.364 
        1.15973         265.512         56.3193          290.59 
        1.16584         262.601         55.6561         288.259 
        1.17197         262.187         55.0027         287.282 
        1.17811          259.73         54.3579         286.196 
        1.18424         258.002         53.7255         284.728 
        1.19038          256.92         53.1014          283.12 
        1.19652         254.947         52.4875         281.919 
        1.20267         254.015         51.8835          279.44 
        1.20881         251.967         51.2891         278.753 
        1.21495         249.934         50.7052         276.479 
        1.22108         248.956         50.1305         275.116 
         1.2272         247.036         49.5661         272.926 
        1.23334         245.326         49.0093         271.945 
        1.23949         244.004         48.4597         271.422 
        1.24562         242.628         47.9202          269.45 
        1.25174         239.754         47.3898         268.463 
        1.25789         238.419         46.8659         266.854 
        1.26402         237.499         46.3509         265.177 
        1.27014         235.749          45.845         264.182 
        1.27628         234.401         45.3451         263.218 
        1.28244         233.719         44.8519         261.458 
        1.28858         231.491         44.3666         259.942 
        1.29471         229.336         43.8898         258.226 
        1.30084         228.251         43.4204         257.006 
        1.30697         226.686         42.9572         256.044 
        1.31312         225.206         42.5002         254.268 
        1.31925         224.735         42.0514         252.646 
        1.32537         223.188         41.6095         251.819 
        1.33151         221.212         41.1725         250.632 
        1.33765         219.828         40.7421         249.015 
        1.34378         218.793         40.3187         247.843 
        1.34992          217.43         39.9011          246.31 
        1.35606         216.695         39.4886          244.83 
         1.3622         215.085         39.0827         243.767 
        1.36833         213.129         38.6836         242.793 
        1.37445          211.49         38.2903         240.957 
        1.38059         210.229         37.9012         240.284 
        1.38675         209.156         37.5167         239.086 
        1.39288         207.605         37.1392         237.014 
        1.39901           207.4          36.767         236.469 
        1.40515         205.578         36.3991         235.529 
         1.4113         203.688         36.0365         233.929 
        1.41742           203.1         35.6802         232.777 
        1.42355         200.986         35.3281         232.079 
         1.4297          200.07         34.9798         230.711 
        1.43585         198.438         34.6363         229.532 
        1.44198         197.539         34.2988         228.267 
        1.44809         196.729         33.9665         227.085 
        1.45423         194.801         33.6374         225.838 
        1.46036         194.263         33.3133         224.735 
        1.46649         192.726         32.9934         224.046 
        1.47263         191.462         32.6774         223.339 
        1.47877         190.469         32.3658         221.766 
        1.48491         188.928         32.0578         220.593 
        1.49104         188.243         31.7545         219.773 
        1.49718          186.13         31.4549          218.28 
        1.50333         185.435         31.1587         217.384 
        1.50947         184.488          30.867          216.51 
         1.5156         183.044         30.5795         215.264 
        1.52172         181.993         30.2956          214.06 
        1.52787          180.68         30.0148         213.165 
          1.534         180.125          29.738         212.005 
        1.54013         178.275         29.4649         211.075 
        1.54627         177.849         29.1948         210.252 
        1.55241         176.198         28.9281         209.106 
        1.55855         175.256         28.6651         207.885 
        1.56467         174.243         28.4062         206.891 
         1.5708         173.339         28.1497         206.241 
        1.57695         171.751          27.896          205.25 
        1.58308         171.405         27.6461         204.015 
        1.58922         170.062         27.3991          203.11 
        1.59535         168.695         27.1552         202.143 
         1.6015         168.227          26.914         201.022 
        1.60764         166.814         26.6758         200.007 
        1.61376         165.561         26.4412         199.287 
        1.61989         164.658         26.2093         198.547 
        1.62604         163.875         25.9796         197.546 
        1.63218         162.795         25.7529         196.548 
        1.63831         161.734         25.5294         195.547 
        1.64444         160.905         25.3085         194.467 
        1.65059         159.911         25.0897         193.841 
        1.65673         158.821         24.8738         192.854 
        1.66285         158.091          24.661         191.762 
        1.66898         157.143         24.4507          191.03 
        1.67512         156.309         24.2424         190.169 
        1.68127         154.893         24.0363         189.339 
         1.6874         153.491         23.8332         188.649 
        1.69353         153.191         23.6325         187.894 
        1.69967          152.14         23.4337         186.701 
        1.70581         151.216         23.2372         185.751 
        1.71193         150.119         23.0438         184.971 
        1.71806         149.461         22.8522         183.762 
        1.72421         148.557         22.6624         183.087 
        1.73035         147.488          22.475         182.396 
        1.73649         146.965         22.2898          181.43 
        1.74262         145.752         22.1068         180.826 
        1.74876         145.217         21.9258         179.981 
        1.75489         143.726         21.7472         178.998 
        1.76101          143.19         21.5706         178.172 
        1.76715         142.326         21.3958         177.344 
        1.77329          141.72         21.2227         176.443 
        1.77943           140.5         21.0515          175.58 
        1.78557         139.722         20.8824         174.869 
        1.79171          138.89         20.7152         174.265 
        1.79785         137.996         20.5497         173.527 
        1.80399         137.252         20.3862         172.531 
        1.81012         136.396         20.2246         171.693 
        1.81625         135.599         20.0649         171.081 
        1.82239         134.968         19.9067         170.437 
        1.82853         134.286         19.7503         169.589 
        1.83466         133.295         19.5957          168.65 
        1.84078         132.623         19.4429          167.85 
        1.84692         131.532         19.2916          167.32 
        1.85306         130.941         19.1416         166.559 
         1.8592         129.776         18.9935         165.768 
        1.86533         129.137         18.8471         165.264 
        1.87147         128.239         18.7021         164.435 
