# k  (h/Mpc)    Pcb(k)  (Mpc/h)^3    Pcb_linear(k) (Mpc/h)^3    Pcb_NL(k) (Mpc/h)^3   ShotnoiseSubtracted = false
     0.00783031         4495.95         4544.92         4542.48 
       0.013688         6096.42          6076.3         6051.52 
       0.019231         6564.65         6563.68          6522.3 
      0.0249154         6363.96         6446.99         6406.34 
      0.0312784         5890.73         5930.96         5891.87 
      0.0375637         5299.46         5305.17         5265.88 
      0.0433917         4717.44         4775.15         4734.15 
      0.0492413         4325.99         4351.08         4310.09 
      0.0555754         3935.96         4013.47         3971.59 
      0.0619321         3760.91         3761.85         3718.02 
       0.067871         3493.58         3558.35         3513.83 
      0.0738098         3280.81          3348.3         3291.77 
      0.0800417         3012.96         3101.52         3046.65 
      0.0862327         2771.54         2832.98         2791.54 
      0.0921407         2537.81         2573.44         2534.73 
      0.0982031         2285.25         2326.92         2304.36 
       0.104506         2114.44         2111.14         2101.87 
       0.110769         1948.71         1945.67         1929.86 
       0.116806         1817.62         1828.58         1812.96 
       0.122832         1742.08         1741.63          1730.1 
       0.129052         1643.43         1667.52         1656.36 
       0.135211         1571.49         1595.04          1584.5 
       0.141259         1508.01         1515.46         1510.81 
       0.147318         1428.07         1425.08         1428.61 
       0.153489         1320.06         1326.04         1321.53 
       0.159709         1238.62         1226.99         1233.64 
       0.165845         1175.02         1138.06         1162.46 
       0.171974         1094.34         1063.35         1088.77 
       0.178125         1038.71         1004.18         1042.35 
       0.184229         999.042         959.171         997.039 
        0.19034         940.628         923.451          961.19 
       0.196428         926.208         891.919         922.501 
       0.202534         901.588         859.747         893.341 
       0.208729         860.465         823.668         854.337 
       0.214876         815.182          783.95         826.672 
       0.220989         790.955         742.134         790.323 
       0.227147         742.739         700.384         750.904 
        0.23329         710.751         661.839         722.506 
       0.239377          691.28         628.593         693.559 
       0.245482         647.883         600.826         661.563 
       0.251667         639.687         577.781         644.426 
       0.257832         619.305         558.419         624.361 
       0.263955         599.862         540.935         605.548 
       0.270079         581.882         523.531         587.339 
        0.27624         573.813         505.099         567.362 
       0.282372         550.429         485.558         549.901 
        0.28843         533.375         465.521         530.543 
       0.294538         510.369          445.45         514.859 
       0.300721         504.952         426.207         500.068 
        0.30691         481.788         408.768         485.927 
       0.313033         470.722         393.597         469.436 
       0.319153         453.816          380.41         458.494 
       0.325316         442.752          368.64         449.686 
        0.33145         430.093          357.84         434.646 
       0.337538         424.897         347.419         423.869 
       0.343633         411.769           336.9         416.767 
       0.349808         399.865         325.984         407.429 
       0.355968         393.855         314.925         398.701 
       0.362074         384.166         304.057         387.901 
       0.368217         374.315         293.519         375.369 
       0.374374         362.196          283.64         367.644 
       0.380519         355.923         274.586         358.565 
       0.386598          347.73         266.436          351.42 
       0.392688          343.93         258.951         344.644 
        0.39888         335.018         251.827         336.604 
       0.405048         328.537         245.024         332.196 
       0.411186         321.614         238.368         324.601 
       0.417313         315.594         231.743         315.672 
       0.423458         309.664         225.136         309.919 
       0.429607         302.417         218.607         303.707 
       0.435692         294.338         212.325         297.984 
       0.441815           292.5         206.287         294.834 
       0.447964         287.549         200.562         288.335 
       0.454126         276.101         195.175         281.369 
       0.460267         273.257         190.141         278.684 
       0.466387         269.771         185.393         273.072 
        0.47254         264.704         180.807         268.872 
       0.478662         262.316         176.374         263.879 
       0.484765          255.82          172.05         257.894 
       0.490885         252.055         167.785         254.893 
       0.497035         248.616         163.572         251.769 
       0.503198         242.448         159.461         247.405 
       0.509342         239.473         155.505         244.091 
       0.515458         236.397         151.723         242.032 
       0.521598         233.613         148.088         236.693 
       0.527764         229.797         144.604         232.086 
       0.533884         226.192         141.298         229.381 
           0.54         223.202         138.121         226.411 
       0.546137         221.724         135.029         224.054 
       0.552299         218.128         132.002         219.828 
       0.558452         214.195         129.053          216.65 
       0.564573         210.451         126.192         214.759 
       0.570708         207.858         123.397         211.683 
       0.576825          205.07         120.687         208.055 
       0.582926         202.346         118.065         205.371 
       0.589034         198.881         115.527         203.446 
       0.595184         197.153         113.064          200.34 
       0.601379         195.518         110.673          199.11 
       0.607522         190.963         108.381         195.571 
       0.613639         190.706         106.166         193.652 
       0.619772         186.342         104.004         190.721 
       0.625918          184.79         101.892         189.455 
       0.632068         182.776         99.8322         186.254 
       0.638161         181.201          97.845         185.169 
         0.6443         178.671         95.8967         182.498 
       0.650464         176.669         93.9952         179.375 
       0.656582         175.022         92.1605          178.32 
       0.662703         172.037         90.3761         175.891 
       0.668861         170.453         88.6308         174.271 
       0.675024          168.48         86.9327         171.971 
       0.681124         167.163         85.2987         170.439 
       0.687237         164.282         83.7056         168.278 
       0.693381          162.44         82.1471         166.459 
       0.699536          160.98         80.6264          165.37 
       0.705665          161.58         79.1509         164.268 
       0.711789         157.423         77.7132         161.228 
       0.717957         156.839         76.3005         160.157 
        0.72409         154.663         74.9302         159.532 
       0.730186         152.162         73.6017         157.583 
       0.736317         151.919         72.2983         155.593 
       0.742472         150.412         71.0222         154.249 
       0.748622         149.414         69.7788         152.562 
        0.75476         147.858         68.5689         151.109 
       0.760888          145.97         67.3904         149.386 
       0.767043         144.593         66.2359         148.706 
       0.773185         143.201         65.1115         147.726 
       0.779291         141.845         64.0202         146.223 
       0.785407         140.956         62.9528         144.395 
       0.791564         139.187         61.9034         143.313 
       0.797719          137.57         60.8786         142.348 
       0.803834         137.031         59.8836          140.55 
       0.809972          134.86         58.9075          139.61 
       0.816124         134.426         57.9513         138.856 
       0.822261         133.218         57.0191         137.333 
       0.828378         131.924         56.1104         135.604 
       0.834502         131.043          55.221         135.366 
       0.840667         129.755         54.3453         134.527 
       0.846816         128.637         53.4914         133.009 
       0.852925         127.186         52.6615         131.914 
       0.859047         125.836         51.8477          130.63 
       0.865192         125.584         51.0487         130.001 
       0.871341         124.379         50.2662         128.678 
       0.877463         122.871         49.5039         128.073 
       0.883569         122.087         48.7596         127.041 
       0.889708          121.43          48.027         126.063 
       0.895864         120.273         47.3078         125.232 
       0.902008         119.501          46.605         124.098 
       0.908149          118.66         45.9171         123.167 
       0.914301         117.308         45.2422         122.633 
       0.920448         116.602         44.5816         121.569 
       0.926574         115.893         43.9367         120.072 
       0.932687         115.075         43.3061         119.552 
       0.938823         113.574         42.6858         118.639 
       0.944975         113.234         42.0763         117.849 
       0.951105          112.14         41.4811          117.13 
       0.957225         110.801         40.8986          116.49 
       0.963368         110.422         40.3254         115.127 
       0.969511         109.805         39.7633         114.506 
       0.975621         109.186         39.2151          114.63 
       0.981748         108.152         38.6759         113.271 
       0.987916         107.392         38.1436         112.802 
        0.99406         106.906         37.6234         111.913 
        1.00019         105.472         37.1141         111.072 
        1.00632         105.217         36.6148         110.492 
        1.01246          104.11          36.124         109.575 
        1.01859         103.019         35.6431         108.928 
        1.02471         103.478         35.1717         108.491 
        1.03085         102.296         34.7073         107.646 
        1.03698         101.277         34.2524         106.815 
        1.04314         100.363         33.8037         106.249 
        1.04929         100.042         33.3643         105.907 
        1.05541         99.2591         32.9345         105.366 
        1.06154         98.7718         32.5113         104.567 
        1.06769         97.9935          32.095         104.013 
        1.07382         97.5972         31.6874         103.322 
        1.07993         97.1364         31.2879         102.611 
        1.08607         96.2104         30.8937         101.947 
        1.09222         95.7434          30.506         101.167 
        1.09836         95.0188         30.1255         100.716 
        1.10449         94.4202          29.752         100.105 
        1.11063         93.5899         29.3845         99.3113 
        1.11677         93.0824         29.0234         98.8128 
         1.1229         92.6592          28.669         98.5796 
        1.12903          91.486         28.3204         97.8098 
        1.13518         91.5805         27.9773         97.2772 
        1.14131          91.066         27.6401         96.7487 
        1.14745          89.884         27.3088         96.1871 
        1.15359          89.613         26.9828         95.8934 
        1.15973           89.01         26.6622         95.2041 
        1.16584         88.3964         26.3482         94.6319 
        1.17197         87.9021         26.0389         94.1156 
        1.17811          87.397         25.7336          93.399 
        1.18424         86.5575         25.4342         92.9329 
        1.19038         86.3804         25.1387         92.7817 
        1.19652         85.9255         24.8481         91.9247 
        1.20267         85.2268         24.5622         91.6979 
        1.20881         84.6693         24.2808         91.0519 
        1.21495         84.0904         24.0044          90.629 
        1.22108         83.5675         23.7323         90.1751 
         1.2272         82.9915         23.4651         89.7823 
        1.23334         82.6067         23.2015         89.2441 
        1.23949         82.2437         22.9413         88.6558 
        1.24562         81.8779         22.6859         88.2651 
        1.25174          81.317         22.4348          87.945 
        1.25789         80.8633         22.1868         87.4175 
        1.26402         80.3032          21.943         86.8863 
        1.27014          79.611         21.7035         86.5153 
        1.27628         79.3951         21.4669         86.0991 
        1.28244         78.6556         21.2333         85.5936 
        1.28858         78.3295         21.0036         85.2001 
        1.29471          78.078         20.7779         84.9154 
        1.30084         77.5113         20.5557         84.1881 
        1.30697         76.8549         20.3364         83.7605 
        1.31312          76.463         20.1201          83.653 
        1.31925         76.2869         19.9076         83.1278 
        1.32537         75.7657         19.6984          82.633 
        1.33151         75.2783         19.4915         82.3152 
        1.33765         74.9985         19.2877         81.9412 
        1.34378         74.5542         19.0873         81.4726 
        1.34992          73.748         18.8896         81.1254 
        1.35606         73.4708         18.6943         80.8339 
         1.3622         72.9322         18.5022         80.3893 
        1.36833         72.8365         18.3132         79.8479 
        1.37445         72.4207          18.127          79.588 
        1.38059         71.9801         17.9428         79.4485 
        1.38675         71.6095         17.7608         78.8054 
        1.39288         71.0933         17.5821         78.6115 
        1.39901         70.7757         17.4059         78.1966 
        1.40515         70.4313         17.2317         77.7763 
         1.4113         70.0968         17.0601         77.5221 
        1.41742         69.5019         16.8914         77.2518 
        1.42355         69.3588         16.7247         76.6444 
         1.4297         68.8089         16.5598         76.3025 
        1.43585         68.5788         16.3972          76.102 
        1.44198         68.2235         16.2374         75.8598 
        1.44809         67.7053         16.0801         75.1793 
        1.45423         67.5499         15.9243         74.9242 
        1.46036          67.047         15.7709         74.6871 
        1.46649         66.7408         15.6194         74.4227 
        1.47263         66.3994         15.4698         74.1387 
        1.47877         66.1216         15.3223         73.6835 
        1.48491         65.7172         15.1765         73.3038 
        1.49104         65.3315         15.0329         72.9112 
        1.49718         64.8902         14.8911         72.6132 
        1.50333         64.6394         14.7509         72.4066 
        1.50947         64.1889         14.6128         72.1494 
         1.5156         63.9115         14.4766         71.8392 
        1.52172         63.6497         14.3423          71.514 
        1.52787         63.4276         14.2093         71.1606 
          1.534          63.047         14.0783         70.9072 
        1.54013         62.6269          13.949          70.573 
        1.54627         62.5174         13.8212         70.2012 
        1.55241         62.0449         13.6949         69.9221 
        1.55855         61.6091         13.5704         69.6482 
        1.56467         61.2039         13.4478         69.2696 
         1.5708         61.0874         13.3264         69.1095 
        1.57695          60.705         13.2063         68.9019 
        1.58308         60.5971          13.088         68.4813 
        1.58922         60.2401          12.971         68.2272 
        1.59535         59.8839         12.8556         67.9901 
         1.6015         59.5347         12.7414         67.6402 
        1.60764         59.4003         12.6286         67.3478 
        1.61376         59.0899         12.5176         67.1344 
        1.61989         58.4674         12.4078         66.7446 
        1.62604         58.3564          12.299         66.4657 
        1.63218         58.0567         12.1917         66.2668 
        1.63831         57.7687         12.0859         65.9892 
        1.64444         57.5919         11.9813         65.6671 
        1.65059         57.0166         11.8777         65.4333 
        1.65673         56.8687         11.7755         65.1189 
        1.66285         56.6839         11.6748         64.8624 
        1.66898         56.2543         11.5752         64.7724 
        1.67512         55.9634         11.4766         64.5304 
        1.68127         55.6282         11.3791         64.1285 
         1.6874         55.5285         11.2829          63.752 
        1.69353         55.1432         11.1879         63.5574 
        1.69967         54.9766         11.0938         63.3844 
        1.70581         54.7287         11.0008         63.2606 
        1.71193         54.3137         10.9092         63.0326 
        1.71806         54.0155         10.8185         62.5098 
        1.72421         53.7603         10.7286         62.2199 
        1.73035          53.538         10.6399         62.1714 
        1.73649          53.258         10.5522         62.0396 
        1.74262         52.9935         10.4656         61.5459 
        1.74876         52.9361         10.3799         61.2792 
        1.75489         52.4113         10.2953         61.1426 
        1.76101         52.2582         10.2118         60.8842 
        1.76715         51.9445          10.129         60.6474 
        1.77329         51.6956         10.0471         60.4354 
        1.77943         51.5328         9.96599         60.2109 
        1.78557         51.2907         9.88595         59.9652 
        1.79171         50.9271         9.80678         59.7052 
        1.79785         50.7131         9.72847         59.5169 
        1.80399         50.4457         9.65104          59.386 
        1.81012         50.2651         9.57456         58.9757 
        1.81625         49.9094         9.49894         58.6349 
        1.82239         49.7467         9.42404         58.5523 
        1.82853         49.3602         9.34998         58.4127 
        1.83466         49.1911          9.2768         58.1427 
        1.84078         48.8443         9.20448         57.8727 
        1.84692         48.7032         9.13283          57.769 
        1.85306         48.4094         9.06185          57.562 
         1.8592         48.2313         8.99174         57.2828 
        1.86533          47.892         8.92242         57.1218 
        1.87147         47.7588         8.85376         56.9072 
