# k  (h/Mpc)    P(k)  (Mpc/h)^3    P_linear(k)  (Mpc/h)^3     P_NL(k)  ShotnoiseSubtracted = false
     0.00783031         8298.44         8402.06         8395.14 
       0.013688         11297.1         11231.8         11174.8 
       0.019231         12128.4         12131.9         12034.7 
      0.0249154         11695.3         11915.8         11804.8 
      0.0312784         10833.1         10961.8         10836.6 
      0.0375637         9758.67            9805          9674.8 
      0.0433917         8642.97         8825.31         8682.54 
      0.0492413         7942.15          8041.5         7896.71 
      0.0555754         7178.25         7417.49         7272.19 
      0.0619321         6902.66         6952.44         6801.44 
       0.067871         6364.52         6576.32         6426.13 
      0.0738098         5974.74         6188.09         5998.85 
      0.0800417         5464.31         5731.99         5548.25 
      0.0862327         5039.08          5235.7          5095.2 
      0.0921407         4634.61         4756.02         4623.95 
      0.0982031         4173.79         4300.42         4218.88 
       0.104506         3890.32         3901.64         3862.58 
       0.110769         3587.59         3595.81         3538.53 
       0.116806         3352.34         3379.41         3322.79 
       0.122832         3208.29         3218.73          3174.6 
       0.129052         3010.25         3081.76          3040.2 
       0.135211         2881.34          2947.8         2906.57 
       0.141259         2773.65         2800.74         2780.12 
       0.147318          2631.4          2633.7         2634.38 
       0.153489          2429.2         2450.65         2430.63 
       0.159709          2295.8         2267.61         2281.18 
       0.165845         2197.41         2103.26         2167.92 
       0.171974         2058.36         1965.19         2037.04 
       0.178125         1954.92         1855.82         1964.86 
       0.184229         1880.26         1772.65         1876.82 
        0.19034          1771.3         1706.63         1812.82 
       0.196428         1748.82         1648.36          1739.6 
       0.202534          1696.8          1588.9         1688.87 
       0.208729         1624.87         1522.22         1611.62 
       0.214876         1550.58         1448.82         1568.85 
       0.220989         1506.44         1371.54         1509.54 
       0.227147         1428.76         1294.38         1444.07 
        0.23329         1372.58         1223.14         1397.61 
       0.239377         1348.24          1161.7         1344.49 
       0.245482         1263.36         1110.39          1285.2 
       0.251667         1254.92          1067.8         1257.74 
       0.257832         1211.05         1032.01         1220.33 
       0.263955         1174.45           999.7         1186.59 
       0.270079         1138.66         967.535         1154.42 
        0.27624         1128.46          933.47         1118.96 
       0.282372          1080.4         897.359         1089.58 
        0.28843         1065.71         860.328          1056.8 
       0.294538         1015.34         823.236         1028.71 
       0.300721         1012.01         787.672         1000.04 
        0.30691          968.06         755.443         980.765 
       0.313033           950.4         727.402         950.193 
       0.319153         929.207         703.036          927.36 
       0.325316         900.634         681.283          913.61 
        0.33145          879.26         661.322         883.011 
       0.337538         869.353         642.064         866.645 
       0.343633         845.227         622.625         856.806 
       0.349808         819.171         602.449         840.206 
       0.355968          814.66         582.012         824.494 
       0.362074         802.015         561.927         805.401 
       0.368217         780.231          542.45         782.497 
       0.374374         749.944         524.196          768.71 
       0.380519         746.468          507.46         752.604 
       0.386598          730.23         492.399         742.359 
       0.392688           727.5         478.567         725.699 
        0.39888         706.585           465.4         715.789 
       0.405048         695.696         452.827         708.167 
       0.411186          684.24         440.527         690.484 
       0.417313         671.982         428.282          676.82 
       0.423458          661.67         416.074         666.922 
       0.429607         649.214         404.006         653.105 
       0.435692         635.762         392.397          642.07 
       0.441815         632.523         381.239           637.8 
       0.447964         619.352         370.659         626.566 
       0.454126          605.19           360.7         612.007 
       0.460267         596.789           351.4         609.592 
       0.466387         590.421         342.624         598.003 
        0.47254         579.582          334.15         591.297 
       0.478662         578.218         325.957         581.194 
       0.484765         562.586         317.966         570.524 
       0.490885         557.349         310.083         563.131 
       0.497035          547.13         302.297         557.716 
       0.503198         539.857           294.7         549.543 
       0.509342         535.217         287.387         543.003 
       0.515458         530.924         280.399          539.59 
       0.521598          520.74         273.681         530.586 
       0.527764          509.83         267.241         523.678 
       0.533884         508.518         261.133         517.888 
           0.54             502          255.26         511.373 
       0.546137         500.102         249.547         505.542 
       0.552299         490.865         243.953         498.849 
       0.558452         487.834         238.503         494.133 
       0.564573         479.847         233.215         489.923 
       0.570708         473.424          228.05           485.6 
       0.576825          464.36          223.04         477.114 
       0.582926         462.976         218.195         472.018 
       0.589034         458.196         213.505         466.098 
       0.595184         453.961         208.953         460.756 
       0.601379         449.367         204.534         457.922 
       0.607522         442.412         200.298         452.888 
       0.613639         441.283         196.205          448.95 
       0.619772          429.76          192.21         446.865 
       0.625918         428.985         188.306          441.64 
       0.632068         423.169         184.499         435.787 
       0.638161         421.535         180.827         431.669 
         0.6443         413.518         177.226         428.661 
       0.650464         411.228         173.712          421.74 
       0.656582         410.232         170.321         418.193 
       0.662703         406.528         167.024         416.835 
       0.668861         399.436         163.798         412.824 
       0.675024         396.057          160.66         408.887 
       0.681124         394.332          157.64         403.343 
       0.687237         389.867         154.696         399.862 
       0.693381          384.77         151.816         396.664 
       0.699536         381.254         149.005         394.068 
       0.705665         379.113         146.278         390.897 
       0.711789         375.158         143.621         387.071 
       0.717957         372.191          141.01         384.598 
        0.72409         368.716         138.478         381.919 
       0.730186         364.999         136.023         378.788 
       0.736317         361.945         133.614         374.635 
       0.742472         360.559         131.256         371.257 
       0.748622         357.038         128.958          368.11 
        0.75476           353.6         126.722         367.237 
       0.760888          349.27         124.544          362.81 
       0.767043         349.172          122.41         360.614 
       0.773185          344.47         120.332         357.809 
       0.779291         339.455         118.315          354.48 
       0.785407         338.294         116.343         352.139 
       0.791564         334.986         114.403         349.744 
       0.797719         332.449         112.509         347.268 
       0.803834         330.057         110.671         344.855 
       0.809972          327.58         108.867         342.278 
       0.816124         327.993         107.099         338.833 
       0.822261         322.246         105.377         336.812 
       0.828378          320.67         103.697         334.107 
       0.834502         319.489         102.054         332.555 
       0.840667         314.471         100.435         330.119 
       0.846816          313.53         98.8572         327.844 
       0.852925         310.881         97.3234         325.225 
       0.859047         309.443         95.8194         323.095 
       0.865192         306.843         94.3428         321.109 
       0.871341         303.879         92.8967         318.765 
       0.877463         301.899         91.4879         316.971 
       0.883569         299.679         90.1124         315.071 
       0.889708         297.326         88.7585         312.411 
       0.895864          293.74         87.4293         310.677 
       0.902008         293.449         86.1305         308.207 
       0.908149         291.601         84.8592         305.566 
       0.914301         288.089         83.6118          304.43 
       0.920448         285.625          82.391         301.405 
       0.926574         284.068         81.1992         299.586 
       0.932687         283.707         80.0337         297.115 
       0.938823         280.206         78.8873         296.718 
       0.944975          278.94          77.761         295.146 
       0.951105         277.082          76.661         292.826 
       0.957225          274.32         75.5845         290.647 
       0.963368         271.169         74.5252         288.233 
       0.969511         269.855         73.4864         286.638 
       0.975621         267.743         72.4732         286.059 
       0.981748         268.032         71.4768         283.753 
       0.987916         264.679          70.493         282.404 
        0.99406         262.211         69.5317         280.807 
        1.00019         262.097         68.5904         278.248 
        1.00632         259.672         67.6676         276.106 
        1.01246         257.574         66.7606         274.398 
        1.01859         256.924         65.8719         273.378 
        1.02471         254.416         65.0007         272.235 
        1.03085         251.697         64.1424         270.473 
        1.03698         250.728         63.3016          269.05 
        1.04314             249         62.4725         267.214 
        1.04929         246.876         61.6603         265.265 
        1.05541         246.025          60.866         263.818 
        1.06154         243.871          60.084         262.426 
        1.06769         243.181         59.3146         261.081 
        1.07382         241.415         58.5613         259.252 
        1.07993         239.486          57.823         257.937 
        1.08607         238.442         57.0945         256.796 
        1.09222         236.715          56.378         255.156 
        1.09836          234.45         55.6748         254.174 
        1.10449         232.368         54.9845         252.351 
        1.11063         230.852         54.3053         250.733 
        1.11677         230.322         53.6379         249.358 
         1.1229         228.351         52.9831         248.237 
        1.12903         226.989         52.3387         246.995 
        1.13518          225.81         51.7046         245.416 
        1.14131         224.004         51.0815          244.03 
        1.14745         223.424         50.4692          242.72 
        1.15359          221.28         49.8668         241.292 
        1.15973         220.812         49.2742         239.768 
        1.16584         218.186         48.6939         238.011 
        1.17197          217.74         48.1223         236.932 
        1.17811          216.02         47.5581         236.285 
        1.18424         214.641         47.0048         234.831 
        1.19038         213.923         46.4588         233.605 
        1.19652         212.349         45.9217         232.764 
        1.20267         211.165         45.3932         230.971 
        1.20881         209.564         44.8732         230.293 
        1.21495         208.171         44.3623          228.23 
        1.22108          207.45         43.8595         227.636 
         1.2272         205.628         43.3658         225.705 
        1.23334         204.372         42.8786         224.957 
        1.23949         202.684         42.3978         224.241 
        1.24562         201.926         41.9258         222.551 
        1.25174         199.337         41.4617         221.804 
        1.25789         198.582         41.0033         220.506 
        1.26402         197.722         40.5527         218.982 
        1.27014          196.29         40.1101         218.663 
        1.27628         195.337         39.6728         217.794 
        1.28244         194.615         39.2412         215.947 
        1.28858         193.049         38.8167         214.813 
        1.29471         191.082         38.3995         213.857 
        1.30084         190.117         37.9888         212.756 
        1.30697         189.023         37.5836          211.71 
        1.31312         188.228         37.1838         210.147 
        1.31925          187.04         36.7911         209.153 
        1.32537         186.062         36.4045         208.469 
        1.33151         184.359         36.0221         207.374 
        1.33765         183.638         35.6455         206.239 
        1.34378         182.372         35.2751         205.035 
        1.34992          181.43         34.9098         204.066 
        1.35606         180.427         34.5489         202.764 
         1.3622         179.364         34.1938          201.87 
        1.36833         177.987         33.8445         200.903 
        1.37445         176.457         33.5004         199.613 
        1.38059         176.023         33.1601         199.046 
        1.38675          174.67         32.8237         197.911 
        1.39288         173.913         32.4933         196.623 
        1.39901          173.36         32.1677          196.06 
        1.40515         172.046         31.8459         195.246 
         1.4113          170.14         31.5286         194.114 
        1.41742         169.741         31.2169         193.291 
        1.42355         168.272         30.9088         192.681 
         1.4297         167.356         30.6041         191.423 
        1.43585         165.908         30.3036          190.39 
        1.44198         165.602         30.0083         189.476 
        1.44809         164.495         29.7175          188.47 
        1.45423         163.001         29.4296          187.52 
        1.46036         162.502          29.146         186.637 
        1.46649         161.531         28.8661         185.999 
        1.47263         160.789         28.5897         185.381 
        1.47877         159.631         28.3171         184.235 
        1.48491         158.309         28.0476         183.318 
        1.49104         157.653         27.7822         182.635 
        1.49718          156.03         27.5201         181.178 
        1.50333         155.434          27.261         180.503 
        1.50947          154.58         27.0057          179.79 
         1.5156         153.762         26.7542         178.867 
        1.52172          152.66         26.5059         178.204 
        1.52787         151.851         26.2602         177.148 
          1.534          151.15          26.018         176.238 
        1.54013         149.616         25.7791         175.537 
        1.54627          149.24         25.5428           174.8 
        1.55241         148.071         25.3094         173.959 
        1.55855         147.412         25.0793         172.929 
        1.56467         146.552         24.8528         172.064 
         1.5708         145.489         24.6284         171.656 
        1.57695         144.649         24.4064         170.839 
        1.58308         143.935         24.1878          169.68 
        1.58922         143.359         23.9717         168.966 
        1.59535         142.091         23.7583         168.239 
         1.6015         141.553         23.5472         167.418 
        1.60764         140.479         23.3389         166.657 
        1.61376         139.764         23.1336         166.041 
        1.61989         138.927         22.9307         165.358 
        1.62604         138.094         22.7298         164.434 
        1.63218         137.292         22.5314         163.626 
        1.63831         136.344         22.3359         162.965 
        1.64444         135.615         22.1426         162.115 
        1.65059         134.967         21.9512         161.426 
        1.65673         133.858         21.7623         160.679 
        1.66285         133.623         21.5761         159.944 
        1.66898         132.546         21.3921         159.335 
        1.67512         131.836         21.2098         158.628 
        1.68127         130.875         21.0296         157.849 
         1.6874         129.624         20.8518         157.156 
        1.69353         129.211         20.6762         156.564 
        1.69967         128.667         20.5023         155.686 
        1.70581         127.825         20.3304         154.912 
        1.71193          127.09         20.1612         154.288 
        1.71806         126.189         19.9936         153.498 
        1.72421         125.771         19.8275         152.837 
        1.73035           124.7         19.6636         152.161 
        1.73649         124.072         19.5015         151.442 
        1.74262         123.478         19.3414         150.915 
        1.74876         122.805          19.183          150.16 
        1.75489         121.664         19.0267         149.316 
        1.76101         121.349         18.8723         148.624 
        1.76715         120.192         18.7193         147.979 
        1.77329         119.853         18.5679         147.376 
        1.77943         119.074         18.4181          146.79 
        1.78557         118.397         18.2702         146.193 
        1.79171         117.682         18.1239         145.637 
        1.79785         116.989         17.9791          145.03 
        1.80399         116.332          17.836         144.283 
        1.81012         115.729         17.6947         143.567 
        1.81625         114.904         17.5549         142.982 
        1.82239          114.62         17.4165         142.426 
        1.82853         114.006         17.2796         141.751 
        1.83466         113.028         17.1444         141.038 
        1.84078         112.708         17.0107          140.44 
        1.84692         111.692         16.8783         140.024 
        1.85306         110.956         16.7471         139.367 
         1.8592          110.21         16.6176         138.699 
        1.86533          109.78         16.4895         138.245 
        1.87147         108.787         16.3626         137.339 
        1.87761         108.514          16.237         136.583 
