# k  (h/Mpc)    P(k)  (Mpc/h)^3    P_linear(k)  (Mpc/h)^3     P_NL(k)  ShotnoiseSubtracted = false
     0.00783031          462.84         466.677         466.334 
       0.013688         622.687         624.129         622.165 
       0.019231         673.808         674.297         671.257 
      0.0249154         659.024          662.37         660.225 
      0.0312784         608.441          609.39         608.403 
      0.0375637         545.793         545.113         544.502 
      0.0433917         489.897         490.664          490.43 
      0.0492413         447.337         447.097          446.95 
      0.0555754         411.149         412.412          412.13 
      0.0619321          387.66          386.56         386.209 
       0.067871         364.666         365.652         365.121 
      0.0738098         342.797         344.069         343.315 
      0.0800417         316.818         318.711         318.011 
      0.0862327         290.055         291.118         290.633 
      0.0921407         263.971         264.448         264.106 
      0.0982031         238.289         239.116         239.021 
       0.104506         217.424         216.944          217.04 
       0.110769         200.313         199.939         199.948 
       0.116806         187.399         187.907          187.85 
       0.122832         179.088         178.973         178.935 
       0.129052         170.714         171.358         171.279 
       0.135211         163.071         163.909         163.816 
       0.141259          155.43         155.732         155.701 
       0.147318         146.632         146.444         146.546 
       0.153489         136.094         136.266         136.285 
       0.159709         126.123         126.089         126.267 
       0.165845         117.844          116.95         117.378 
       0.171974          109.46         109.273         109.693 
       0.178125         103.532         103.192         103.771 
       0.184229         99.1653         98.5668         99.1568 
        0.19034          94.729         94.8961         95.4635 
       0.196428         91.9364         91.6559         92.0902 
       0.202534         89.1486         88.3498         88.8125 
       0.208729         85.0715         84.6422         85.0898 
       0.214876         80.6052         80.5608          81.182 
       0.220989         77.1144         76.2637         76.9557 
       0.227147         72.1646         71.9734         72.6763 
        0.23329         68.3256         68.0123         68.8726 
       0.239377         65.1306          64.596         65.5483 
       0.245482         62.0125         61.7427         62.6214 
       0.251667         60.0893         59.3745         60.3357 
       0.257832         57.9891         57.3847         58.3314 
       0.263955         56.1761         55.5879          56.491 
       0.270079         54.4301         53.7994         54.6675 
        0.27624         52.8487         51.9053          52.731 
       0.282372         50.7977         49.8973         50.7796 
        0.28843         48.5478         47.8383         48.7468 
       0.294538         46.5421         45.7758         46.7415 
       0.300721         44.8647         43.7982         44.8425 
        0.30691          42.845         42.0062         43.0713 
       0.313033         41.3437          40.447         41.4974 
       0.319153         39.5765         39.0921         40.2107 
       0.325316         38.9001         37.8826         39.0392 
        0.33145         37.6552         36.7727         37.8663 
       0.337538         36.6011         35.7018         36.7642 
       0.343633         35.4335         34.6209         35.6832 
       0.349808         34.3996          33.499         34.5939 
       0.355968         33.2962         32.3626         33.5713 
       0.362074         32.1642         31.2458         32.4144 
       0.368217         31.1252         30.1628         31.2552 
       0.374374         29.9982         29.1478         30.3217 
       0.380519         29.2031         28.2172         29.3633 
       0.386598         28.3966         27.3797         28.5588 
       0.392688         27.7173         26.6106         27.7913 
        0.39888         26.9167         25.8785         27.0391 
       0.405048         26.2637         25.1794         26.2972 
       0.411186         25.6287         24.4954         25.7094 
       0.417313         24.7916         23.8146         24.9764 
       0.423458         24.1788         23.1357         24.3199 
       0.429607         23.4481         22.4647         23.6203 
       0.435692         22.7834         21.8192          23.016 
       0.441815         22.2272         21.1987         22.4572 
       0.447964         21.7839         20.6104          21.834 
       0.454126         21.0426         20.0567         21.2645 
       0.460267         20.5527         19.5395         20.7771 
       0.466387         19.9733         19.0516         20.2471 
        0.47254         19.6002         18.5803         19.7894 
       0.478662         19.1879         18.1248         19.3159 
       0.484765         18.6773         17.6805          18.876 
       0.490885         18.2236         17.2421         18.5036 
       0.497035         17.9364         16.8092         18.0786 
       0.503198         17.4615         16.3868         17.5805 
       0.509342         17.0539         15.9801         17.2051 
       0.515458         16.6223         15.5915         16.8658 
       0.521598         16.2858          15.218         16.4135 
       0.527764         15.8907         14.8599         16.0457 
       0.533884         15.6089         14.5203          15.713 
           0.54         15.2658         14.1937          15.371 
       0.546137         14.9737          13.876          15.078 
       0.552299         14.6701          13.565         14.7098 
       0.558452         14.2492         13.2619         14.4143 
       0.564573         14.0366         12.9679         14.1853 
       0.570708         13.7591         12.6807         13.8808 
       0.576825         13.4064         12.4021         13.5892 
       0.582926         13.1844         12.1327         13.3363 
       0.589034         12.8025         11.8719         13.0963 
       0.595184         12.5988         11.6188         12.7663 
       0.601379         12.3397         11.3731         12.5788 
       0.607522          12.152         11.1375         12.3239 
       0.613639         11.9818         10.9099         12.0838 
       0.619772          11.669         10.6878         11.8882 
       0.625918         11.5202         10.4707         11.6438 
       0.632068          11.335         10.2591         11.4178 
       0.638161         11.0657         10.0549          11.206 
         0.6443         10.8437         9.85464         10.9913 
       0.650464         10.6146         9.65924           10.83 
       0.656582         10.5014          9.4707         10.6279 
       0.662703         10.3111         9.28733         10.4334 
       0.668861         10.1338         9.10798          10.277 
       0.675024         9.91996         8.93347         10.0739 
       0.681124         9.74144         8.76556         9.89982 
       0.687237         9.59988         8.60185         9.70437 
       0.693381         9.45158         8.44169         9.53215 
       0.699536         9.19902         8.28542         9.37956 
       0.705665         9.07571         8.13379         9.27288 
       0.711789         8.93559         7.98605         9.10597 
       0.717957         8.77601         7.84088         8.93483 
        0.72409         8.62944         7.70006         8.79941 
       0.730186         8.50477         7.56355         8.64094 
       0.736317          8.4095         7.42961         8.50058 
       0.742472         8.27206         7.29846         8.41186 
       0.748622          8.1213         7.17069         8.26912 
        0.75476         7.93816         7.04635         8.11504 
       0.760888         7.84654         6.92525         8.00098 
       0.767043         7.75237         6.80661         7.89229 
       0.773185         7.59123         6.69107         7.78082 
       0.779291         7.50857         6.57892         7.66264 
       0.785407           7.387         6.46923         7.53808 
       0.791564         7.26726         6.36139         7.43051 
       0.797719          7.1662         6.25607         7.29617 
       0.803834         7.07755         6.15383         7.19813 
       0.809972         6.98727         6.05352          7.1234 
       0.816124         6.84654         5.95526         6.99516 
       0.822261         6.73678         5.85946         6.89553 
       0.828378         6.65894         5.76608         6.79946 
       0.834502         6.58555         5.67468         6.69741 
       0.840667         6.45548          5.5847         6.60798 
       0.846816         6.35753         5.49695         6.53491 
       0.852925         6.29694         5.41166         6.44256 
       0.859047         6.20814         5.32803         6.36465 
       0.865192         6.13581         5.24592         6.26918 
       0.871341         6.05428         5.16552         6.18713 
       0.877463         5.97573         5.08718          6.0944 
       0.883569         5.86649         5.01069         6.02651 
       0.889708         5.77295         4.93541         5.94587 
       0.895864         5.71774          4.8615         5.86001 
       0.902008         5.63201         4.78928         5.78929 
       0.908149         5.56505         4.71859          5.7177 
       0.914301         5.46755         4.64923         5.64091 
       0.920448         5.39632         4.58135         5.55606 
       0.926574         5.32201         4.51507         5.49742 
       0.932687         5.27218         4.45027         5.40395 
       0.938823         5.20886         4.38652         5.36752 
       0.944975         5.13481          4.3239         5.27902 
       0.951105         5.07812         4.26273         5.21374 
       0.957225         5.04431         4.20287         5.17037 
       0.963368         4.96578         4.14397         5.09699 
       0.969511         4.89725         4.08621         5.03905 
       0.975621         4.82383         4.02987         4.95552 
       0.981748          4.7802         3.97446         4.90229 
       0.987916         4.72093         3.91976         4.86327 
        0.99406         4.64373         3.86631         4.80577 
        1.00019         4.59209         3.81396         4.75602 
        1.00632         4.54382         3.76265         4.69103 
        1.01246         4.49466         3.71222         4.63572 
        1.01859         4.43954          3.6628         4.57922 
        1.02471         4.38334         3.61436          4.5231 
        1.03085         4.33775         3.56663         4.46664 
        1.03698         4.27745         3.51988         4.41996 
        1.04314         4.23549         3.47378         4.37208 
        1.04929          4.1783         3.42862         4.32465 
        1.05541         4.13433         3.38445         4.28368 
        1.06154         4.08878         3.34097         4.23646 
        1.06769         4.05261         3.29818         4.19225 
        1.07382         3.99748          3.2563         4.14446 
        1.07993         3.94086         3.21525         4.09735 
        1.08607          3.9174         3.17474         4.05167 
        1.09222         3.86792          3.1349         4.00216 
        1.09836         3.83798         3.09579         3.96456 
        1.10449         3.79045         3.05741         3.92482 
        1.11063         3.74303         3.01964         3.87535 
        1.11677         3.70165         2.98253         3.84193 
         1.1229         3.66057         2.94612         3.80638 
        1.12903         3.61921         2.91029         3.76478 
        1.13518         3.59124         2.87503         3.72927 
        1.14131         3.53614         2.84039         3.68595 
        1.14745         3.48382         2.80634         3.63968 
        1.15359         3.46892         2.77284         3.61344 
        1.15973         3.41716         2.73989         3.57689 
        1.16584          3.4017         2.70762         3.54177 
        1.17197         3.36008         2.67584         3.50373 
        1.17811         3.32411         2.64447         3.47097 
        1.18424          3.3046          2.6137         3.43164 
        1.19038           3.263         2.58334         3.39986 
        1.19652         3.22869         2.55347         3.37344 
        1.20267         3.19955         2.52409         3.32697 
        1.20881         3.15829         2.49518         3.30178 
        1.21495         3.13658         2.46677         3.27874 
        1.22108         3.10545         2.43881         3.24353 
         1.2272         3.08396         2.41135         3.20343 
        1.23334         3.04132         2.38426         3.17937 
        1.23949         3.00864         2.35753         3.15873 
        1.24562         2.99085         2.33128         3.12758 
        1.25174         2.95176         2.30548         3.08894 
        1.25789         2.92864         2.27999         3.05958 
        1.26402          2.8907         2.25493         3.02888 
        1.27014         2.86289         2.23032         3.00842 
        1.27628         2.85083           2.206          2.9839 
        1.28244         2.80957         2.18201         2.95113 
        1.28858         2.79061          2.1584         2.92026 
        1.29471         2.76342          2.1352         2.89476 
        1.30084         2.73416         2.11237         2.87825 
        1.30697          2.7169         2.08983         2.85162 
        1.31312         2.67185          2.0676         2.82503 
        1.31925         2.66159         2.04577         2.80378 
        1.32537         2.63786         2.02427         2.77804 
        1.33151         2.61775         2.00301         2.75339 
        1.33765         2.58497         1.98207         2.72813 
        1.34378         2.55841         1.96147         2.70979 
        1.34992         2.54905         1.94116         2.68621 
        1.35606         2.51408         1.92109         2.65367 
         1.3622         2.49953         1.90134         2.63468 
        1.36833         2.47549         1.88193         2.61954 
        1.37445            2.45         1.86279         2.59644 
        1.38059         2.43088         1.84386         2.57368 
        1.38675         2.42132         1.82516         2.54736 
        1.39288         2.38729         1.80679         2.53106 
        1.39901         2.36629         1.78868          2.5118 
        1.40515         2.34978         1.77079         2.48595 
         1.4113         2.32832         1.75315         2.46768 
        1.41742          2.3095         1.73581         2.45609 
        1.42355         2.29848         1.71869         2.42256 
         1.4297         2.26644         1.70174         2.41528 
        1.43585          2.2549         1.68503         2.39772 
        1.44198         2.24105         1.66861         2.36512 
        1.44809         2.20909         1.65244         2.35717 
        1.45423         2.19382         1.63643         2.33014 
        1.46036         2.17664         1.62066          2.3134 
        1.46649         2.15599          1.6051         2.30188 
        1.47263          2.1362         1.58973         2.28294 
        1.47877         2.11682         1.57457         2.26036 
        1.48491         2.10124         1.55959         2.24664 
        1.49104         2.08777         1.54483         2.22704 
        1.49718          2.0735         1.53026         2.21311 
        1.50333         2.05318         1.51585         2.19232 
        1.50947         2.03981         1.50165         2.17449 
         1.5156         2.02326         1.48767         2.16138 
        1.52172         2.00609         1.47386         2.14492 
        1.52787         1.98762          1.4602         2.12663 
          1.534         1.97808         1.44673         2.11161 
        1.54013         1.95468         1.43345         2.09574 
        1.54627         1.93778         1.42031         2.07885 
        1.55241         1.92384         1.40733         2.06355 
        1.55855          1.9113         1.39454         2.04911 
        1.56467         1.89733         1.38194         2.03612 
         1.5708         1.87497         1.36946         2.01752 
        1.57695         1.86892         1.35712         2.00445 
        1.58308         1.85322         1.34496         1.99599 
        1.58922         1.83973         1.33294         1.97871 
        1.59535         1.82567         1.32108         1.96283 
         1.6015         1.81191         1.30934         1.94762 
        1.60764         1.80023         1.29776         1.93601 
        1.61376         1.78459         1.28635         1.92628 
        1.61989         1.77098         1.27506         1.91062 
        1.62604         1.75707         1.26389         1.89769 
        1.63218         1.74943         1.25286         1.88573 
        1.63831         1.72854         1.24199         1.87124 
        1.64444         1.71644         1.23124         1.85645 
        1.65059         1.70704          1.2206         1.84342 
        1.65673         1.69357         1.21009           1.833 
        1.66285          1.6784         1.19974         1.82084 
        1.66898         1.67108         1.18951         1.80537 
        1.67512         1.65382         1.17937         1.79432 
        1.68127         1.64392         1.16935         1.78479 
         1.6874         1.63491         1.15947         1.77308 
        1.69353         1.61774          1.1497         1.75863 
        1.69967           1.607         1.14003         1.74629 
        1.70581         1.60033         1.13047         1.73736 
        1.71193         1.58611         1.12106         1.72792 
        1.71806         1.57757         1.11174         1.71358 
        1.72421         1.56488         1.10251         1.70241 
        1.73035         1.55217         1.09339         1.69184 
        1.73649         1.54342         1.08438          1.6793 
        1.74262         1.53257         1.07548         1.66776 
        1.74876         1.52187         1.06667         1.65907 
        1.75489         1.50877         1.05798         1.64938 
        1.76101         1.49814         1.04939         1.63697 
        1.76715         1.48926         1.04089         1.62627 
        1.77329         1.47865         1.03247         1.61646 
        1.77943         1.46768         1.02414         1.60647 
        1.78557         1.45748         1.01591         1.59645 
        1.79171         1.45014         1.00778         1.58605 
        1.79785         1.43871         0.99973          1.5757 
        1.80399         1.43037        0.991773         1.56556 
        1.81012         1.42277        0.983913         1.55428 
        1.81625         1.40898        0.976143         1.54497 
        1.82239         1.40119        0.968446         1.53869 
        1.82853         1.38631        0.960835         1.53207 
        1.83466         1.38128        0.953315         1.52217 
        1.84078          1.3717        0.945883         1.51047 
        1.84692         1.36469         0.93852         1.50097 
        1.85306         1.35358        0.931226         1.49139 
         1.8592         1.34706        0.924021         1.48214 
        1.86533         1.33686        0.916898         1.47438 
        1.87147         1.32889        0.909841         1.46499 
        1.87761         1.32052        0.902857         1.45632 
