# k  (h/Mpc)    P(k)  (Mpc/h)^3    P_linear(k)  (Mpc/h)^3     P_NL(k)  ShotnoiseSubtracted = false
     0.00783031         280.532          282.79         282.557 
       0.013688         377.108         378.232         377.055 
       0.019231         408.258         408.648         406.847 
      0.0249154         399.643         401.426          400.18 
      0.0312784         368.831         369.322         368.798 
      0.0375637         330.742         330.368         330.097 
      0.0433917         297.098          297.37         297.334 
      0.0492413         271.161         270.967          270.98 
      0.0555754          249.44         249.946         249.879 
      0.0619321         234.843         234.279         234.165 
       0.067871         221.174         221.607         221.385 
      0.0738098         207.938         208.527         208.198 
      0.0800417         192.281         193.159         192.858 
      0.0862327         175.953         176.436         176.233 
      0.0921407         160.059         160.272          160.15 
      0.0982031         144.547          144.92         144.907 
       0.104506         131.716         131.481         131.547 
       0.110769         121.352         121.176         121.208 
       0.116806         113.619         113.884         113.872 
       0.122832           108.5         108.469         108.455 
       0.129052         103.526         103.854         103.812 
       0.135211         98.9022         99.3392         99.2825 
       0.141259         94.1957         94.3835          94.349 
       0.147318         88.8085         88.7546         88.7732 
       0.153489          82.471         82.5861         82.5833 
       0.159709         76.3784         76.4178         76.4805 
       0.165845         71.2499         70.8791         71.0381 
       0.171974         66.2388         66.2262         66.3828 
       0.178125         62.6211         62.5407         62.7549 
       0.184229         59.9443         59.7378         59.9525 
        0.19034         57.3639         57.5131         57.7156 
       0.196428         55.5935         55.5493         55.6985 
       0.202534         53.8446         53.5456         53.7028 
       0.208729         51.4122         51.2986         51.4503 
       0.214876         48.7532          48.825         49.0414 
       0.220989         46.5382         46.2207         46.4662 
       0.227147         43.6098         43.6205         43.8717 
        0.23329         41.2576         41.2198         41.5307 
       0.239377         39.2745         39.1493         39.4955 
       0.245482         37.4445           37.42          37.739 
       0.251667         36.2106         35.9848         36.3333 
       0.257832         34.9363         34.7788         35.1206 
       0.263955         33.8529         33.6899         34.0136 
       0.270079         32.7891         32.6059         32.9153 
        0.27624         31.7871         31.4579          31.751 
       0.282372         30.5511          30.241         30.5562 
        0.28843         29.2001         28.9931         29.3195 
       0.294538         27.9799         27.7431          28.091 
       0.300721         26.9169         26.5446         26.9221 
        0.30691         25.7186         25.4585         25.8438 
       0.313033         24.8013         24.5135          24.894 
       0.319153         23.7788         23.6924         24.0986 
       0.325316         23.3169         22.9593         23.3792 
        0.33145         22.5845         22.2866         22.6824 
       0.337538         21.9292         21.6376         22.0209 
       0.343633         21.2309         20.9825          21.364 
       0.349808          20.597         20.3026         20.6967 
       0.355968         19.9248         19.6138         20.0534 
       0.362074         19.2361          18.937         19.3602 
       0.368217          18.599         18.2806         18.6741 
       0.374374         17.9149         17.6654          18.091 
       0.380519         17.4279         17.1015         17.5159 
       0.386598         16.9395         16.5939         17.0222 
       0.392688         16.5144         16.1277         16.5549 
        0.39888         16.0357          15.684          16.105 
       0.405048         15.6312         15.2603          15.662 
       0.411186         15.2387         14.8458         15.2856 
       0.417313         14.7552         14.4332         14.8547 
       0.423458         14.3839         14.0217         14.4512 
       0.429607         13.9403          13.615         14.0328 
       0.435692         13.5464         13.2238         13.6584 
       0.441815         13.1923         12.8478         13.3062 
       0.447964         12.9073         12.4912         12.9367 
       0.454126          12.487         12.1556         12.5951 
       0.460267         12.1777         11.8422         12.2926 
       0.466387         11.8452         11.5465         11.9798 
        0.47254         11.5984         11.2609         11.6986 
       0.478662         11.3424         10.9848         11.4151 
       0.484765         11.0433         10.7155         11.1493 
       0.490885         10.7741         10.4498         10.9103 
       0.497035         10.5866         10.1875         10.6508 
       0.503198         10.3009         9.93143         10.3631 
       0.509342         10.0647         9.68498         10.1289 
       0.515458         9.80154         9.44947         9.91234 
       0.521598         9.59048          9.2231         9.65498 
       0.527764         9.34979         9.00606          9.4362 
       0.533884         9.18067         8.80021         9.23317 
           0.54         8.97185         8.60231         9.02841 
       0.546137         8.79418         8.40978         8.84467 
       0.552299         8.60304         8.22124         8.63194 
       0.558452         8.37019         8.03757         8.45314 
       0.564573         8.22749         7.85937         8.30302 
       0.570708          8.0576          7.6853         8.12117 
       0.576825         7.85867         7.51649         7.94611 
       0.582926         7.72268         7.35321         7.78962 
       0.589034          7.5018         7.19514         7.64161 
       0.595184         7.37123         7.04173         7.45414 
       0.601379         7.21795         6.89283         7.33042 
       0.607522         7.10188         6.75006         7.18097 
       0.613639         6.99274         6.61213         7.03786 
       0.619772         6.81193         6.47749         6.91492 
       0.625918         6.70468         6.34593         6.76985 
       0.632068         6.59511         6.21766         6.63633 
       0.638161         6.44163         6.09389            6.51 
         0.6443         6.31301         5.97255         6.38259 
       0.650464         6.17493         5.85412         6.27856 
       0.656582         6.09337         5.73986         6.15854 
       0.662703         5.98149         5.62872         6.04279 
       0.668861         5.88311         5.52002         5.94455 
       0.675024         5.75511         5.41426         5.82832 
       0.681124         5.64338          5.3125          5.7225 
       0.687237         5.56226         5.21327         5.61003 
       0.693381         5.46828         5.11621         5.50575 
       0.699536         5.32695          5.0215         5.41426 
       0.705665         5.24662          4.9296          5.3429 
       0.711789         5.16674         4.84006         5.24668 
       0.717957         5.06804         4.75208         5.14712 
        0.72409         4.98418         4.66674         5.06286 
       0.730186         4.90295           4.584         4.97041 
       0.736317         4.84559         4.50282         4.88656 
       0.742472         4.76212         4.42334         4.82578 
       0.748622         4.67255          4.3459         4.74493 
        0.75476         4.57026         4.27054         4.65506 
       0.760888         4.50672         4.19715         4.58481 
       0.767043         4.45594         4.12524          4.5165 
       0.773185         4.36297         4.05522         4.44956 
       0.779291         4.30512         3.98725         4.37887 
       0.785407         4.23593         3.92077          4.3065 
       0.791564         4.16816         3.85541         4.24111 
       0.797719         4.11089         3.79158         4.16435 
       0.803834         4.05115         3.72962         4.10592 
       0.809972         3.99099         3.66883         4.05483 
       0.816124         3.91594         3.60927         3.98261 
       0.822261         3.84886         3.55121         3.92289 
       0.828378         3.80332         3.49462         3.86514 
       0.834502         3.75712         3.43922         3.80367 
       0.840667         3.68011         3.38469         3.75174 
       0.846816         3.62627          3.3315         3.70808 
       0.852925         3.58937         3.27982         3.64987 
       0.859047         3.53604         3.22913         3.60554 
       0.865192         3.48519         3.17937          3.5487 
       0.871341         3.43493         3.13064         3.49687 
       0.877463         3.39591         3.08316          3.4445 
       0.883569         3.33283          3.0368         3.40249 
       0.889708         3.28133         2.99118         3.35506 
       0.895864         3.24168         2.94638         3.30574 
       0.902008         3.18957         2.90261         3.26126 
       0.908149         3.14887         2.85977         3.21988 
       0.914301         3.09066         2.81773         3.17154 
       0.920448         3.05309         2.77659         3.12572 
       0.926574         3.00864         2.73643         3.08822 
       0.932687         2.97408         2.69715         3.03836 
       0.938823         2.94332         2.65852         3.01313 
       0.944975          2.8999         2.62056          2.9607 
       0.951105         2.86413         2.58349         2.92321 
       0.957225         2.83909         2.54721         2.89435 
       0.963368         2.79556         2.51151         2.85189 
       0.969511         2.75289          2.4765         2.81665 
       0.975621         2.71004         2.44236          2.7703 
       0.981748         2.68714         2.40878         2.73851 
       0.987916         2.65014         2.37563         2.71397 
        0.99406         2.60852         2.34323         2.68093 
        1.00019          2.5832         2.31151         2.64873 
        1.00632         2.54454         2.28041         2.61125 
        1.01246           2.515         2.24984         2.57756 
        1.01859         2.48696          2.2199         2.54784 
        1.02471         2.45232         2.19053         2.51734 
        1.03085         2.42821         2.16161         2.48136 
        1.03698         2.39247         2.13328         2.45155 
        1.04314         2.36707         2.10533         2.42489 
        1.04929         2.33416         2.07796         2.39637 
        1.05541         2.31015          2.0512         2.37206 
        1.06154         2.27992         2.02484         2.34421 
        1.06769         2.25339         1.99891         2.31611 
        1.07382         2.22838         1.97353          2.2889 
        1.07993         2.19379         1.94865         2.26198 
        1.08607         2.17993          1.9241          2.2366 
        1.09222         2.14891         1.89995         2.20785 
        1.09836         2.13347         1.87625           2.186 
        1.10449         2.10661         1.85299         2.16185 
        1.11063         2.07537          1.8301         2.13314 
        1.11677         2.05014         1.80761         2.11325 
         1.1229         2.02808         1.78554         2.09096 
        1.12903         2.00291         1.76382         2.06644 
        1.13518         1.98801         1.74246          2.0451 
        1.14131         1.95792         1.72146          2.0224 
        1.14745         1.92568         1.70082           1.996 
        1.15359         1.91616         1.68052         1.97815 
        1.15973          1.8854         1.66055         1.95827 
        1.16584         1.87935         1.64099         1.93534 
        1.17197         1.85306         1.62173         1.91468 
        1.17811         1.83327         1.60272         1.89672 
        1.18424         1.82149         1.58407         1.87291 
        1.19038          1.7949         1.56567         1.85436 
        1.19652         1.77308         1.54757         1.83719 
        1.20267         1.76032         1.52976         1.81214 
        1.20881         1.73457         1.51224         1.79725 
        1.21495          1.7228         1.49502         1.78378 
        1.22108         1.70499         1.47807         1.76181 
         1.2272         1.69051         1.46144         1.74021 
        1.23334         1.66804         1.44502         1.72544 
        1.23949         1.64934         1.42881         1.71201 
        1.24562         1.63626         1.41291         1.69388 
        1.25174          1.6176         1.39727         1.67333 
        1.25789         1.60309         1.38182         1.65616 
        1.26402         1.58033         1.36664         1.63977 
        1.27014         1.56531         1.35172         1.62508 
        1.27628         1.55702         1.33698         1.60913 
        1.28244         1.53312         1.32244         1.59228 
        1.28858         1.52093         1.30813         1.57417 
        1.29471         1.50818         1.29407         1.56073 
        1.30084         1.49007         1.28023         1.55038 
        1.30697         1.47668         1.26657         1.53434 
        1.31312         1.45474          1.2531         1.51901 
        1.31925         1.44692         1.23987         1.50664 
        1.32537         1.43432         1.22684          1.4921 
        1.33151         1.42204         1.21395         1.47779 
        1.33765         1.40589         1.20126         1.46385 
        1.34378         1.38847         1.18878         1.45176 
        1.34992         1.38148         1.17647          1.4387 
        1.35606         1.36401          1.1643         1.42131 
         1.3622         1.35359         1.15234         1.40948 
        1.36833         1.33996         1.14057         1.39905 
        1.37445          1.3238         1.12897         1.38672 
        1.38059         1.31192          1.1175         1.37304 
        1.38675         1.30948         1.10616         1.35964 
        1.39288          1.2899         1.09503         1.34803 
        1.39901         1.27864         1.08406         1.33709 
        1.40515         1.26823         1.07321         1.32333 
         1.4113         1.25444         1.06252         1.31267 
        1.41742         1.24333         1.05202         1.30535 
        1.42355          1.2383         1.04163         1.28767 
         1.4297         1.22045         1.03136         1.28124 
        1.43585         1.21186         1.02124         1.27009 
        1.44198         1.20571         1.01129         1.25321 
        1.44809         1.18808         1.00149         1.24831 
        1.45423         1.17911        0.991784         1.23256 
        1.46036           1.169        0.982227         1.22356 
        1.46649         1.15856        0.972795         1.21667 
        1.47263         1.14672         0.96348         1.20512 
        1.47877         1.13616        0.954292         1.19359 
        1.48491         1.12698         0.94521         1.18582 
        1.49104         1.11648        0.936267          1.1735 
        1.49718         1.10965        0.927433         1.16643 
        1.50333         1.09864        0.918701         1.15292 
        1.50947         1.09041          0.9101         1.14289 
         1.5156         1.08042        0.901622          1.1363 
        1.52172         1.07065        0.893253         1.12556 
        1.52787         1.06061        0.884975         1.11603 
          1.534          1.0546        0.876812         1.10819 
        1.54013         1.04073        0.868761         1.09911 
        1.54627         1.03337        0.860798         1.08941 
        1.55241         1.02467        0.852933         1.08046 
        1.55855           1.015        0.845179         1.07234 
        1.56467         1.01016        0.837544         1.06483 
         1.5708        0.998228        0.829982         1.05452 
        1.57695        0.993264        0.822503         1.04602 
        1.58308        0.984138        0.815134         1.04025 
        1.58922        0.976233        0.807851         1.03163 
        1.59535        0.968116         0.80066         1.02249 
         1.6015        0.960201        0.793547         1.01353 
        1.60764        0.953078        0.786525         1.00705 
        1.61376        0.942954        0.779609         1.00164 
        1.61989        0.937472         0.77277        0.993021 
        1.62604        0.929793        0.765999        0.985138 
        1.63218        0.924234        0.759313        0.978219 
        1.63831        0.914461        0.752724        0.970576 
        1.64444        0.907071        0.746211        0.962038 
        1.65059         0.90041         0.73976        0.954551 
        1.65673        0.893089        0.733393         0.94836 
        1.66285        0.885518        0.727119        0.941588 
        1.66898         0.88062        0.720917        0.933393 
        1.67512        0.871124        0.714776         0.92661 
        1.68127        0.865046        0.708701        0.920593 
         1.6874        0.860273        0.702711        0.914237 
        1.69353        0.851929        0.696794        0.906987 
        1.69967           0.846        0.690932        0.899665 
        1.70581        0.839371         0.68514        0.893757 
        1.71193        0.832789        0.679438        0.888151 
        1.71806        0.826662        0.673788        0.880724 
        1.72421         0.82075        0.668192        0.874967 
        1.73035        0.813423        0.662666        0.868612 
        1.73649         0.80918        0.657205        0.860818 
        1.74262        0.802564         0.65181        0.854826 
        1.74876        0.795786        0.646472        0.850175 
        1.75489         0.78996        0.641206        0.844585 
        1.76101        0.782606           0.636        0.837717 
        1.76715        0.778013        0.630846        0.832147 
        1.77329        0.772221        0.625742        0.826934 
        1.77943        0.766217        0.620694        0.821109 
        1.78557        0.760702        0.615709        0.814795 
        1.79171        0.755434        0.610778        0.808376 
        1.79785        0.749915        0.605901        0.802799 
        1.80399        0.744336        0.601078        0.797984 
        1.81012        0.739693        0.596315        0.790934 
        1.81625        0.733169        0.591606        0.785254 
        1.82239         0.72948        0.586941        0.782203 
        1.82853        0.720874        0.582328        0.777888 
        1.83466        0.717642         0.57777        0.771906 
        1.84078        0.711984        0.573266         0.76581 
        1.84692        0.708144        0.568803        0.761243 
        1.85306        0.702706        0.564383        0.755707 
         1.8592         0.69808        0.560017        0.749894 
        1.86533        0.693247        0.555699         0.74566 
        1.87147        0.687992        0.551423        0.740771 
        1.87761        0.684158         0.54719         0.73608 
