# k  (h/Mpc)    Pcb(k)  (Mpc/h)^3    Pcb_linear(k) (Mpc/h)^3    Pcb_NL(k) (Mpc/h)^3   ShotnoiseSubtracted = false
     0.00783031         3464.88         3500.86         3499.15 
       0.013688         4691.81         4680.61         4662.71 
       0.019231         5056.98         5056.14         5026.55 
      0.0249154         4910.71         4966.31         4939.01 
      0.0312784         4544.03         4568.84          4544.7 
      0.0375637            4086          4086.8         4063.11 
      0.0433917         3643.17         3678.51         3654.61 
      0.0492413         3338.42         3351.84         3328.16 
      0.0555754         3043.74         3091.77         3067.32 
      0.0619321         2901.78         2897.94         2872.28 
       0.067871         2702.07         2741.18         2714.75 
      0.0738098         2537.93         2579.37         2545.64 
      0.0800417         2333.77         2389.26         2356.58 
      0.0862327         2144.96          2182.4         2157.88 
      0.0921407         1961.48         1982.46         1959.79 
      0.0982031         1766.67         1792.55         1779.77 
       0.104506         1630.45         1626.33         1621.65 
       0.110769          1502.5         1498.85         1490.09 
       0.116806         1401.27         1408.65         1399.94 
       0.122832         1343.14         1341.67         1335.47 
       0.129052         1269.53         1284.58          1278.5 
       0.135211         1213.56         1228.74         1223.11 
       0.141259         1163.28         1167.44         1165.27 
       0.147318         1101.05         1097.82         1100.91 
       0.153489         1018.37         1021.52         1019.48 
       0.159709          953.04         945.221         950.075 
       0.165845           901.6         876.712         892.704 
       0.171974         838.364         819.159           835.5 
       0.178125         795.495         773.574         797.837 
       0.184229         764.765         738.903         763.257 
        0.19034         721.204         711.385         735.517 
       0.196428         708.723         687.094          706.39 
       0.202534         690.091         662.311         683.471 
       0.208729         658.194         634.517         654.057 
       0.214876         622.837          603.92         631.209 
       0.220989         603.428         571.707         602.267 
       0.227147         565.243         539.545         571.257 
        0.23329         539.974         509.851         548.186 
       0.239377         523.189          484.24         525.593 
       0.245482         491.277          462.85         501.297 
       0.251667         483.749         445.097         487.329 
       0.257832         468.493         430.181         471.959 
       0.263955         453.507         416.712         457.471 
       0.270079         439.972         403.305         443.345 
        0.27624         432.735         389.106         427.919 
       0.282372         415.454         374.053         414.324 
        0.28843         400.772         358.617         399.336 
       0.294538          384.12         343.155          386.72 
       0.300721         378.337         328.331         375.031 
        0.30691         360.948         314.897         363.392 
       0.313033         351.711          303.21         350.817 
       0.319153         337.781         293.051         342.471 
       0.325316         330.612         283.984         335.268 
        0.33145         320.636         275.664         324.226 
       0.337538         316.139         267.636         315.674 
       0.343633           306.4         259.533         309.486 
       0.349808         297.665         251.124         302.141 
       0.355968         291.916         242.604         295.503 
       0.362074         283.987         234.232         287.021 
       0.368217          276.65         226.114         277.339 
       0.374374         268.318         218.504         271.394 
       0.380519         262.689         211.529          264.26 
       0.386598         256.327          205.25         258.465 
       0.392688         252.766         199.485          253.49 
        0.39888         246.352         193.996         246.952 
       0.405048         241.476         188.755          243.04 
       0.411186         236.389         183.628         238.071 
       0.417313         231.082         178.524         231.117 
       0.423458         226.488         173.435         226.622 
       0.429607         220.935         168.405         221.788 
       0.435692         214.481         163.566         217.466 
       0.441815         212.993         158.915         214.776 
       0.447964         209.592         154.504         209.656 
       0.454126         200.913         150.354         204.527 
       0.460267         198.606         146.476         202.126 
       0.466387         195.522         142.819          197.84 
        0.47254          192.24         139.286         194.638 
       0.478662         189.858         135.871         190.909 
       0.484765         185.248          132.54         186.502 
       0.490885          182.18         129.254         184.226 
       0.497035         179.781         126.009         181.715 
       0.503198         175.183         122.842          178.18 
       0.509342         172.197         119.794         175.588 
       0.515458         169.874         116.881         173.948 
       0.521598          167.96         114.081         169.778 
       0.527764         165.234         111.396         166.101 
       0.533884         162.355          108.85         163.993 
           0.54         159.986         106.402         161.752 
       0.546137         158.578         104.021         160.006 
       0.552299         156.293         101.689         156.742 
       0.558452         152.751         99.4169         154.179 
       0.564573         150.021         97.2126         152.699 
       0.570708         148.569         95.0597         150.331 
       0.576825         146.127         92.9717         147.882 
       0.582926         143.907          90.952         145.748 
       0.589034         141.032          88.997         144.284 
       0.595184         139.712         87.0993          142.12 
       0.601379         138.471         85.2575         140.788 
       0.607522         135.037         83.4917         137.942 
       0.613639         135.001         81.7855         136.585 
       0.619772         131.775         80.1203         134.374 
       0.625918         130.821          78.493         133.478 
       0.632068         129.251         76.9063         131.084 
       0.638161         127.666         75.3755         130.067 
         0.6443         125.992         73.8746         127.945 
       0.650464         124.336         72.4098         125.844 
       0.656582          123.11         70.9964         125.063 
       0.662703          120.78         69.6217         123.025 
       0.668861         119.786         68.2773         121.896 
       0.675024         118.284         66.9691         120.231 
       0.681124         116.879         65.7104         118.859 
       0.687237         114.971         64.4831         117.324 
       0.693381         113.858         63.2825         115.927 
       0.699536         112.356          62.111         115.268 
       0.705665         112.898         60.9743         114.189 
       0.711789         109.903         59.8668         111.953 
       0.717957          109.36         58.7785         111.289 
        0.72409         107.762         57.7229         110.673 
       0.730186         106.072         56.6995         109.166 
       0.736317         105.885         55.6955         107.714 
       0.742472         104.422         54.7124         106.721 
       0.748622         103.744         53.7545         105.459 
        0.75476         102.521         52.8224         104.444 
       0.760888         101.237         51.9146         103.276 
       0.767043         100.194         51.0252         102.722 
       0.773185         99.1094         50.1591         101.866 
       0.779291         98.4392         49.3184         100.816 
       0.785407         97.6504         48.4961          99.509 
       0.791564         96.1996         47.6876         98.5518 
       0.797719         95.0306         46.8982         97.8426 
       0.803834         94.7218         46.1317         96.6775 
       0.809972         93.1264         45.3798          95.935 
       0.816124         92.2922         44.6431         95.2461 
       0.822261         91.8195          43.925         94.0497 
       0.828378         90.8969          43.225         92.8935 
       0.834502         89.9715         42.5398         92.7651 
       0.840667         89.3041         41.8652         91.8534 
       0.846816         88.2977         41.2074          90.968 
       0.852925         87.4283         40.5681         90.3511 
       0.859047         86.3204         39.9412          89.212 
       0.865192         86.1301         39.3257         88.6698 
       0.871341         85.5113         38.7229         87.8556 
       0.877463         84.0428         38.1357         87.2408 
       0.883569         83.5996         37.5623         86.6662 
       0.889708         83.1807         36.9979         85.7764 
       0.895864         82.3323         36.4438         85.1442 
       0.902008         81.7498         35.9025         84.4598 
       0.908149         81.1068         35.3725         83.8078 
       0.914301         80.3968         34.8526           83.36 
       0.920448         79.5117         34.3437         82.5142 
       0.926574         79.1161         33.8469         81.5736 
       0.932687         78.4385         33.3611         81.2701 
       0.938823         77.3705         32.8832         80.4655 
       0.944975         77.2465         32.4137         79.7768 
       0.951105          76.454         31.9552         79.4637 
       0.957225         75.5834         31.5065         78.8433 
       0.963368         75.2598         31.0649         78.0226 
       0.969511         74.8127         30.6319         77.5234 
       0.975621         74.2163         30.2096         77.3221 
       0.981748           73.41         29.7942         76.5617 
       0.987916         73.0701         29.3842         76.0674 
        0.99406         72.6785         28.9835           75.58 
        1.00019         71.6014         28.5911         75.0336 
        1.00632         71.4587         28.2064         74.5571 
        1.01246         70.7313         27.8284         73.9436 
        1.01859         70.0497         27.4579          73.418 
        1.02471         70.1894         27.0948          73.032 
        1.03085         69.3663          26.737         72.4793 
        1.03698         68.6274         26.3865         71.9336 
        1.04314         67.9848         26.0409         71.3629 
        1.04929         67.8359         25.7024         71.1182 
        1.05541         67.1453         25.3713         70.8202 
        1.06154         66.9185         25.0453         70.0972 
        1.06769         66.3119         24.7246         69.7082 
        1.07382         65.9285         24.4106         69.3175 
        1.07993          65.715         24.1028           68.72 
        1.08607         65.0099         23.7992         68.2813 
        1.09222         64.7735         23.5005         67.9189 
        1.09836         64.1614         23.2074         67.5253 
        1.10449         63.8199         22.9196         66.9658 
        1.11063         62.9858         22.6365         66.5925 
        1.11677         62.7953         22.3583         66.2121 
         1.1229         62.6025         22.0854         65.8322 
        1.12903         61.7452         21.8168         65.4203 
        1.13518         61.6283         21.5525         64.9379 
        1.14131          61.472         21.2927         64.6754 
        1.14745         60.7365         21.0375         64.2533 
        1.15359         60.4711         20.7864         64.0792 
        1.15973         59.8541         20.5394         63.5758 
        1.16584         59.4679         20.2975         63.1566 
        1.17197         59.3702         20.0592         62.7256 
        1.17811         58.8262          19.824         62.2404 
        1.18424         58.3106         19.5934         61.9358 
        1.19038         58.2832         19.3658         61.8355 
        1.19652         57.8734         19.1419          61.253 
        1.20267         57.4435         18.9216         61.1155 
        1.20881         57.0446         18.7049          60.675 
        1.21495         56.6531         18.4919         60.4514 
        1.22108          56.274         18.2823         59.9764 
         1.2272         55.7316         18.0765         59.7609 
        1.23334         55.5676         17.8734         59.4237 
        1.23949         55.3026          17.673         58.9748 
        1.24562         55.0391         17.4763         58.6922 
        1.25174          54.707         17.2828         58.4549 
        1.25789         54.4188         17.0917         58.0574 
        1.26402         54.0679         16.9039         57.7418 
        1.27014         53.5804         16.7194         57.4572 
        1.27628         53.3533         16.5371         57.1175 
        1.28244         52.9854         16.3572          56.964 
        1.28858         52.7686         16.1803         56.5923 
        1.29471         52.4986         16.0064         56.3291 
        1.30084         52.1532         15.8352         55.9468 
        1.30697         51.7407         15.6663         55.6041 
        1.31312         51.3659         15.4996         55.4511 
        1.31925         51.2329         15.3359         55.1364 
        1.32537         50.9796         15.1748         54.8704 
        1.33151         50.6293         15.0154           54.61 
        1.33765         50.5186         14.8584         54.3619 
        1.34378         50.2816          14.704         54.0541 
        1.34992          49.487         14.5517         53.7923 
        1.35606         49.4131         14.4013         53.6348 
         1.3622         49.1131         14.2533         53.3639 
        1.36833         48.9139         14.1077         53.0764 
        1.37445         48.8116         13.9643         52.7665 
        1.38059         48.5897         13.8224         52.5832 
        1.38675         48.1728         13.6822         52.3371 
        1.39288         47.9487         13.5445         52.1282 
        1.39901         47.5385         13.4087         51.8734 
        1.40515         47.3229         13.2746         51.5537 
         1.4113         47.2311         13.1423         51.3377 
        1.41742         46.6714         13.0124          51.208 
        1.42355         46.6895          12.884         50.7677 
         1.4297          46.301         12.7569         50.5367 
        1.43585         46.2287         12.6317         50.4189 
        1.44198         45.8222         12.5086         50.1727 
        1.44809         45.6376         12.3874         49.8667 
        1.45423          45.464         12.2674         49.6092 
        1.46036         45.2282         12.1492         49.3946 
        1.46649         44.9537         12.0325         49.2019 
        1.47263         44.7124         11.9173         49.0325 
        1.47877         44.4871         11.8036         48.8574 
        1.48491         44.2437         11.6913         48.4943 
        1.49104         44.0877         11.5807         48.3378 
        1.49718         43.7041         11.4714          48.102 
        1.50333         43.5479         11.3634         47.9618 
        1.50947         43.3089          11.257         47.8125 
         1.5156         43.0686         11.1522         47.5585 
        1.52172         42.7643         11.0487         47.2835 
        1.52787          42.769         10.9463         47.0738 
          1.534         42.4315         10.8453         46.9216 
        1.54013         42.1458         10.7457         46.6571 
        1.54627         42.0946         10.6472          46.417 
        1.55241         41.8179         10.5499         46.2906 
        1.55855         41.6048          10.454         46.1421 
        1.56467         41.3679         10.3596         45.9049 
         1.5708         41.1904         10.2661         45.7324 
        1.57695         40.8555         10.1735         45.5085 
        1.58308         40.9204         10.0824         45.2558 
        1.58922          40.611         9.99231         45.1699 
        1.59535         40.2942         9.90336         45.0368 
         1.6015         40.1704         9.81539         44.7625 
        1.60764         40.0507         9.72854         44.5377 
        1.61376         39.8371         9.64298         44.4032 
        1.61989         39.4569         9.55839         44.1611 
        1.62604         39.3873         9.47464         44.0844 
        1.63218         39.0848         9.39195         43.9746 
        1.63831         39.0033         9.31045         43.6956 
        1.64444         38.8168         9.22989         43.4846 
        1.65059         38.5226         9.15009          43.347 
        1.65673         38.4424         9.07134         43.1798 
        1.66285         38.2472         8.99374         43.0148 
        1.66898         37.9926         8.91703         42.8887 
        1.67512         37.8691         8.84107         42.7043 
        1.68127         37.5739         8.76593         42.4987 
         1.6874         37.5013         8.69184         42.2979 
        1.69353         37.3595         8.61865         42.1053 
        1.69967         37.1115         8.54614         41.9497 
        1.70581         36.8969          8.4745         41.8562 
        1.71193         36.6661         8.40397         41.7272 
        1.71806         36.6216         8.33408         41.4504 
        1.72421         36.3902         8.26487         41.2782 
        1.73035         36.2884         8.19652         41.1716 
        1.73649         36.0365         8.12897         41.0224 
        1.74262         35.8593         8.06224         40.8182 
        1.74876         35.7259         7.99622         40.6641 
        1.75489         35.4941         7.93108         40.5354 
        1.76101         35.3734         7.86669         40.3803 
        1.76715         35.2123         7.80293         40.2168 
        1.77329         35.0905         7.73981         40.0525 
        1.77943         34.9175         7.67736         39.9175 
        1.78557         34.7109          7.6157         39.8097 
        1.79171         34.5581         7.55472         39.6404 
        1.79785         34.4205         7.49439         39.4834 
        1.80399         34.2773         7.43474          39.399 
        1.81012         34.1394         7.37582         39.1694 
        1.81625         33.9572         7.31757          38.951 
        1.82239         33.8146         7.25987         38.8572 
        1.82853          33.535         7.20282         38.7522 
        1.83466         33.4234         7.14644         38.6246 
        1.84078          33.197         7.09073         38.5039 
        1.84692         33.1765         7.03553         38.4032 
        1.85306         32.9068         6.98085         38.2208 
         1.8592         32.8372         6.92684         38.0217 
        1.86533          32.625         6.87344         37.9147 
        1.87147         32.5264         6.82055         37.7981 
