# k  (h/Mpc)    Pcb(k)  (Mpc/h)^3    Pcb_linear(k) (Mpc/h)^3    Pcb_NL(k) (Mpc/h)^3   ShotnoiseSubtracted = false
     0.00783031         10228.3         10362.9         10352.6 
       0.013688         13944.9         13851.6         13774.4 
       0.019231         14951.9         14961.2         14828.8 
      0.0249154         14385.8         14694.4         14536.4 
      0.0312784         13327.6         13517.7         13332.3 
      0.0375637         12011.8         12091.1         11897.2 
      0.0433917           10616           10883         10668.4 
      0.0492413         9763.07         9916.35         9698.21 
      0.0555754         8799.15         9146.84         8928.91 
      0.0619321         8481.47         8573.34         8347.51 
       0.067871          7796.5         8109.52            7886 
      0.0738098         7318.61         7630.77         7349.62 
      0.0800417         6682.05         7068.33         6795.74 
      0.0862327         6168.19         6456.32         6247.33 
      0.0921407         5683.95         5864.81         5668.86 
      0.0982031         5120.89         5302.99         5180.41 
       0.104506          4786.3         4811.24         4751.11 
       0.110769         4415.81         4434.11         4349.37 
       0.116806         4131.54         4167.26         4083.28 
       0.122832         3950.26         3969.12          3903.1 
       0.129052         3699.41         3800.21         3738.75 
       0.135211         3541.37         3635.02         3572.93 
       0.141259         3413.72         3453.67         3422.59 
       0.147318         3241.85         3247.69         3245.21 
       0.153489         2991.76         3021.97         2992.21 
       0.159709         2834.32         2796.26         2814.48 
       0.165845         2723.57         2593.59         2683.48 
       0.171974         2556.68         2423.33         2525.74 
       0.178125         2429.57         2288.47            2443 
       0.184229         2334.52          2185.9         2331.75 
        0.19034         2205.67          2104.5         2254.26 
       0.196428         2176.67         2032.64         2164.82 
       0.202534         2107.55         1959.32         2103.86 
       0.208729         2022.29         1877.09         2006.35 
       0.214876         1937.58         1786.58         1955.84 
       0.220989         1881.43         1691.28         1887.03 
       0.227147         1792.76         1596.14         1811.14 
        0.23329          1724.2         1508.29         1755.14 
       0.239377         1699.17         1432.53         1689.21 
       0.245482          1594.7         1369.25         1617.15 
       0.251667         1586.63         1316.73         1584.47 
       0.257832         1529.47          1272.6         1538.71 
       0.263955         1483.02         1232.76         1498.25 
       0.270079         1438.13          1193.1         1459.07 
        0.27624         1425.68         1151.09         1416.08 
       0.282372         1365.29         1106.56         1383.21 
        0.28843         1356.24          1060.9         1345.71 
       0.294538          1292.3         1015.15          1309.7 
       0.300721            1288           971.3         1272.37 
        0.30691         1235.32         931.558            1252 
       0.313033         1213.05         896.984         1214.84 
       0.319153         1192.67         866.933         1184.75 
       0.325316         1154.27         840.108         1169.18 
        0.33145         1129.09         815.496         1130.48 
       0.337538         1114.75         791.746         1112.43 
       0.343633         1087.43         767.774         1100.38 
       0.349808         1054.09         742.898         1080.26 
       0.355968         1048.56         717.695         1061.45 
       0.362074         1035.83         692.928          1038.4 
       0.368217         1006.52         668.912         1010.97 
       0.374374         968.747         646.399         994.177 
       0.380519          968.01         625.765         974.734 
       0.386598         946.129          607.19         962.361 
       0.392688         942.711         590.134         941.069 
        0.39888         916.092         573.897         930.012 
       0.405048         904.318         558.394          919.18 
       0.411186         891.081         543.227          898.36 
       0.417313         873.845         528.127         883.805 
       0.423458         860.923          513.07         870.635 
       0.429607         846.922         498.192         853.159 
       0.435692         830.376         483.876         838.958 
       0.441815         826.453         470.116         835.071 
       0.447964         808.257         457.069         821.544 
       0.454126         796.742         444.792         801.783 
       0.460267         782.451          433.32         800.211 
       0.466387         773.703         422.499         785.101 
        0.47254         763.279         412.049         776.685 
       0.478662          759.68         401.946         765.255 
       0.484765         740.242         392.092         753.601 
       0.490885          734.62         382.372         742.171 
       0.497035         719.786         372.771         735.591 
       0.503198         714.123         363.402         726.034 
       0.509342         706.542         354.385         715.811 
       0.515458         702.537         345.767         712.121 
       0.521598         687.709         337.484         702.997 
       0.527764         672.697         329.543          694.79 
       0.533884           673.3          322.01         686.999 
           0.54         664.768         314.769         678.942 
       0.546137         661.399         307.723         670.895 
       0.552299         650.781         300.825         662.088 
       0.558452         647.519         294.104          656.81 
       0.564573         637.225         287.583         651.157 
       0.570708         630.621         281.214         645.499 
       0.576825          614.76         275.037         635.357 
       0.582926         616.489         269.062         629.287 
       0.589034         610.756         263.279         620.224 
       0.595184         604.474         257.665         615.335 
       0.601379         597.552         252.217         610.618 
       0.607522         589.436         246.993         603.319 
       0.613639         589.741         241.945         599.806 
       0.619772         574.066         237.019         598.431 
       0.625918         572.766         232.205         590.493 
       0.632068         565.386         227.511         584.923 
       0.638161         563.376         222.983         576.628 
         0.6443         552.221         218.542         574.062 
       0.650464         550.398         214.209         565.024 
       0.656582         548.813         210.028         560.675 
       0.662703         544.516         205.961         558.625 
       0.668861         534.677         201.984         554.625 
       0.675024          530.89         198.114         550.138 
       0.681124         528.112          194.39         541.513 
       0.687237         523.085          190.76         537.193 
       0.693381         516.934         187.208         533.068 
       0.699536         509.804         183.742         529.674 
       0.705665         508.663          180.38         524.725 
       0.711789         504.082         177.103         520.355 
       0.717957         499.495         173.884         517.971 
        0.72409         496.119         170.761           513.6 
       0.730186         490.316         167.734         509.508 
       0.736317         486.733         164.763         504.175 
       0.742472         484.909         161.855         499.883 
       0.748622         479.332         159.021         496.078 
        0.75476         473.437         156.264         496.022 
       0.760888         468.488         153.579         489.863 
       0.767043         469.111         150.947         485.865 
       0.773185         462.822         148.385         482.434 
       0.779291         457.893         145.898         478.225 
       0.785407         454.876         143.466         475.601 
       0.791564         450.013         141.074         472.896 
       0.797719          447.61         138.738         468.485 
       0.803834         444.013         136.471         466.161 
       0.809972         441.342         134.247         463.114 
       0.816124         441.226         132.067         456.852 
       0.822261          433.94         129.943         454.852 
       0.828378         431.893         127.872          451.76 
       0.834502         428.414         125.845         449.883 
       0.840667         423.445          123.85         446.487 
       0.846816         421.904         121.903         443.547 
       0.852925         417.639         120.012         440.513 
       0.859047         417.446         118.158         437.154 
       0.865192         412.935         116.337         434.273 
       0.871341         409.533         114.553         431.804 
       0.877463         407.098         112.816          428.94 
       0.883569         403.938          111.12         426.338 
       0.889708         401.027          109.45         422.714 
       0.895864         396.922         107.811         420.419 
       0.902008         395.494          106.21         417.775 
       0.908149         392.712         104.642         413.958 
       0.914301         388.334         103.104         411.684 
       0.920448         385.386         101.599         408.342 
       0.926574         381.465         100.129         405.983 
       0.932687         381.868         98.6918         402.929 
       0.938823         376.775         97.2781         402.416 
       0.944975         376.689         95.8892         399.411 
       0.951105         372.299         94.5328         396.029 
       0.957225         369.557         93.2052          394.28 
       0.963368         365.566          91.899         391.488 
       0.969511         363.782         90.6181         388.706 
       0.975621         360.937         89.3687         387.116 
       0.981748         360.597           88.14         384.376 
       0.987916         357.295         86.9269         382.954 
        0.99406         351.892         85.7414         380.473 
        1.00019          351.81         84.5807          376.49 
        1.00632         349.418         83.4427         374.508 
        1.01246         346.276         82.3243         372.191 
        1.01859         346.412         81.2284         369.758 
        1.02471         341.777         80.1541         368.522 
        1.03085          338.93         79.0957         366.902 
        1.03698         338.136         78.0589         364.951 
        1.04314           334.9         77.0365         362.223 
        1.04929         332.018          76.035         359.508 
        1.05541         331.272         75.0556          357.34 
        1.06154         327.009         74.0912         355.306 
        1.06769         325.483         73.1424         353.171 
        1.07382         323.719         72.2136         350.949 
        1.07993         321.407         71.3031          349.44 
        1.08607         320.513         70.4048         346.929 
        1.09222         317.588         69.5213         344.731 
        1.09836         314.972         68.6541         343.894 
        1.10449         311.856         67.8029         341.464 
        1.11063          309.53         66.9653         339.219 
        1.11677         308.883         66.1424         337.388 
         1.1229         307.014         65.3349         335.937 
        1.12903         304.175         64.5403         334.158 
        1.13518         301.936         63.7584         331.875 
        1.14131         300.243           62.99         330.208 
        1.14745         299.014         62.2349         328.271 
        1.15359          296.29         61.4921         326.462 
        1.15973         295.042         60.7613         324.592 
        1.16584          292.22         60.0458          322.08 
        1.17197         291.648         59.3409         320.903 
        1.17811         288.849         58.6452         319.589 
        1.18424         286.625         57.9629         318.096 
        1.19038          285.33         57.2896         316.256 
        1.19652         283.036         56.6273         314.708 
        1.20267         282.268         55.9756          311.94 
        1.20881         280.121         55.3344          311.07 
        1.21495         277.672         54.7044         308.722 
        1.22108         276.399         54.0844         306.887 
         1.2272         274.461         53.4755         304.644 
        1.23334         272.403         52.8747         303.349 
        1.23949         271.219         52.2818         302.734 
        1.24562         269.441         51.6998         300.797 
        1.25174         266.419         51.1275         299.479 
        1.25789         264.716         50.5623         297.771 
        1.26402         263.717         50.0067         296.107 
        1.27014         261.676         49.4608         294.497 
        1.27628         260.174         48.9216         293.563 
        1.28244         259.332         48.3894         291.956 
        1.28858         256.787         47.8659         290.091 
        1.29471         254.427         47.3514         287.841 
        1.30084         253.421          46.845         286.603 
        1.30697         251.599         46.3453         285.656 
        1.31312         249.615         45.8523         283.858 
        1.31925         249.488         45.3681         281.854 
        1.32537         247.775         44.8914         280.655 
        1.33151         245.333         44.4199          279.48 
        1.33765         243.685         43.9555         277.719 
        1.34378         242.714         43.4987         276.454 
        1.34992         241.112         43.0482         274.548 
        1.35606         240.526         42.6032         272.999 
         1.3622         238.528         42.1653         271.832 
        1.36833         236.349         41.7346          270.89 
        1.37445         234.792         41.3103          268.65 
        1.38059         232.932         40.8906         267.946 
        1.38675         232.106         40.4758         266.793 
        1.39288         229.979         40.0684         264.156 
        1.39901         229.699         39.6669         263.489 
        1.40515         227.716           39.27          262.35 
         1.4113         225.893         38.8787          260.52 
        1.41742         225.049         38.4944         259.292 
        1.42355         222.684         38.1145         258.258 
         1.4297         221.657         37.7387         256.902 
        1.43585         220.028         37.3681         255.798 
        1.44198          218.74          37.004          254.17 
        1.44809         217.915         36.6455         253.059 
        1.45423         215.763         36.2904          251.35 
        1.46036         215.218         35.9408          250.13 
        1.46649         213.223         35.5956         249.427 
        1.47263         211.749         35.2548          248.48 
        1.47877         210.797         34.9185         246.668 
        1.48491         209.164         34.5862         245.375 
        1.49104         208.273          34.259         244.385 
        1.49718         206.069         33.9358         243.006 
        1.50333         205.202         33.6163         242.074 
        1.50947         204.071         33.3015         241.068 
         1.5156         202.321         32.9913         239.551 
        1.52172         201.315         32.6851         237.948 
        1.52787         199.832         32.3822         237.128 
          1.534         199.153         32.0835         235.923 
        1.54013         197.227         31.7889         234.746 
        1.54627           196.7         31.4975         233.802 
        1.55241         194.759         31.2097         232.589 
        1.55855         193.672          30.926         231.254 
        1.56467          192.46         30.6466         230.107 
         1.5708         191.866         30.3699         229.139 
        1.57695         189.754         30.0962         228.087 
        1.58308         189.301         29.8266         226.914 
        1.58922         187.575         29.5601          225.77 
        1.59535         186.257          29.297         224.721 
         1.6015         185.773         29.0367         223.436 
        1.60764         184.187         28.7798         222.198 
        1.61376         182.549         28.5267         221.386 
        1.61989         181.773         28.2765         220.514 
        1.62604         180.833         28.0287         219.455 
        1.63218         179.576         27.7841          218.44 
        1.63831         178.545          27.543         217.356 
        1.64444         177.485         27.3046          216.11 
        1.65059         176.106         27.0686         215.334 
        1.65673         175.194         26.8356         214.241 
        1.66285         174.239         26.6061         212.984 
        1.66898         173.139         26.3791         212.022 
        1.67512         172.463         26.1544         211.091 
        1.68127          170.53         25.9321         210.188 
         1.6874          169.35         25.7129         209.401 
        1.69353         168.853         25.4964         208.599 
        1.69967         167.569         25.2819         207.288 
        1.70581         166.529           25.07         206.204 
        1.71193         165.268         24.8613         205.309 
        1.71806         164.681         24.6546         203.987 
        1.72421         163.429         24.4498         203.267 
        1.73035         162.527         24.2477          202.44 
        1.73649         161.793         24.0478         201.275 
        1.74262         160.344         23.8504         200.668 
        1.74876         159.731         23.6551         199.794 
        1.75489         158.234         23.4624         198.712 
        1.76101         157.418         23.2719         197.788 
        1.76715         156.772         23.0833         196.873 
        1.77329         155.976         22.8966         195.833 
        1.77943         154.654         22.7118           194.8 
        1.78557          153.73         22.5294         193.946 
        1.79171         152.753          22.349         193.229 
        1.79785          151.73         22.1705         192.399 
        1.80399         150.909         21.9941         191.339 
        1.81012         149.893         21.8198         190.499 
        1.81625         149.169         21.6475         189.794 
        1.82239          148.18         21.4768         188.979 
        1.82853         147.531          21.308         188.054 
        1.83466         146.464         21.1412         187.014 
        1.84078         145.659         20.9764         186.076 
        1.84692         144.429         20.8131         185.473 
        1.85306         143.924         20.6514         184.603 
         1.8592         142.595         20.4916         183.694 
        1.86533          141.79         20.3336          183.19 
        1.87147         140.906         20.1771         182.441 
