# k  (h/Mpc)    Pcb(k)  (Mpc/h)^3    Pcb_linear(k) (Mpc/h)^3    Pcb_NL(k) (Mpc/h)^3   ShotnoiseSubtracted = false
     0.00783031         1643.33         1658.64         1657.77 
       0.013688         2218.22          2217.8         2210.25 
       0.019231          2395.7         2395.87         2383.74 
      0.0249154          2334.9         2353.38          2343.7 
      0.0312784         2158.48         2165.08         2158.53 
      0.0375637         1938.73         1936.67         1930.94 
      0.0433917         1734.57         1743.21          1738.3 
      0.0492413         1586.78         1588.41         1583.77 
      0.0555754         1452.89         1465.17          1460.1 
      0.0619321         1377.81         1373.33         1367.93 
       0.067871         1289.68         1299.04          1293.1 
      0.0738098          1211.8         1222.36         1214.59 
      0.0800417         1117.33         1132.27         1124.82 
      0.0862327         1024.98         1034.24         1028.79 
      0.0921407         934.845         939.489         934.704 
      0.0982031          842.75         849.494         847.136 
       0.104506         773.318         770.721         770.342 
       0.110769          712.52         710.311         708.919 
       0.116806         665.054         667.565         666.072 
       0.122832          636.97         635.824         634.894 
       0.129052         604.681         608.769          607.78 
       0.135211          577.67         582.307         581.429 
       0.141259         552.276         553.256         553.149 
       0.147318         522.054         520.261         521.542 
       0.153489         483.616         484.102         484.119 
       0.159709         450.084         447.945         449.652 
       0.165845         423.212         415.478         419.979 
       0.171974         392.718         388.203         392.667 
       0.178125          372.17           366.6         372.995 
       0.184229         357.237          350.17         356.707 
        0.19034         338.826         337.129          343.54 
       0.196428             331         325.617          330.67 
       0.202534         322.021         313.873         319.352 
       0.208729         306.975         300.701         305.915 
       0.214876         290.313         286.201         293.408 
       0.220989         279.873         270.935           278.9 
       0.227147         261.412         255.693         263.818 
        0.23329         248.589         241.621           251.5 
       0.239377         238.778         229.484         240.286 
       0.245482         225.727         219.347         229.336 
       0.251667         220.618         210.934         221.897 
       0.257832         213.385         203.865         214.702 
       0.263955         206.499         197.482         207.946 
       0.270079         200.301         191.128         201.298 
        0.27624          195.76         184.399         194.149 
       0.282372         188.171         177.266         187.514 
        0.28843         180.308         169.951         180.382 
       0.294538         173.085         162.623         173.764 
       0.300721         168.576         155.598         167.626 
        0.30691         160.852         149.231          161.57 
       0.313033         155.843         143.693         155.816 
       0.319153         148.911         138.879          151.66 
       0.325316         146.682         134.582         147.825 
        0.33145         141.886         130.639         143.185 
       0.337538          138.93         126.834         139.109 
       0.343633         134.602         122.994         135.526 
       0.349808         130.838         119.009         131.851 
       0.355968         127.244         114.972         128.666 
       0.362074          123.28         111.004         124.496 
       0.368217         119.791         107.157         120.012 
       0.374374         116.096          103.55          117.08 
       0.380519         113.164         100.245         113.607 
       0.386598           110.2         97.2693         110.802 
       0.392688           108.1         94.5369         108.289 
        0.39888         105.202         91.9359         105.317 
       0.405048         102.986         89.4523         102.847 
       0.411186         100.846         87.0226         101.032 
       0.417313          97.667         84.6037         97.9734 
       0.423458         95.4511         82.1917         95.7981 
       0.429607         92.9066         79.8082         93.2933 
       0.435692         90.0858          77.515         91.2878 
       0.441815         88.8626         75.3106         89.6832 
       0.447964         87.4436         73.2206         87.2602 
       0.454126          84.016         71.2538         85.0908 
       0.460267         82.6218          69.416         83.6111 
       0.466387         80.5442         67.6826         81.6051 
        0.47254         79.4621         66.0085         80.1022 
       0.478662          78.107         64.3901         78.3562 
       0.484765         76.1154         62.8115         76.5972 
       0.490885         74.4862         61.2544         75.4998 
       0.497035         73.4768         59.7164         74.1108 
       0.503198         71.6768         58.2156         72.2109 
       0.509342          69.911         56.7711         70.9977 
       0.515458         68.6565         55.3905         70.0725 
       0.521598         67.6524         54.0635         68.1347 
       0.527764         66.3615         52.7914         66.5678 
       0.533884         65.2125         51.5847         65.4555 
           0.54         64.0401         50.4246         64.2949 
       0.546137         63.0964          49.296         63.4195 
       0.552299         62.1814         48.1909         61.9575 
       0.558452         60.3393         47.1143         60.7949 
       0.564573         59.4862         46.0697         60.0795 
       0.570708         58.7329         45.0494         58.9971 
       0.576825         57.3328         44.0599         57.9691 
       0.582926         56.3814         43.1027         57.0497 
       0.589034         54.9461         42.1762         56.2444 
       0.595184         54.3028         41.2769         55.0863 
       0.601379         53.5428         40.4041         54.4219 
       0.607522         52.4637         39.5672         53.2971 
       0.613639         52.1367         38.7586         52.4919 
       0.619772          50.808         37.9695         51.7174 
       0.625918         50.5982         37.1983          51.081 
       0.632068         49.7897         36.4464         50.0815 
       0.638161          48.865         35.7209          49.357 
         0.6443         47.9806         35.0096         48.4939 
       0.650464          47.213         34.3154         47.9065 
       0.656582         46.9226         33.6456         47.2542 
       0.662703         46.0474         32.9942         46.4272 
       0.668861         45.3211          32.357         45.9071 
       0.675024         44.6034         31.7371         45.0905 
       0.681124         43.8651         31.1406         44.4552 
       0.687237         43.1805         30.5589         43.7468 
       0.693381         42.8333           29.99         43.1592 
       0.699536         41.8482         29.4348         42.6867 
       0.705665         41.7844         28.8961          42.217 
       0.711789          40.889         28.3712         41.4346 
       0.717957         40.4294         27.8555         40.9591 
        0.72409         39.8424         27.3553         40.5155 
       0.730186         39.3219         26.8703         39.8918 
       0.736317         38.9687         26.3944         39.3552 
       0.742472         38.3011         25.9285         39.0229 
       0.748622         37.9564         25.4746         38.3772 
        0.75476         37.3197         25.0329          37.901 
       0.760888         36.8858         24.6027          37.488 
       0.767043         36.4721         24.1812         37.1159 
       0.773185         35.8544         23.7707         36.6365 
       0.779291         35.6755         23.3723          36.252 
       0.785407         35.2486         22.9826         35.7562 
       0.791564         34.6194         22.5995         35.3351 
       0.797719          34.033         22.2253         34.8925 
       0.803834         33.9584         21.8621         34.4357 
       0.809972         33.6284         21.5058         34.1715 
       0.816124         32.8391         21.1567         33.6845 
       0.822261          32.721         20.8163         33.2429 
       0.828378         32.3511         20.4846         32.8767 
       0.834502         31.9926         20.1599         32.6777 
       0.840667         31.6441         19.8402         32.1897 
       0.846816         31.1429         19.5285         31.8969 
       0.852925         30.8887         19.2255         31.7453 
       0.859047         30.5339         18.9284         31.2015 
       0.865192         30.2796         18.6367         30.8829 
       0.871341         30.0708          18.351         30.6401 
       0.877463          29.535         18.0727         30.2696 
       0.883569         29.1921          17.801         30.0305 
       0.889708         28.8434         17.5335         29.6391 
       0.895864          28.676          17.271         29.3198 
       0.902008          28.446         17.0144          29.073 
       0.908149         28.1483         16.7633         28.8114 
       0.914301         27.9696         16.5169         28.6144 
       0.920448         27.4073         16.2757         28.2012 
       0.926574         27.2521         16.0403         27.9158 
       0.932687         26.9785           15.81         27.5953 
       0.938823          26.652         15.5836         27.3856 
       0.944975         26.3734         15.3611         27.0965 
       0.951105         26.2026         15.1438         26.7752 
       0.957225         25.9256         14.9311         26.6587 
       0.963368         25.6835         14.7219         26.3342 
       0.969511         25.4988         14.5167         26.1362 
       0.975621         25.2969         14.3165          25.855 
       0.981748         24.9823         14.1197          25.683 
       0.987916         24.8076         13.9253          25.396 
        0.99406         24.5136         13.7354         25.1812 
        1.00019         24.1886         13.5495         24.9802 
        1.00632         24.1764         13.3672         24.7843 
        1.01246         23.9117          13.188         24.6413 
        1.01859         23.5857         13.0125         24.3534 
        1.02471         23.5059         12.8404         24.1021 
        1.03085         23.2866         12.6708         23.9281 
        1.03698         22.9334         12.5047         23.7285 
        1.04314         22.8155          12.341          23.479 
        1.04929         22.5448         12.1805         23.3294 
        1.05541         22.3462         12.0236         23.1741 
        1.06154         22.1784         11.8691         22.9227 
        1.06769         22.0766         11.7171         22.7443 
        1.07382          21.806         11.5683         22.5932 
        1.07993         21.7017         11.4225         22.4002 
        1.08607         21.4619         11.2786         22.1943 
        1.09222         21.2979          11.137         22.0372 
        1.09836         21.0535         10.9981         21.8327 
        1.10449         20.9662         10.8618         21.6587 
        1.11063          20.757         10.7276         21.5327 
        1.11677         20.6564         10.5958         21.3231 
         1.1229         20.5271         10.4664          21.184 
        1.12903         20.2928         10.3391         21.0768 
        1.13518         20.0767         10.2138         20.8745 
        1.14131         19.9704         10.0908          20.702 
        1.14745         19.8245         9.96979         20.5234 
        1.15359         19.6891          9.8508         20.3939 
        1.15973         19.5318         9.73373         20.2439 
        1.16584          19.278          9.6191         20.1589 
        1.17197         19.2193         9.50618         19.9968 
        1.17811         19.0698         9.39474         19.7984 
        1.18424         18.9041         9.28543         19.6886 
        1.19038         18.8258         9.17757         19.5365 
        1.19652         18.6493         9.07147         19.3881 
        1.20267         18.4588         8.96708         19.2391 
        1.20881         18.4398         8.86436         19.1811 
        1.21495         18.2896         8.76343         19.0202 
        1.22108         18.0899         8.66411         18.8828 
         1.2272         17.9579         8.56657         18.7161 
        1.23334         17.7953         8.47033         18.6325 
        1.23949         17.6731         8.37535         18.4958 
        1.24562         17.6255         8.28211         18.3425 
        1.25174         17.4897         8.19044         18.2466 
        1.25789         17.3843         8.09989         18.1137 
        1.26402         17.2868         8.01088         17.9612 
        1.27014         17.1436         7.92344         17.8679 
        1.27628         16.9452         7.83705         17.7553 
        1.28244         16.8635          7.7518         17.6828 
        1.28858         16.8192         7.66794         17.5199 
        1.29471         16.6436         7.58552         17.4069 
        1.30084         16.5017         7.50439         17.3545 
        1.30697         16.4627         7.42435         17.2042 
        1.31312         16.2525         7.34536         17.0935 
        1.31925         16.1635         7.26779         17.0276 
        1.32537         16.0993         7.19142         16.9284 
        1.33151         15.9845         7.11589         16.7916 
        1.33765         15.8658          7.0415         16.6729 
        1.34378         15.7619         6.96833         16.5998 
        1.34992         15.6307         6.89616         16.4931 
        1.35606         15.5766         6.82487         16.3621 
         1.3622         15.4898         6.75471         16.2733 
        1.36833         15.3671         6.68573         16.2253 
        1.37445         15.2871         6.61775         16.0952 
        1.38059         15.2223         6.55051         15.9763 
        1.38675         15.0717         6.48406          15.914 
        1.39288         14.9862          6.4188         15.8033 
        1.39901         14.8469         6.35448         15.7276 
        1.40515         14.8113          6.2909         15.6438 
         1.4113         14.7304         6.22823         15.5499 
        1.41742         14.6264         6.16665         15.4578 
        1.42355         14.5264          6.1058         15.3518 
         1.4297         14.4157          6.0456         15.2952 
        1.43585         14.3774         5.98624         15.2203 
        1.44198         14.2964         5.92791         15.1082 
        1.44809         14.1903         5.87047         15.0475 
        1.45423          14.089         5.81359         14.9593 
        1.46036         14.0325         5.75757         14.8619 
        1.46649         13.9476         5.70228         14.7819 
        1.47263         13.8308         5.64768         14.7194 
        1.47877         13.7708         5.59382         14.6483 
        1.48491         13.6827         5.54059          14.536 
        1.49104         13.6194         5.48816         14.4739 
        1.49718         13.5431         5.43638         14.4007 
        1.50333         13.4596          5.3852         14.3279 
        1.50947         13.3763         5.33478         14.2603 
         1.5156         13.3053         5.28508         14.1829 
        1.52172         13.2215         5.23603         14.0953 
        1.52787         13.1383          5.1875         14.0086 
          1.534          13.074         5.13965         13.9416 
        1.54013         13.0085         5.09246         13.8579 
        1.54627         12.9077         5.04578         13.7895 
        1.55241         12.8578         4.99968         13.7428 
        1.55855          12.798         4.95423         13.6697 
        1.56467         12.7028         4.90947         13.5955 
         1.5708          12.675         4.86515         13.5489 
        1.57695         12.5547         4.82131         13.4821 
        1.58308         12.5033         4.77811         13.4054 
        1.58922         12.4503         4.73542         13.3538 
        1.59535         12.3975         4.69327         13.2734 
         1.6015         12.3013         4.65158         13.1998 
        1.60764         12.2342         4.61042         13.1454 
        1.61376         12.2031         4.56987          13.087 
        1.61989         12.1112         4.52978         13.0305 
        1.62604         12.0561         4.49009         12.9695 
        1.63218         12.0071         4.45091         12.9015 
        1.63831          11.954         4.41228         12.8393 
        1.64444         11.8802          4.3741         12.7834 
        1.65059         11.7825         4.33629         12.7087 
        1.65673         11.7473         4.29897         12.6567 
        1.66285         11.6441         4.26219         12.6107 
        1.66898          11.613         4.22584         12.5464 
        1.67512         11.5699         4.18984         12.4924 
        1.68127         11.4978         4.15423         12.4246 
         1.6874         11.4498         4.11912         12.3596 
        1.69353         11.3898         4.08443         12.3222 
        1.69967         11.3123         4.05007         12.2639 
        1.70581         11.2484         4.01612         12.2096 
        1.71193         11.2092         3.98269         12.1628 
        1.71806         11.1831         3.94958         12.1009 
        1.72421         11.0898         3.91677         12.0535 
        1.73035         11.0614         3.88438         11.9929 
        1.73649         11.0147         3.85237         11.9235 
        1.74262         10.9275         3.82075         11.8959 
        1.74876         10.8948         3.78946         11.8469 
        1.75489         10.8604         3.75859         11.7754 
        1.76101          10.772         3.72807          11.715 
        1.76715         10.7397         3.69786         11.6788 
        1.77329         10.6878         3.66795         11.6316 
        1.77943          10.614         3.63835         11.5777 
        1.78557          10.596         3.60913         11.5345 
        1.79171         10.5309         3.58023         11.4794 
        1.79785         10.4784         3.55164         11.4204 
        1.80399          10.414         3.52337         11.3779 
        1.81012         10.3794         3.49545         11.3476 
        1.81625         10.3122         3.46784          11.309 
        1.82239         10.2829          3.4405         11.2544 
        1.82853          10.219         3.41346         11.1977 
        1.83466         10.1817         3.38675          11.161 
        1.84078         10.1198         3.36034         11.1261 
        1.84692         10.1071         3.33418         11.0573 
        1.85306         10.0358         3.30827         11.0144 
         1.8592           9.983         3.28268         10.9895 
        1.86533         9.94832         3.25737         10.9345 
        1.87147         9.90322          3.2323         10.8809 
