# k  (h/Mpc)    P(k)  (Mpc/h)^3    P_linear(k)  (Mpc/h)^3     P_NL(k)  ShotnoiseSubtracted = false
     0.00783031         143.448         144.568         144.437 
       0.013688         192.677         193.383         192.783 
       0.019231         208.691         208.942         208.034 
      0.0249154         204.461         205.254         204.632 
      0.0312784         188.626         188.841         188.593 
      0.0375637         169.088         168.925         168.817 
      0.0433917         152.003         152.053         152.065 
      0.0492413         138.669         138.553         138.588 
      0.0555754         127.668         127.804         127.801 
      0.0619321          120.02         119.794         119.762 
       0.067871         113.165         113.314         113.229 
      0.0738098         106.409         106.626         106.495 
      0.0800417         98.4471          98.768         98.6514 
      0.0862327         90.0451          90.217         90.1409 
      0.0921407         81.8799         81.9521         81.9146 
      0.0982031         73.9773          74.102         74.1082 
       0.104506         67.3258         67.2307         67.2647 
       0.110769         62.0315         61.9612         61.9847 
       0.116806           58.13         58.2324          58.233 
       0.122832         55.4676         55.4637         55.4582 
       0.129052         52.9742         53.1036          53.083 
       0.135211         50.6176         50.7954         50.7652 
       0.141259         48.1731         48.2613         48.2378 
       0.147318          45.388         45.3831         45.3782 
       0.153489         42.1736         42.2289         42.2221 
       0.159709         39.0406         39.0749          39.092 
       0.165845         36.3611         36.2428         36.2915 
       0.171974         33.8424         33.8637         33.9123 
       0.178125         31.9806         31.9791          32.045 
       0.184229         30.5946         30.5459           30.61 
        0.19034         29.3284         29.4083         29.4666 
       0.196428         28.3874         28.4042          28.444 
       0.202534         27.4592         27.3796         27.4206 
       0.208729         26.2384         26.2307         26.2699 
       0.214876         24.9051         24.9658         25.0255 
       0.220989         23.7194         23.6342         23.7043 
       0.227147         22.2645         22.3046         22.3776 
        0.23329         21.0516         21.0771         21.1693 
       0.239377         20.0186         20.0183          20.122 
       0.245482         19.1064         19.1341         19.2294 
       0.251667         18.4427         18.4002         18.5042 
       0.257832         17.7943         17.7836         17.8847 
       0.263955          17.245         17.2267         17.3215 
       0.270079         16.6979         16.6725         16.7621 
        0.27624         16.1638         16.0855         16.1698 
       0.282372         15.5348         15.4632         15.5548 
        0.28843         14.8542         14.8251         14.9207 
       0.294538         14.2272         14.1859         14.2886 
       0.300721         13.6623         13.5731         13.6853 
        0.30691          13.064         13.0178         13.1326 
       0.313033         12.5915         12.5346         12.6481 
       0.319153         12.0961         12.1147         12.2362 
       0.325316         11.8261         11.7398         11.8655 
        0.33145         11.4624         11.3959         11.5136 
       0.337538         11.1234          11.064         11.1775 
       0.343633         10.7719          10.729         10.8416 
       0.349808         10.4423         10.3814          10.498 
       0.355968         10.0971         10.0292         10.1608 
       0.362074         9.74447         9.68311         9.80937 
       0.368217         9.41542         9.34748         9.46418 
       0.374374         9.07011         9.03292         9.16007 
       0.380519         8.81469         8.74454         8.86818 
       0.386598         8.56384         8.48501         8.61331 
       0.392688         8.33984         8.24665         8.37418 
        0.39888         8.09925         8.01976         8.14561 
       0.405048         7.88819         7.80311         7.92222 
       0.411186         7.68405         7.59116         7.72257 
       0.417313         7.44924         7.38016         7.50618 
       0.423458         7.25713         7.16977         7.29817 
       0.429607         7.03222         6.96183          7.0864 
       0.435692         6.83272         6.76179         6.89194 
       0.441815         6.64666          6.5695         6.70744 
       0.447964         6.49125         6.38719         6.52107 
       0.454126         6.28982         6.21558         6.34756 
       0.460267         6.12722         6.05532          6.1907 
       0.466387         5.96652         5.90409         6.03385 
        0.47254           5.831         5.75806           5.889 
       0.478662         5.69712         5.61688         5.74536 
       0.484765         5.54937         5.47919         5.60915 
       0.490885         5.41426         5.34335         5.48211 
       0.497035         5.30879         5.20919         5.34883 
       0.503198         5.16503         5.07827         5.20733 
       0.509342          5.0467         4.95225         5.08526 
       0.515458         4.91395         4.83183         4.97092 
       0.521598         4.80287         4.71608         4.84519 
       0.527764         4.68106          4.6051         4.73407 
       0.533884         4.59313         4.49984         4.62976 
           0.54         4.48685         4.39865         4.52621 
       0.546137         4.39512          4.3002          4.4304 
       0.552299         4.29542          4.2038         4.32582 
       0.558452         4.18667         4.10988         4.23391 
       0.564573         4.10625         4.01876          4.1524 
       0.570708         4.01901         3.92975          4.0607 
       0.576825         3.92416         3.84343         3.97215 
       0.582926         3.85194         3.75994         3.89085 
       0.589034         3.74659         3.67911         3.81375 
       0.595184          3.6758         3.60067         3.72348 
       0.601379         3.59984         3.52453         3.65597 
       0.607522         3.53707         3.45153         3.58101 
       0.613639         3.47789           3.381         3.50876 
       0.619772         3.39093         3.31216         3.44394 
       0.625918         3.32975         3.24489         3.37185 
       0.632068         3.27247         3.17929         3.30455 
       0.638161         3.19992         3.11601         3.24061 
         0.6443         3.13638         3.05396         3.17649 
       0.650464         3.06772         2.99341         3.12081 
       0.656582         3.01926         2.93498         3.06045 
       0.662703         2.96319         2.87815           3.002 
       0.668861         2.91492         2.82257         2.95018 
       0.675024         2.85183         2.76849         2.89294 
       0.681124         2.79303         2.71646         2.83917 
       0.687237         2.75182         2.66572         2.78407 
       0.693381         2.70356         2.61609         2.73153 
       0.699536         2.63777         2.56766         2.68463 
       0.705665          2.5949         2.52067         2.64484 
       0.711789         2.55472         2.47488         2.59713 
       0.717957         2.50433          2.4299         2.54817 
        0.72409         2.46335         2.38626         2.50461 
       0.730186         2.41922         2.34395          2.4589 
       0.736317         2.38793         2.30244         2.41651 
       0.742472         2.34495          2.2618         2.38239 
       0.748622         2.30138          2.2222         2.34232 
        0.75476         2.25441         2.18367         2.29846 
       0.760888         2.21772         2.14614         2.26199 
       0.767043         2.19327         2.10938         2.22625 
       0.773185         2.14835         2.07357         2.19178 
       0.779291         2.11538         2.03881         2.15618 
       0.785407         2.08191         2.00482          2.1203 
       0.791564         2.04847          1.9714         2.08681 
       0.797719         2.01925         1.93876          2.0497 
       0.803834         1.98758         1.90708         2.01952 
       0.809972         1.95506         1.87599         1.99141 
       0.816124         1.92085         1.84554         1.95669 
       0.822261         1.88765         1.81585         1.92632 
       0.828378         1.86374         1.78691         1.89707 
       0.834502         1.83862         1.75859         1.86646 
       0.840667         1.80221          1.7307         1.83994 
       0.846816         1.77573         1.70351         1.81693 
       0.852925         1.75579         1.67708         1.78751 
       0.859047         1.72884         1.65116         1.76449 
       0.865192         1.70069         1.62572         1.73628 
       0.871341         1.67469          1.6008         1.70966 
       0.877463         1.65674         1.57652         1.68405 
       0.883569         1.62692         1.55282         1.66202 
       0.889708         1.60236         1.52949          1.6382 
       0.895864         1.58015         1.50658          1.6139 
       0.902008         1.55476          1.4842         1.59094 
       0.908149         1.53304          1.4623            1.57 
       0.914301         1.50505          1.4408         1.54562 
       0.920448         1.48699         1.41976         1.52365 
       0.926574         1.46515         1.39923         1.50371 
       0.932687         1.44528         1.37914         1.48056 
       0.938823         1.43109         1.35939         1.46575 
       0.944975         1.40921         1.33998         1.44055 
       0.951105         1.39105         1.32102         1.42162 
       0.957225         1.37592         1.30247          1.4059 
       0.963368         1.35537         1.28422         1.38511 
       0.969511         1.33395         1.26632         1.36714 
       0.975621         1.31382         1.24886         1.34542 
       0.981748          1.3022         1.23169         1.32904 
       0.987916         1.28353         1.21474         1.31546 
        0.99406         1.26446         1.19817         1.29906 
        1.00019         1.25168         1.18195         1.28212 
        1.00632         1.23063         1.16605         1.26394 
        1.01246         1.21508         1.15042         1.24716 
        1.01859         1.20196         1.13511         1.23276 
        1.02471         1.18492         1.12009         1.21791 
        1.03085         1.17381          1.1053         1.19983 
        1.03698         1.15567         1.09082         1.18434 
        1.04314         1.14248         1.07653         1.17099 
        1.04929         1.12636         1.06253          1.1566 
        1.05541         1.11479         1.04885         1.14398 
        1.06154         1.09877         1.03537         1.12993 
        1.06769         1.08413         1.02211         1.11558 
        1.07382         1.07293         1.00913          1.1023 
        1.07993         1.05673        0.996408           1.089 
        1.08607          1.0491        0.983855         1.07641 
        1.09222         1.03332        0.971508         1.06244 
        1.09836         1.02511         0.95939         1.05112 
        1.10449          1.0121        0.947495         1.03866 
        1.11063        0.996676         0.93579         1.02512 
        1.11677        0.983792         0.92429         1.01477 
         1.1229        0.974005        0.913006         1.00308 
        1.12903        0.961053        0.901902        0.991237 
        1.13518        0.952697        0.890976        0.980113 
        1.14131        0.939375        0.880239        0.969393 
        1.14745        0.924046        0.869686         0.95664 
        1.15359         0.91773        0.859307        0.946822 
        1.15973        0.903744        0.849094        0.937249 
        1.16584        0.898948        0.839095        0.925578 
        1.17197        0.886728        0.829245         0.91543 
        1.17811        0.877674        0.819524        0.906447 
        1.18424         0.87072        0.809989        0.894787 
        1.19038        0.857788        0.800579        0.885495 
        1.19652        0.846106        0.791324        0.876436 
        1.20267        0.840498        0.782217        0.864718 
        1.20881         0.82888        0.773257        0.857245 
        1.21495        0.822486        0.764453        0.849856 
        1.22108        0.812885        0.755789        0.838905 
         1.2272        0.805244        0.747281        0.828888 
        1.23334        0.795071        0.738885         0.82105 
        1.23949        0.786415          0.7306        0.813645 
        1.24562        0.778551        0.722466        0.804914 
        1.25174        0.770591         0.71447        0.795413 
        1.25789        0.763434        0.706571        0.786981 
        1.26402        0.752377        0.698806        0.779136 
        1.27014        0.745307        0.691179        0.770866 
        1.27628         0.73964        0.683643        0.762773 
        1.28244        0.728552        0.676206        0.755266 
        1.28858          0.7225        0.668891        0.746354 
        1.29471        0.717074        0.661701        0.739848 
        1.30084        0.707631        0.654625        0.733967 
        1.30697        0.700696        0.647642        0.725928 
        1.31312        0.690768        0.640752        0.718324 
        1.31925        0.685664        0.633985        0.711969 
        1.32537        0.679826        0.627324        0.705184 
        1.33151        0.673885        0.620735        0.698058 
        1.33765         0.66663        0.614246        0.691212 
        1.34378        0.658066        0.607863        0.684673 
        1.34992        0.653246        0.601567        0.678269 
        1.35606        0.646071        0.595348        0.670528 
         1.3622        0.640059        0.589229        0.664289 
        1.36833         0.63342        0.583211        0.658583 
        1.37445        0.625447        0.577281        0.652752 
        1.38059        0.619684        0.571416        0.645844 
        1.38675        0.617964        0.565619        0.639752 
        1.39288        0.609542        0.559926        0.633341 
        1.39901        0.604042        0.554315        0.627881 
        1.40515        0.598828        0.548769        0.621781 
         1.4113        0.591502        0.543302        0.616537 
        1.41742        0.586097        0.537931        0.612118 
        1.42355        0.582851        0.532622        0.604197 
         1.4297        0.575285        0.527371        0.600018 
        1.43585        0.570685        0.522192        0.594349 
        1.44198        0.567148        0.517104        0.586976 
        1.44809        0.559768        0.512094        0.584042 
        1.45423        0.555231        0.507132        0.576665 
        1.46036        0.549746        0.502246        0.572297 
        1.46649        0.545719        0.497422        0.568545 
        1.47263        0.539813        0.492659        0.562848 
        1.47877        0.534038        0.487961        0.557873 
        1.48491        0.530066        0.483317        0.553541 
        1.49104        0.523872        0.478744         0.54727 
        1.49718        0.520126        0.474228        0.543904 
        1.50333        0.516239        0.469763        0.537458 
        1.50947        0.511209        0.465364        0.532575 
         1.5156        0.506279         0.46103        0.529224 
        1.52172        0.502029         0.45675        0.523888 
        1.52787        0.497343        0.452517        0.519272 
          1.534        0.493063        0.448343        0.515514 
        1.54013        0.487698        0.444227        0.510985 
        1.54627        0.484683        0.440155        0.506266 
        1.55241        0.479639        0.436133        0.501956 
        1.55855        0.474647        0.432168        0.497785 
        1.56467        0.473106        0.428264        0.494157 
         1.5708        0.467787        0.424397        0.489256 
        1.57695        0.464092        0.420573        0.484642 
        1.58308         0.45966        0.416805        0.481535 
        1.58922        0.456174        0.413081        0.477723 
        1.59535        0.451977        0.409404        0.473368 
         1.6015        0.447955        0.405767        0.468879 
        1.60764        0.444591        0.402177        0.465703 
        1.61376         0.43962         0.39864        0.463121 
        1.61989        0.437027        0.395143        0.458855 
        1.62604        0.433643        0.391681        0.454838 
        1.63218        0.430261        0.388262        0.451319 
        1.63831        0.426539        0.384893        0.447679 
        1.64444        0.422813        0.381563        0.443755 
        1.65059         0.41941        0.378264        0.440063 
        1.65673        0.415996        0.375008        0.436829 
        1.66285        0.412977          0.3718        0.433519 
        1.66898        0.409618        0.368629        0.429768 
        1.67512        0.405454        0.365489         0.42634 
        1.68127        0.402007        0.362383        0.423286 
         1.6874        0.399938         0.35932        0.420303 
        1.69353        0.395778        0.356294        0.416944 
        1.69967        0.393731        0.353297        0.413137 
        1.70581         0.38935        0.350335        0.409867 
        1.71193        0.386631        0.347419        0.407054 
        1.71806        0.383061         0.34453        0.403869 
        1.72421        0.381115        0.341669        0.401257 
        1.73035        0.377441        0.338843        0.398072 
        1.73649        0.375202        0.336051        0.394147 
        1.74262        0.371917        0.333292        0.391222 
        1.74876        0.368884        0.330563         0.38894 
        1.75489        0.366493         0.32787        0.386169 
        1.76101        0.362596        0.325208        0.382841 
        1.76715        0.360242        0.322573        0.380305 
        1.77329        0.357105        0.319963        0.377819 
        1.77943        0.354576        0.317382        0.374862 
        1.78557        0.352452        0.314833        0.371674 
        1.79171        0.349549        0.312311          0.3686 
        1.79785         0.34686        0.309817        0.366088 
        1.80399        0.344087        0.307351        0.363927 
        1.81012        0.341852        0.304916        0.360384 
        1.81625        0.338942        0.302508        0.357467 
        1.82239        0.336766        0.300122        0.355893 
        1.82853        0.333425        0.297764        0.353576 
        1.83466         0.33165        0.295433        0.350655 
        1.84078        0.328847         0.29313        0.347924 
        1.84692        0.326447        0.290848        0.345864 
        1.85306        0.324489        0.288588        0.343055 
         1.8592        0.321552        0.286355        0.340048 
        1.86533        0.319735        0.284148        0.338071 
        1.87147        0.317168        0.281961        0.335925 
        1.87761        0.315458        0.279796         0.33371 
