# k  (h/Mpc)    Pcb(k)  (Mpc/h)^3    Pcb_linear(k) (Mpc/h)^3    Pcb_NL(k) (Mpc/h)^3   ShotnoiseSubtracted = false
     0.00783031         6208.49         6280.79         6276.71 
       0.013688         8434.95         8396.68         8358.78 
       0.019231         9069.94         9069.92          9005.9 
      0.0249154         8770.59         8908.52         8840.39 
      0.0312784         8121.57         8195.36         8123.64 
      0.0375637         7311.13          7330.6         7256.95 
      0.0433917         6492.54         6598.18         6518.96 
      0.0492413         5959.83         6012.19          5932.3 
      0.0555754         5405.55         5545.68         5464.89 
      0.0619321         5181.38         5197.99         5113.72 
       0.067871         4796.01          4916.8         4832.26 
      0.0738098         4502.97         4626.55         4519.71 
      0.0800417         4127.25         4285.55         4181.76 
      0.0862327         3801.18         3914.49         3835.53 
      0.0921407         3487.72         3555.86         3481.67 
      0.0982031         3140.35         3215.23         3170.52 
       0.104506          2916.1         2917.08         2896.84 
       0.110769         2688.14         2688.43         2656.82 
       0.116806         2508.86         2526.64         2495.42 
       0.122832         2403.38         2406.51         2382.67 
       0.129052         2261.16          2304.1         2281.32 
       0.135211         2163.33         2203.95          2181.9 
       0.141259         2079.04         2093.99         2083.38 
       0.147318         1970.36         1969.11          1972.2 
       0.153489         1820.09         1832.25         1821.84 
       0.159709         1714.05          1695.4         1705.01 
       0.165845         1632.75         1572.52          1613.3 
       0.171974         1524.75         1469.29         1513.08 
       0.178125         1447.66         1387.52         1453.92 
       0.184229         1392.85         1325.33         1389.97 
        0.19034         1310.26         1275.98         1341.11 
       0.196428         1292.74         1232.41         1286.55 
       0.202534         1256.89         1187.96         1247.38 
       0.208729         1201.19          1138.1         1191.68 
       0.214876          1141.2         1083.22         1156.92 
       0.220989         1108.64         1025.44         1109.39 
       0.227147         1045.65         967.755         1057.21 
        0.23329          1002.7         914.495         1020.55 
       0.239377          980.18         868.557         980.907 
       0.245482         917.708         830.191         936.307 
       0.251667         909.088         798.349         914.377 
       0.257832           878.9         771.594         886.472 
       0.263955         852.066         747.436         860.692 
       0.270079          826.27         723.388          836.04 
        0.27624         817.281         697.919         808.858 
       0.282372         783.054         670.919         785.343 
        0.28843         764.964         643.233         759.261 
       0.294538         730.037           615.5          738.41 
       0.300721         725.849         588.911          717.96 
        0.30691          693.02         564.815         700.765 
       0.313033         679.175         543.852         677.815 
       0.319153         659.095         525.631         661.971 
       0.325316         640.627         509.368         650.767 
        0.33145         623.751         494.445         628.819 
       0.337538         617.054         480.045         614.972 
       0.343633         598.351         465.511          606.75 
       0.349808         580.485         450.428         594.145 
       0.355968          575.16         435.147         582.065 
       0.362074         563.452          420.13         567.468 
       0.368217         548.754         405.569         550.188 
       0.374374          528.68         391.919         539.625 
       0.380519          522.88         379.409         527.376 
       0.386598         511.486         368.147         518.638 
       0.392688         508.126         357.805         507.818 
        0.39888         494.089         347.961         498.501 
       0.405048         485.173         338.561          493.08 
       0.411186         475.716         329.365          480.62 
       0.417313         467.837          320.21         468.994 
       0.423458         459.868         311.081         461.402 
       0.429607         449.922          302.06         452.151 
       0.435692         439.704          293.38         444.051 
       0.441815         437.074         285.037         440.256 
       0.447964         428.838         277.127         431.625 
       0.454126          414.45         269.683         421.485 
       0.460267         410.158         262.727         418.635 
       0.466387         405.581         256.166         410.578 
        0.47254          397.38          249.83         405.119 
       0.478662         395.661         243.705         397.725 
       0.484765         385.298          237.73          389.24 
       0.490885         380.607         231.837         384.788 
       0.497035         374.663         226.016         380.619 
       0.503198         366.956         220.335         374.575 
       0.509342         363.994         214.868         370.195 
       0.515458         359.933         209.643         367.432 
       0.521598         354.486         204.621         360.124 
       0.527764         348.041         199.806         354.397 
       0.533884         344.688         195.239         350.517 
           0.54          340.35         190.848         346.078 
       0.546137         338.827         186.576         342.407 
       0.552299         332.503         182.394         337.015 
       0.558452         328.732         178.319         333.031 
       0.564573         323.349         174.365         330.188 
       0.570708         318.368         170.504         326.426 
       0.576825         314.375         166.759          320.51 
       0.582926         311.399         163.136         316.849 
       0.589034         307.213         159.629         313.665 
       0.595184         304.532         156.225         308.843 
       0.601379         301.969         152.922         307.682 
       0.607522         296.176         149.755         303.615 
       0.613639         295.109         146.694         300.411 
       0.619772         288.117         143.708          297.24 
       0.625918          286.55         140.789         294.812 
       0.632068         283.021         137.943          289.99 
       0.638161         281.784         135.197         288.417 
         0.6443         276.964         132.505          285.27 
       0.650464         274.655         129.878         280.619 
       0.656582         273.206         127.343          278.51 
       0.662703         269.718         124.877         276.321 
       0.668861         265.926         122.465         273.464 
       0.675024         263.167         120.119         270.272 
       0.681124         262.213         117.861         267.862 
       0.687237         258.173          115.66         264.886 
       0.693381         254.771         113.507         262.439 
       0.699536         253.105         111.405         260.423 
       0.705665         252.515         109.366         259.025 
       0.711789         248.026          107.38         255.212 
       0.717957           246.7         105.428         253.347 
        0.72409         243.873         103.535         252.269 
       0.730186         240.504         101.699         249.794 
       0.736317         239.139          99.898         246.914 
       0.742472         237.815         98.1347          244.78 
       0.748622         236.146         96.4167         242.265 
        0.75476         234.037         94.7448         240.658 
       0.760888         230.892         93.1166         237.837 
       0.767043         229.671         91.5213         236.653 
       0.773185         227.286         89.9677         235.173 
       0.779291         223.853         88.4598         232.896 
       0.785407          223.14         86.9849         230.492 
       0.791564         221.051         85.5348         229.057 
       0.797719         218.577         84.1188         227.701 
       0.803834         217.619          82.744         225.223 
       0.809972          214.99         81.3953         223.678 
       0.816124         215.181          80.074         222.249 
       0.822261         212.027         78.7859         220.321 
       0.828378         210.356         77.5303         217.881 
       0.834502         210.084         76.3014         217.195 
       0.840667         206.767         75.0915         215.981 
       0.846816         205.807         73.9116         213.691 
       0.852925         203.918         72.7649         211.986 
       0.859047         202.172         71.6404         210.538 
       0.865192         201.116         70.5364         209.361 
       0.871341         198.932         69.4552         207.451 
       0.877463         197.738         68.4019         206.615 
       0.883569           195.9         67.3735         204.974 
       0.889708         194.705         66.3612         203.642 
       0.895864         192.689         65.3674         202.513 
       0.902008         191.841         64.3963         200.396 
       0.908149         190.728         63.4458         198.883 
       0.914301         188.584         62.5132         198.245 
       0.920448         187.418         61.6005         196.588 
       0.926574         186.469         60.7094         194.549 
       0.932687         185.168         59.8381         193.227 
       0.938823         183.196         58.9809         192.537 
       0.944975         182.036         58.1388         191.595 
       0.951105         180.916         57.3164          190.01 
       0.957225         178.675         56.5115         188.772 
       0.963368         177.553         55.7195         186.799 
       0.969511         176.745         54.9429         185.968 
       0.975621         175.786         54.1854         186.188 
       0.981748         175.053         53.4404         184.069 
       0.987916         172.756         52.7048         183.377 
        0.99406         172.227         51.9861         182.078 
        1.00019         171.111         51.2823         180.526 
        1.00632         169.758         50.5924         179.273 
        1.01246         168.618         49.9143         177.958 
        1.01859         166.897         49.2498         177.412 
        1.02471         166.812         48.5984         176.786 
        1.03085         165.141         47.9567         175.476 
        1.03698         163.569         47.3281          174.06 
        1.04314         162.709         46.7082         173.343 
        1.04929         161.607          46.101         172.526 
        1.05541         160.701         45.5071         171.544 
        1.06154         159.564         44.9224         170.701 
        1.06769         159.237         44.3472         169.703 
        1.07382         158.269          43.784         168.647 
        1.07993         157.088          43.232         167.573 
        1.08607         155.755         42.6873         166.824 
        1.09222         154.868         42.1516         165.757 
        1.09836         153.625         41.6258         164.684 
        1.10449         152.638         41.1097         163.707 
        1.11063         151.779         40.6019         162.486 
        1.11677         151.083         40.1029         161.836 
         1.1229         149.586         39.6133         161.192 
        1.12903         148.632         39.1316          160.09 
        1.13518         148.607         38.6575         159.294 
        1.14131         147.075         38.1916          158.22 
        1.14745         146.204         37.7338         157.461 
        1.15359         145.238         37.2835         156.528 
        1.15973          144.87         36.8404         155.936 
        1.16584         143.557         36.4065         154.998 
        1.17197         142.768         35.9791         154.035 
        1.17811         141.957         35.5573         153.454 
        1.18424         140.833         35.1436         152.578 
        1.19038         140.216         34.7354         151.957 
        1.19652         139.465         34.3338         150.924 
        1.20267         138.363         33.9387         150.169 
        1.20881          137.58         33.5499         149.568 
        1.21495         136.662          33.168         148.385 
        1.22108         135.888          32.792         147.989 
         1.2272         135.123         32.4229         147.084 
        1.23334         134.238         32.0586         146.446 
        1.23949         132.787         31.6991         145.453 
        1.24562         132.723         31.3462         144.901 
        1.25174         131.509         30.9993         144.114 
        1.25789         130.889         30.6566         143.471 
        1.26402         130.385         30.3197         142.634 
        1.27014         129.186         29.9887         142.468 
        1.27628          128.79         29.6618         141.876 
        1.28244         127.839         29.3391         140.434 
        1.28858         127.156         29.0217         139.743 
        1.29471         126.185         28.7098         139.436 
        1.30084         125.478         28.4027          138.51 
        1.30697         124.717         28.0998         137.789 
        1.31312         124.403         27.8008         137.148 
        1.31925         123.498         27.5072         136.472 
        1.32537         123.039         27.2182         135.783 
        1.33151         121.724         26.9323         135.209 
        1.33765         121.186         26.6508          134.65 
        1.34378         120.322         26.3738         133.806 
        1.34992         120.154         26.1007           133.3 
        1.35606         119.288         25.8308         132.516 
         1.3622           118.3         25.5653         131.997 
        1.36833         117.914         25.3042         131.165 
        1.37445         116.959         25.0469         130.453 
        1.38059         116.536         24.7925         130.176 
        1.38675         115.775          24.541         129.251 
        1.39288         115.052          24.294         128.908 
        1.39901         114.691         24.0505         128.247 
        1.40515         114.149         23.8099         127.647 
         1.4113         112.782         23.5727         127.199 
        1.41742         112.679         23.3396         126.592 
        1.42355         111.746         23.1093         125.698 
         1.4297         111.187         22.8815         125.123 
        1.43585         110.467         22.6568         124.682 
        1.44198           110.1          22.436         124.248 
        1.44809         109.203         22.2186         123.376 
        1.45423         108.601         22.0033         122.761 
        1.46036         108.095         21.7913         122.316 
        1.46649         107.569         21.5821         121.956 
        1.47263          107.09         21.3754         121.449 
        1.47877         106.524         21.1716         120.573 
        1.48491         105.712         20.9701         120.328 
        1.49104         105.099         20.7717         119.609 
        1.49718         104.591         20.5757          118.88 
        1.50333         103.895          20.382         118.506 
        1.50947         103.121         20.1911         118.008 
         1.5156         103.034         20.0031         117.486 
        1.52172         102.095         19.8174         117.075 
        1.52787          101.91         19.6337         116.344 
          1.534         101.362         19.4526         115.924 
        1.54013          100.48          19.274         115.356 
        1.54627         99.9301         19.0973         114.835 
        1.55241         99.3372         18.9229         114.475 
        1.55855         98.9683         18.7508          113.72 
        1.56467         98.2484         18.5814         113.172 
         1.5708         97.7161         18.4137         112.844 
        1.57695         97.4337         18.2477         112.387 
        1.58308         96.5199         18.0842         111.879 
        1.58922         96.3309         17.9227         111.396 
        1.59535         95.8434         17.7631         110.886 
         1.6015         95.1965         17.6053         110.336 
        1.60764         94.7692         17.4496          109.98 
        1.61376         94.1236         17.2961         109.686 
        1.61989          93.694         17.1444         109.032 
        1.62604         92.9682         16.9942          108.43 
        1.63218         92.8288         16.8458         108.008 
        1.63831          92.205         16.6997         107.701 
        1.64444         91.7636         16.5552         107.237 
        1.65059         90.9183          16.412         106.503 
        1.65673          90.566         16.2708         106.151 
        1.66285         90.1843         16.1316         105.849 
        1.66898         89.6965          15.994         105.247 
        1.67512         88.9948         15.8577         104.978 
        1.68127          88.549          15.723         104.503 
         1.6874         88.1166         15.5901         103.809 
        1.69353         87.7295         15.4588         103.349 
        1.69967         87.1767         15.3288         103.123 
        1.70581         86.7894         15.2003         102.682 
        1.71193          86.424         15.0737         102.165 
        1.71806         85.6723         14.9484          102.01 
        1.72421          85.527         14.8243         101.445 
        1.73035         84.8597         14.7017         100.912 
        1.73649          84.403         14.5805         100.652 
        1.74262          84.038         14.4608         100.173 
        1.74876         83.5837         14.3424         99.6788 
        1.75489         83.0147         14.2255         99.2899 
        1.76101         82.7116         14.1101         98.8904 
        1.76715          82.185         13.9957         98.3122 
        1.77329         81.7816         13.8825         97.9556 
        1.77943          81.432         13.7705         97.6192 
        1.78557         81.0031         13.6599         97.0187 
        1.79171         80.4992         13.5505         96.6362 
        1.79785         80.2185         13.4423         96.3937 
        1.80399         79.5714         13.3353         95.9936 
        1.81012         79.3458         13.2296         95.5988 
        1.81625         78.7187         13.1251         95.1774 
        1.82239         78.3182         13.0216         94.7872 
        1.82853         77.9467         12.9193         94.5601 
        1.83466         77.5203         12.8182         94.1049 
        1.84078         76.9621         12.7183         93.5705 
        1.84692         76.7165         12.6193         93.4486 
        1.85306         76.3116         12.5212         93.0816 
         1.8592         75.7104         12.4243         92.5318 
        1.86533          75.351         12.3285         92.2372 
        1.87147         74.9461         12.2336         91.7524 
