# k  (h/Mpc)    P(k)  (Mpc/h)^3    P_linear(k)  (Mpc/h)^3     P_NL(k)  ShotnoiseSubtracted = false
     0.00783031         6864.38         6946.27         6941.39 
       0.013688         9332.59         9286.17         9242.57 
       0.019231         10029.8         10030.6          9956.7 
      0.0249154         9689.56         9852.06         9771.34 
      0.0312784         8973.58         9063.33         8976.07 
      0.0375637         8080.01         8106.96         8016.88 
      0.0433917         7168.84         7296.96          7199.3 
      0.0492413         6583.03          6648.9          6550.2 
      0.0555754         5963.69         6132.98         6033.46 
      0.0619321         5722.78         5748.47         5644.79 
       0.067871         5290.13         5437.49         5333.83 
      0.0738098         4966.59          5116.5         4985.65 
      0.0800417         4548.82         4739.38         4612.27 
      0.0862327         4191.31         4329.03         4232.14 
      0.0921407         3848.75         3932.42         3841.32 
      0.0982031         3465.51         3555.72         3500.29 
       0.104506         3222.25            3226          3200.3 
       0.110769         2970.68         2973.13         2933.96 
       0.116806         2773.54         2794.21         2755.51 
       0.122832         2656.16         2661.35         2631.55 
       0.129052         2496.58          2548.1         2519.77 
       0.135211         2389.01         2437.34         2409.68 
       0.141259          2297.2         2315.74         2302.19 
       0.147318         2177.83         2177.63         2180.12 
       0.153489         2011.28         2026.28         2013.01 
       0.159709          1896.5         1874.94         1885.73 
       0.165845         1809.44         1739.04            1787 
       0.171974         1691.55         1624.88         1676.98 
       0.178125         1606.15         1534.46         1613.56 
       0.184229         1545.33         1465.68         1542.16 
        0.19034         1453.96          1411.1          1488.5 
       0.196428         1435.13         1362.92         1427.96 
       0.202534         1394.45         1313.75         1385.09 
       0.208729         1333.49         1258.62         1322.72 
       0.214876         1268.64         1197.93         1285.47 
       0.220989         1232.64         1134.03         1234.08 
       0.227147         1164.72         1070.24         1177.51 
        0.23329         1117.64         1011.34         1137.82 
       0.239377          1094.4         960.535         1093.99 
       0.245482         1024.76         918.107         1044.69 
       0.251667         1016.19         882.892         1021.04 
       0.257832         981.817         853.304         990.128 
       0.263955         952.032         826.586         961.779 
       0.270079         923.111         799.991         934.753 
        0.27624         913.836         771.825         904.941 
       0.282372         875.237         741.967          879.38 
        0.28843         857.861         711.349         851.012 
       0.294538         818.051         680.679         828.038 
       0.300721          814.31         651.274         805.168 
        0.30691         777.866         624.626         787.191 
       0.313033         762.918         601.441           761.8 
       0.319153         742.281         581.294         743.868 
       0.325316         720.679         563.308         731.825 
        0.33145         702.328         546.804         707.164 
       0.337538         694.821         530.881         692.412 
       0.343633          674.19         514.807         683.782 
       0.349808         653.777         498.125         669.916 
       0.355968         648.898         481.228         656.652 
       0.362074         636.754         464.621         640.627 
       0.368217         619.955         448.516          621.53 
       0.374374         596.521         433.423         609.936 
       0.380519         591.365         419.586         596.471 
       0.386598         578.553         407.132         587.299 
       0.392688         575.505         395.695         574.642 
        0.39888         559.279         384.809         565.145 
       0.405048         549.611         374.413         559.183 
       0.411186         539.456         364.243         544.889 
       0.417313         530.419         354.119           532.5 
       0.423458         521.715         344.024         524.249 
       0.429607         510.884         334.046         513.575 
       0.435692         499.779         324.448          504.57 
       0.441815         496.911         315.221         500.573 
       0.447964         487.185         306.474         491.144 
       0.454126         472.467         298.239         479.695 
       0.460267         467.228         290.549         476.927 
       0.466387         462.115         283.293         467.809 
        0.47254          452.84         276.286         461.985 
       0.478662         451.436         269.512         453.638 
       0.484765         439.362         262.905         444.344 
       0.490885         434.454         256.387         439.134 
       0.497035         427.262          249.95         434.565 
       0.503198         419.456         243.668         427.824 
       0.509342         416.217         237.621         422.938 
       0.515458         412.001         231.843         419.929 
       0.521598         405.135         226.289         411.945 
       0.527764         397.351         220.964         405.864 
       0.533884         394.567         215.914         401.438 
           0.54         389.589         211.058         396.355 
       0.546137          388.03         206.334         392.056 
       0.552299         380.635         201.709          386.31 
       0.558452         377.142         197.202         382.076 
       0.564573         370.984          192.83         378.802 
       0.570708         365.329         188.559         374.914 
       0.576825         360.182         184.418         368.116 
       0.582926         357.449         180.411         364.009 
       0.589034         353.105         176.533         360.088 
       0.595184          349.97         172.769         354.875 
       0.601379         346.889         169.116         353.369 
       0.607522         340.706         165.613         349.153 
       0.613639         339.429         162.229         345.548 
       0.619772         331.126         158.926         342.649 
       0.625918         329.866         155.698         339.477 
       0.632068         325.564          152.55         334.141 
       0.638161         324.292         149.514         332.047 
         0.6443         318.509         146.537         328.855 
       0.650464          316.13         143.631         323.556 
       0.656582         314.905         140.828         320.966 
       0.662703         311.358         138.101         319.118 
       0.668861         306.495         135.434         315.763 
       0.675024         303.492         132.839         312.325 
       0.681124         302.493         130.342         309.093 
       0.687237         298.298         127.908         305.962 
       0.693381         294.243         125.526         303.271 
       0.699536         292.204         123.203         301.019 
       0.705665         290.934         120.948         299.195 
       0.711789         286.696         118.751         295.329 
       0.717957         284.878         116.592         293.222 
        0.72409         281.824         114.499         291.728 
       0.730186         278.426         112.468         289.086 
       0.736317         276.396         110.477         285.812 
       0.742472         275.094         108.527         283.291 
       0.748622         273.005         106.627         280.535 
        0.75476         270.589         104.778         279.106 
       0.760888         266.979         102.977         275.784 
       0.767043          266.09         101.213         274.357 
       0.773185         263.036         99.4949         272.477 
       0.779291         258.845         97.8273         269.855 
       0.785407         258.183         96.1963          267.45 
       0.791564         255.825         94.5926         265.735 
       0.797719         253.205         93.0266         264.158 
       0.803834          251.89         91.5063         261.635 
       0.809972         249.257         90.0148         259.759 
       0.816124         249.616         88.5535         257.845 
       0.822261         245.573          87.129         255.816 
       0.828378         243.945         85.7405         253.258 
       0.834502         243.681         84.3814         252.297 
       0.840667         239.564         83.0434         250.704 
       0.846816         238.709         81.7385         248.373 
       0.852925         236.693         80.4704         246.391 
       0.859047           234.9         79.2268         244.812 
       0.865192         233.418         78.0059         243.352 
       0.871341         230.891         76.8102         241.289 
       0.877463         229.621         75.6454         240.225 
       0.883569         227.545          74.508         238.508 
       0.889708         225.985         73.3886         236.794 
       0.895864          223.45         72.2895         235.538 
       0.902008         222.848         71.2156         233.172 
       0.908149         221.521         70.1645         231.338 
       0.914301         219.044         69.1331         230.633 
       0.920448         217.441         68.1237         228.515 
       0.926574          216.44         67.1383         226.516 
       0.932687         215.286         66.1747         224.856 
       0.938823         212.983         65.2268         224.285 
       0.944975         211.579         64.2955         223.245 
       0.951105         210.431          63.386           221.4 
       0.957225         207.901         62.4958         219.774 
       0.963368         206.149           61.62         217.655 
       0.969511         205.215         60.7611         216.667 
       0.975621         203.885         59.9234         216.651 
       0.981748         203.584         59.0995         214.429 
       0.987916          200.75         58.2861         213.558 
        0.99406         199.905         57.4912         212.216 
        1.00019         199.164         56.7129          210.37 
        1.00632         197.274         55.9499         208.698 
        1.01246         196.047            55.2         207.256 
        1.01859         194.451         54.4652          206.72 
        1.02471         193.665         53.7448         205.958 
        1.03085         191.647         53.0351         204.456 
        1.03698         190.174           52.34         202.994 
        1.04314         189.272         51.6544         202.002 
        1.04929         187.691         50.9829         200.817 
        1.05541         186.839         50.3262         199.711 
        1.06154         185.537         49.6795         198.758 
        1.06769         185.239         49.0433         197.641 
        1.07382         183.894         48.4205         196.383 
        1.07993         182.451         47.8101         195.175 
        1.08607         181.082         47.2077         194.451 
        1.09222          180.02         46.6153         193.302 
        1.09836          178.46         46.0338         192.081 
        1.10449         177.133         45.4631         190.814 
        1.11063         176.159         44.9015         189.455 
        1.11677         175.515         44.3497         188.688 
         1.1229         173.704         43.8082          187.81 
        1.12903         172.855         43.2754         186.688 
        1.13518         172.527         42.7512         185.676 
        1.14131         170.735          42.236          184.44 
        1.14745         170.059         41.7296         183.542 
        1.15359          168.71         41.2316         182.446 
        1.15973         168.357         40.7416         181.607 
        1.16584         166.638         40.2618         180.481 
        1.17197          165.91         39.7892         179.346 
        1.17811         164.903         39.3227          178.93 
        1.18424         163.737         38.8652         177.767 
        1.19038         163.099         38.4137         176.969 
        1.19652         162.064         37.9696         176.033 
        1.20267         160.887         37.5327         175.047 
        1.20881         159.898         37.1027         174.415 
        1.21495         158.888         36.6803          172.88 
        1.22108         158.131         36.2646         172.552 
         1.2272         157.023         35.8563         171.325 
        1.23334         155.985         35.4535         170.657 
        1.23949          154.21         35.0559         169.607 
        1.24562          154.09         34.6657         168.744 
        1.25174         152.399          34.282         167.931 
        1.25789         151.874          33.903         167.153 
        1.26402         151.222         33.5304         166.085 
        1.27014         149.999         33.1644         166.023 
        1.27628         149.401         32.8028         165.379 
        1.28244           148.5          32.446         163.666 
        1.28858         147.687          32.095         162.856 
        1.29471         146.233           31.75         162.429 
        1.30084         145.541         31.4105          161.47 
        1.30697         144.763         31.0754         160.597 
        1.31312         144.439         30.7448         159.612 
        1.31925         143.095         30.4201         158.938 
        1.32537           142.7         30.1005         158.222 
        1.33151         141.068         29.7843         157.456 
        1.33765         140.617          29.473         156.817 
        1.34378         139.547         29.1667         155.795 
        1.34992         139.345         28.8646          155.19 
        1.35606         138.243         28.5662         154.243 
         1.3622         137.289         28.2726         153.599 
        1.36833         136.556         27.9838         152.757 
        1.37445         135.503         27.6993          151.85 
        1.38059         135.311         27.4179         151.468 
        1.38675         134.162         27.1397         150.508 
        1.39288         133.534         26.8666         149.945 
        1.39901         132.889         26.5974         149.265 
        1.40515         132.203         26.3313         148.531 
         1.4113         130.562         26.0689         147.916 
        1.41742         130.501         25.8112         147.354 
        1.42355          129.44         25.5565         146.486 
         1.4297          128.66         25.3045         145.718 
        1.43585           127.8          25.056         145.075 
        1.44198         127.456         24.8119         144.474 
        1.44809         126.378         24.5715         143.636 
        1.45423          125.47         24.3334         142.807 
        1.46036         125.084         24.0989         142.237 
        1.46649         124.475         23.8675         141.824 
        1.47263         123.928          23.639         141.246 
        1.47877         123.131         23.4135         140.287 
        1.48491         122.166         23.1907         139.877 
        1.49104         121.455         22.9713         139.221 
        1.49718         120.704         22.7546          138.18 
        1.50333         120.019         22.5403         137.802 
        1.50947         119.144         22.3293         137.245 
         1.5156         118.964         22.1213         136.571 
        1.52172         117.893          21.916         136.157 
        1.52787         117.676         21.7128         135.193 
          1.534         116.973         21.5126         134.652 
        1.54013         115.948          21.315         134.056 
        1.54627         115.318         21.1197         133.464 
        1.55241         114.694         20.9267         133.022 
        1.55855         114.236         20.7365         132.134 
        1.56467         113.452         20.5491         131.495 
         1.5708         112.696         20.3636          131.09 
        1.57695         112.371         20.1801           130.5 
        1.58308         111.238         19.9993         129.846 
        1.58922         111.155         19.8206          129.26 
        1.59535         110.435         19.6442         128.713 
         1.6015         109.849         19.4697         128.115 
        1.60764         109.113         19.2974         127.653 
        1.61376         108.505         19.1277         127.255 
        1.61989         108.064         18.9599         126.534 
        1.62604         107.119         18.7938         125.848 
        1.63218         106.917         18.6297         125.346 
        1.63831          106.14         18.4681         124.986 
        1.64444         105.563         18.3083         124.439 
        1.65059         104.781           18.15         123.578 
        1.65673         104.123         17.9938         123.165 
        1.66285          103.85         17.8399         122.814 
        1.66898         103.118         17.6877         122.094 
        1.67512         102.471          17.537         121.701 
        1.68127         101.862          17.388         121.136 
         1.6874         101.314          17.241         120.394 
        1.69353         100.808         17.0958         119.883 
        1.69967          100.22          16.952         119.493 
        1.70581         99.7367         16.8099         118.914 
        1.71193         99.2806           16.67         118.357 
        1.71806         98.3759         16.5314         118.196 
        1.72421         98.1727         16.3941         117.586 
        1.73035          97.401         16.2585         116.876 
        1.73649          96.915         16.1245         116.434 
        1.74262         96.4158         15.9921         116.042 
        1.74876         95.8814         15.8612         115.501 
        1.75489         95.2556          15.732         114.926 
        1.76101         94.9019         15.6043           114.4 
        1.76715          94.208         15.4778         113.819 
        1.77329         93.7962         15.3526         113.447 
        1.77943         93.3758         15.2287         113.049 
        1.78557         92.8626         15.1064         112.389 
        1.79171         92.2592         14.9854         111.939 
        1.79785         91.8345         14.8658         111.603 
        1.80399         91.2469         14.7474         111.094 
        1.81012         90.8702         14.6306         110.648 
        1.81625         90.1914          14.515         110.171 
        1.82239         89.7766         14.4006          109.66 
        1.82853         89.4525         14.2874         109.291 
        1.83466         88.7207         14.1756         108.791 
        1.84078         88.3268         14.0651         108.266 
        1.84692         87.8288         13.9556         108.058 
        1.85306         87.2887         13.8471         107.604 
         1.8592         86.6372           13.74             107 
        1.86533         86.2497         13.6341         106.595 
        1.87147         85.6441         13.5291         105.931 
        1.87761         85.2765         13.4253         105.386 
