# k  (h/Mpc)    P(k)  (Mpc/h)^3    P_linear(k)  (Mpc/h)^3     P_NL(k)  ShotnoiseSubtracted = false
     0.00783031         6515.38         6592.18         6587.73 
       0.013688         8855.02         8812.88         8772.31 
       0.019231         9519.08         9519.45         9450.78 
      0.0249154         9200.52         9350.01         9275.97 
      0.0312784         8520.19          8601.5         8522.46 
      0.0375637         7670.89         7693.87         7612.48 
      0.0433917         6808.91         6925.15         6837.24 
      0.0492413         6251.39         6310.12         6221.36 
      0.0555754         5666.61         5820.48         5730.87 
      0.0619321         5434.69         5455.57         5362.16 
       0.067871         5027.13         5160.43         5066.89 
      0.0738098         4719.81          4855.8         4737.65 
      0.0800417         4324.39          4497.9         4383.13 
      0.0862327         3983.64         4108.46         4021.05 
      0.0921407          3656.6         3732.06         3649.89 
      0.0982031         3292.43         3374.55         3324.78 
       0.104506         3059.35         3061.63         3038.81 
       0.110769         2820.34         2821.65         2786.46 
       0.116806         2632.69         2651.84         2617.08 
       0.122832         2521.65         2525.75         2499.09 
       0.129052         2371.28         2418.27         2392.87 
       0.135211          2268.9         2313.15         2288.46 
       0.141259          2181.1         2197.75         2185.75 
       0.147318         2067.42         2066.68         2069.49 
       0.153489         1909.53         1923.04         1911.27 
       0.159709         1799.44         1779.41         1789.57 
       0.165845         1715.46         1650.44         1694.61 
       0.171974         1602.85         1542.09          1589.8 
       0.178125         1521.86         1456.27         1528.67 
       0.184229         1464.26         1391.01         1461.24 
        0.19034          1377.5          1339.2         1410.13 
       0.196428         1359.41         1293.48         1352.75 
       0.202534         1321.31         1246.82         1311.85 
       0.208729         1263.14          1194.5         1253.03 
       0.214876         1200.87          1136.9         1217.13 
       0.220989         1166.72         1076.25          1167.8 
       0.227147         1101.43         1015.71         1113.57 
        0.23329         1056.55         959.808         1075.51 
       0.239377         1033.72         911.595         1033.92 
       0.245482         967.865         871.329          987.11 
       0.251667         959.288         837.908         964.389 
       0.257832         927.137         809.828         935.076 
       0.263955         898.931         784.471          908.09 
       0.270079         871.668         759.231         882.329 
        0.27624         862.568           732.5         853.916 
       0.282372         826.279         704.163         829.432 
        0.28843         808.535         675.105         802.272 
       0.294538         771.297         645.998         780.445 
       0.300721         767.358         618.091         758.876 
        0.30691         732.823         592.801         741.323 
       0.313033          718.48         570.797         717.225 
       0.319153         698.147         551.677         700.408 
       0.325316         678.192         534.607         688.818 
        0.33145         660.624         518.944          665.59 
       0.337538         653.569         503.832         651.317 
       0.343633         633.939         488.578         642.925 
       0.349808         614.874         472.746         629.731 
       0.355968         609.796         456.709         617.094 
       0.362074         597.884         440.948         601.829 
       0.368217         582.205         425.664         583.696 
       0.374374         560.523          411.34         572.651 
       0.380519          555.04         398.208         559.835 
       0.386598          542.99         386.389         550.905 
       0.392688         539.801         375.534         539.215 
        0.39888         524.721         365.202         529.828 
       0.405048         515.444         355.337          524.17 
       0.411186         505.653         345.685         510.822 
       0.417313         497.255         336.076         498.834 
       0.423458         488.944         326.496          490.94 
       0.429607         478.577         317.026          481.02 
       0.435692         467.966         307.917         472.495 
       0.441815         465.217         299.161         468.607 
       0.447964         456.276         290.859         459.608 
       0.454126         441.711         283.044         448.856 
       0.460267             437         275.746         446.047 
       0.466387         432.176         268.859         437.495 
        0.47254         423.446         262.209         431.869 
       0.478662           421.9          255.78         424.019 
       0.484765         410.723          249.51         415.144 
       0.490885          405.93         243.324         410.348 
       0.497035         399.402         237.215         405.992 
       0.503198         391.633         231.253         399.621 
       0.509342         388.573         225.515         395.018 
       0.515458         384.433         220.031         392.138 
       0.521598         378.318          214.76         384.503 
       0.527764         371.243         209.706         378.617 
       0.533884         368.162         204.913         374.485 
           0.54         363.528         200.305         369.744 
       0.546137         361.996         195.822         365.781 
       0.552299         355.146         191.431         360.229 
       0.558452         351.523         187.155         356.131 
       0.564573         345.783         183.005         353.083 
       0.570708         340.451         178.952         349.268 
       0.576825         335.961         175.021         342.926 
       0.582926         333.083         171.219         339.059 
       0.589034         328.828         167.539         335.537 
       0.595184         325.932         163.966         330.506 
       0.601379         323.136         160.499         329.209 
       0.607522         317.165         157.175          325.09 
       0.613639         315.981         153.963         321.678 
       0.619772         308.374         150.828         318.633 
       0.625918         306.959         147.765         315.866 
       0.632068         303.056         144.778         310.783 
       0.638161         301.823         141.896          308.99 
         0.6443         296.542         139.071         305.819 
       0.650464           294.2         136.313         300.869 
       0.656582         292.866         133.652         298.528 
       0.662703         289.356         131.065         296.511 
       0.668861         285.047         128.534         293.404 
       0.675024         282.169         126.071         290.096 
       0.681124         281.222         123.701         287.319 
       0.687237         277.101         121.391         284.267 
       0.693381         273.378         119.131         281.706 
       0.699536         271.555         116.925         279.567 
       0.705665         270.624         114.786         277.986 
       0.711789         266.271         112.701         274.143 
       0.717957          264.71         110.652         272.158 
        0.72409          261.78         108.665         270.894 
       0.730186         258.397         106.738         268.346 
       0.736317         256.701         104.848         265.282 
       0.742472         255.401         102.997         262.965 
       0.748622         253.546         101.194          260.33 
        0.75476         251.303         99.4395         258.804 
       0.760888         247.925         97.7305         255.744 
       0.767043         246.867         96.0562         254.449 
       0.773185         244.173         94.4256         252.787 
       0.779291         240.348          92.843         250.347 
       0.785407         239.679          91.295         247.938 
       0.791564         237.477         89.7731         246.377 
       0.797719         234.919         88.2869         244.928 
       0.803834         233.805          86.844         242.422 
       0.809972         231.171         85.4285         240.722 
       0.816124         231.456         84.0417         239.074 
       0.822261          227.87         82.6898         237.092 
       0.828378         226.215          81.372         234.591 
       0.834502         225.985         80.0821         233.775 
       0.840667         222.259         78.8123         232.386 
       0.846816         221.358         77.5739         230.065 
       0.852925         219.424         76.3704         228.236 
       0.859047         217.642         75.1902         226.737 
       0.865192         216.386         74.0314          225.42 
       0.871341         214.029         72.8967         223.437 
       0.877463         212.827         71.7912         222.501 
       0.883569         210.854         70.7118         220.822 
       0.889708         209.489         69.6494         219.319 
       0.895864         207.228         68.6064         218.137 
       0.902008         206.493         67.5872         215.883 
       0.908149         205.287         66.5896         214.219 
       0.914301         202.997         65.6108         213.558 
       0.920448         201.626         64.6528         211.688 
       0.926574         200.659         63.7176         209.663 
       0.932687           199.4          62.803         208.178 
       0.938823         197.293         61.9034         207.551 
       0.944975         195.997         61.0196         206.573 
       0.951105         194.877         60.1564         204.855 
       0.957225         192.489         59.3117         203.425 
       0.963368         191.072         58.4804         201.384 
       0.969511         190.214         57.6653         200.488 
       0.975621          189.08         56.8703         200.601 
       0.981748          188.56         56.0883         198.425 
       0.987916         185.979         55.3164         197.654 
        0.99406          185.33          54.562         196.336 
        1.00019         184.402         53.8234         194.645 
        1.00632         182.773         53.0992         193.182 
        1.01246          181.62         52.3875         191.806 
        1.01859         179.931         51.6901         191.281 
        1.02471         179.512         51.0065         190.596 
        1.03085         177.688          50.333         189.194 
        1.03698         176.145         49.6732         187.743 
        1.04314         175.286         49.0226         186.908 
        1.04929         173.948         48.3853          185.92 
        1.05541         173.069          47.762         184.877 
        1.06154         171.853         47.1483         183.993 
        1.06769          171.57         46.5446         182.932 
        1.07382         170.412         45.9535         181.788 
        1.07993         169.104         45.3741         180.646 
        1.08607         167.736         44.8025         179.919 
        1.09222         166.771         44.2402         178.828 
        1.09836         165.386         43.6884         177.659 
        1.10449         164.245         43.1467         176.543 
        1.11063         163.342         42.6137         175.257 
        1.11677         162.671         42.0901         174.566 
         1.1229         160.998         41.5762         173.797 
        1.12903         160.122         41.0705         172.688 
        1.13518          159.96          40.573         171.794 
        1.14131         158.276          40.084         170.634 
        1.14745         157.521         39.6035         169.814 
        1.15359         156.364         39.1309         168.797 
        1.15973         156.011         38.6658         168.109 
        1.16584         154.507         38.2105         167.085 
        1.17197         153.746         37.7619         166.027 
        1.17811         152.845         37.3192         165.544 
        1.18424         151.708          36.885         164.525 
        1.19038         151.068         36.4565         163.818 
        1.19652         150.189         36.0351         162.827 
        1.20267         149.047         35.6204         161.968 
        1.20881         148.175         35.2124         161.359 
        1.21495         147.207         34.8114         159.998 
        1.22108          146.44         34.4169          159.64 
         1.2272         145.524         34.0294         158.587 
        1.23334         144.552         33.6471         157.936 
        1.23949         142.913         33.2698           156.9 
        1.24562         142.848         32.8994         156.214 
        1.25174         141.411         32.5353           155.4 
        1.25789         140.845         32.1756         154.705 
        1.26402         140.274          31.822         153.763 
        1.27014         139.059         31.4747         153.663 
        1.27628         138.561         31.1315          153.05 
        1.28244          137.64         30.7929         151.457 
        1.28858         136.897         30.4597          150.71 
        1.29471         135.688         30.1323         150.351 
        1.30084         135.001         29.8101         149.414 
        1.30697         134.237         29.4921         148.621 
        1.31312         133.931         29.1784         147.808 
        1.31925         132.781         28.8702         147.137 
        1.32537         132.378         28.5669         146.435 
        1.33151          130.89         28.2668         145.771 
        1.33765         130.393         27.9713         145.181 
        1.34378         129.431         27.6807         144.249 
        1.34992         129.283          27.394         143.697 
        1.35606         128.285         27.1108         142.836 
         1.3622         127.309         26.8321         142.264 
        1.36833         126.753         26.5581         141.431 
        1.37445         125.765          26.288         140.614 
        1.38059         125.467         26.0209         140.286 
        1.38675         124.509          25.757         139.351 
        1.39288         123.824         25.4977         138.914 
        1.39901         123.312         25.2422         138.235 
        1.40515         122.716         24.9897         137.564 
         1.4113         121.208         24.7407         137.044 
        1.41742         121.153         24.4961         136.465 
        1.42355         120.144         24.2544          135.57 
         1.4297          119.48         24.0152         134.909 
        1.43585         118.711         23.7794         134.371 
        1.44198         118.335         23.5477          133.86 
        1.44809         117.355         23.3196          133.01 
        1.45423         116.602         23.0936         132.281 
        1.46036         116.157         22.8711         131.776 
        1.46649         115.606         22.6515         131.395 
        1.47263         115.091         22.4346         130.851 
        1.47877         114.417         22.2206         129.928 
        1.48491         113.534         22.0091         129.621 
        1.49104         112.869         21.8009         128.935 
        1.49718         112.263         21.5952         128.051 
        1.50333         111.561         21.3919         127.683 
        1.50947         110.727         21.1916         127.155 
         1.5156         110.623         20.9942         126.556 
        1.52172         109.593         20.7993         126.148 
        1.52787         109.429         20.6066         125.295 
          1.534         108.789         20.4165         124.822 
        1.54013          107.84          20.229         124.239 
        1.54627         107.229         20.0436         123.687 
        1.55241         106.645         19.8605         123.298 
        1.55855         106.243         19.6799          122.47 
        1.56467         105.489         19.5021         121.882 
         1.5708         104.828         19.3261          121.51 
        1.57695         104.553         19.1519         120.984 
        1.58308         103.493         18.9803          120.42 
        1.58922         103.375         18.8107         119.885 
        1.59535         102.785         18.6433         119.358 
         1.6015         102.171         18.4777         118.787 
        1.60764         101.592         18.3142         118.386 
        1.61376         100.957         18.1531         118.046 
        1.61989         100.536         17.9939         117.351 
        1.62604         99.6817         17.8362         116.711 
        1.63218         99.5386         17.6806         116.257 
        1.63831          98.842         17.5271          115.93 
        1.64444         98.3252         17.3755         115.428 
        1.65059         97.5055         17.2253         114.612 
        1.65673         97.0018          17.077         114.245 
        1.66285         96.6717         16.9309         113.931 
        1.66898         96.0847         16.7865         113.246 
        1.67512         95.3949         16.6435         112.927 
        1.68127         94.8755         16.5021         112.415 
         1.6874         94.3996         16.3626         111.689 
        1.69353         93.9538         16.2248         111.202 
        1.69967         93.3723         16.0883         110.906 
        1.70581         92.9428         15.9534         110.392 
        1.71193         92.5418         15.8206         109.852 
        1.71806         91.7171         15.6891         109.727 
        1.72421         91.5418         15.5588         109.136 
        1.73035         90.8337         15.4301         108.497 
        1.73649         90.3689          15.303         108.148 
        1.74262         89.9294         15.1773         107.729 
        1.74876         89.4364         15.0531         107.216 
        1.75489         88.8499         14.9304         106.733 
        1.76101         88.5048         14.8092         106.274 
        1.76715         87.9315         14.6892         105.687 
        1.77329         87.5005         14.5704         105.325 
        1.77943         87.1204         14.4528          104.96 
        1.78557         86.6481         14.3367         104.318 
        1.79171         86.1001         14.2219         103.906 
        1.79785          85.761         14.1083         103.625 
        1.80399         85.1287         13.9961         103.166 
        1.81012         84.8365         13.8851         102.761 
        1.81625         84.1915         13.7755         102.319 
        1.82239         83.7581         13.6669         101.857 
        1.82853         83.4324         13.5595         101.565 
        1.83466         82.8525         13.4533         101.092 
        1.84078         82.3633         13.3485         100.561 
        1.84692         82.0201         13.2445         100.403 
        1.85306         81.5522         13.1416         99.9954 
         1.8592         80.9042         13.0399          99.413 
        1.86533         80.5401         12.9394         99.0597 
        1.87147         80.0381         12.8398          98.489 
        1.87761         79.6405         12.7413         97.9774 
