# k  (h/Mpc)    P(k)  (Mpc/h)^3    P_linear(k)  (Mpc/h)^3     P_NL(k)  ShotnoiseSubtracted = false
     0.00783031         6169.34         6241.18         6237.13 
       0.013688         8381.76         8343.73         8306.07 
       0.019231         9012.75         9012.72         8949.11 
      0.0249154         8715.28         8852.34         8784.64 
      0.0312784         8070.35         8143.68         8072.41 
      0.0375637         7265.03         7284.37         7211.18 
      0.0433917          6451.6         6556.58         6477.85 
      0.0492413         5922.24         5974.28         5894.89 
      0.0555754         5371.46         5510.71         5430.43 
      0.0619321         5148.71         5165.22         5081.48 
       0.067871         4765.77         4885.79         4801.79 
      0.0738098         4474.57         4597.37         4491.21 
      0.0800417         4101.23         4258.52         4155.39 
      0.0862327         3777.21         3889.81         3811.35 
      0.0921407         3465.73         3533.44         3459.72 
      0.0982031         3120.54         3194.96         3150.53 
       0.104506         2897.71         2898.69         2878.57 
       0.110769         2671.19         2671.48         2640.06 
       0.116806         2493.04         2510.71         2479.68 
       0.122832         2388.22         2391.33         2367.64 
       0.129052         2246.91         2289.57         2266.94 
       0.135211         2149.69         2190.05         2168.14 
       0.141259         2065.93         2080.79         2070.24 
       0.147318         1957.93         1956.69         1959.76 
       0.153489         1808.61          1820.7         1810.35 
       0.159709         1703.24         1684.71         1694.26 
       0.165845         1622.45          1562.6         1603.12 
       0.171974         1515.14         1460.02         1503.54 
       0.178125         1438.53         1378.77         1444.75 
       0.184229         1384.07         1316.98         1381.21 
        0.19034         1301.99         1267.93         1332.66 
       0.196428         1284.59         1224.64         1278.44 
       0.202534         1248.96         1180.46         1239.51 
       0.208729         1193.62         1130.93         1184.17 
       0.214876         1134.01         1076.39         1149.63 
       0.220989         1101.65         1018.98          1102.4 
       0.227147         1039.05         961.653         1050.55 
        0.23329         996.376         908.728         1014.11 
       0.239377             974         863.081         974.722 
       0.245482         911.921         824.957         930.404 
       0.251667         903.356         793.316         908.613 
       0.257832         873.358         766.729         880.883 
       0.263955         846.693         742.722         855.264 
       0.270079         821.059         718.825         830.766 
        0.27624         812.128         693.517         803.756 
       0.282372         778.117         666.688          780.39 
        0.28843          760.14         639.177         754.473 
       0.294538         725.433         611.619         733.753 
       0.300721         721.272         585.197         713.432 
        0.30691          688.65         561.253         696.346 
       0.313033         674.892          540.42         673.537 
       0.319153         654.939         522.317         657.798 
       0.325316         636.587         506.156         646.664 
        0.33145         619.817         491.326         624.853 
       0.337538         613.163         477.019         611.095 
       0.343633         594.577         462.576         602.925 
       0.349808         576.824         447.586         590.396 
       0.355968         571.533         432.403         578.395 
       0.362074         559.899         417.481         563.889 
       0.368217         545.293         403.011         546.717 
       0.374374         525.346         389.449         536.224 
       0.380519         519.582         377.015         524.049 
       0.386598          508.26         365.826         515.368 
       0.392688         504.922         355.549         504.616 
        0.39888         490.973         345.767         495.358 
       0.405048         482.113         336.426         489.971 
       0.411186         472.716         327.288         477.589 
       0.417313         464.887         318.191         466.036 
       0.423458         456.969          309.12         458.494 
       0.429607         447.085         300.154         449.299 
       0.435692         436.932          291.53          441.25 
       0.441815         434.318          283.24          437.48 
       0.447964         426.134         275.379         428.904 
       0.454126         411.837         267.981         418.825 
       0.460267         407.572         261.071         415.996 
       0.466387         403.023         254.551         407.988 
        0.47254         394.874         248.255         402.565 
       0.478662         393.166         242.168         395.217 
       0.484765         382.868         236.232         386.786 
       0.490885         378.207         230.375         382.361 
       0.497035         372.301          224.59         378.219 
       0.503198         364.642         218.946         372.213 
       0.509342         361.699         213.513          367.86 
       0.515458         357.663         208.321         365.115 
       0.521598         352.251          203.33         357.853 
       0.527764         345.846         198.546         352.162 
       0.533884         342.515         194.008         348.306 
           0.54         338.203         189.645         343.896 
       0.546137         336.691           185.4         340.248 
       0.552299         330.406         181.244         334.889 
       0.558452         326.659         177.194         330.931 
       0.564573          321.31         173.266         328.106 
       0.570708          316.36         169.428         324.368 
       0.576825         312.392         165.707         318.488 
       0.582926         309.435         162.107         314.851 
       0.589034         305.276         158.622         311.686 
       0.595184         302.611          155.24         306.895 
       0.601379         300.065         151.958         305.742 
       0.607522         294.309          148.81         301.701 
       0.613639         293.249         145.769         298.517 
       0.619772           286.3         142.801         295.366 
       0.625918         284.743         139.901         292.953 
       0.632068         281.236         137.073         288.161 
       0.638161         280.007         134.344         286.598 
         0.6443         275.217         131.669         283.471 
       0.650464         272.923         129.059          278.85 
       0.656582         271.483          126.54         276.754 
       0.662703         268.017         124.089         274.579 
       0.668861         264.249         121.693          271.74 
       0.675024         261.508         119.362         268.568 
       0.681124         260.559         117.118         266.173 
       0.687237         256.545         114.931         263.216 
       0.693381         253.165         112.791         260.784 
       0.699536         251.509         110.703         258.781 
       0.705665         250.923         108.677         257.391 
       0.711789         246.462         106.703         253.603 
       0.717957         245.145         104.763         251.749 
        0.72409         242.335         102.882         250.679 
       0.730186         238.987         101.058         248.218 
       0.736317         237.631         99.2681         245.357 
       0.742472         236.315         97.5159         243.236 
       0.748622         234.657         95.8086         240.737 
        0.75476         232.561         94.1474          239.14 
       0.760888         229.436         92.5294         236.337 
       0.767043         228.222         90.9441         235.161 
       0.773185         225.853         89.4003          233.69 
       0.779291         222.441          87.902         231.427 
       0.785407         221.733         86.4364         229.039 
       0.791564         219.657         84.9955         227.613 
       0.797719         217.199         83.5883         226.265 
       0.803834         216.247         82.2223         223.802 
       0.809972         213.634         80.8821         222.267 
       0.816124         213.825         79.5691         220.848 
       0.822261          210.69         78.2891         218.931 
       0.828378          209.03         77.0414         216.507 
       0.834502         208.759         75.8202         215.825 
       0.840667         205.463          74.618         214.619 
       0.846816         204.509         73.4455         212.344 
       0.852925         202.632          72.306         210.649 
       0.859047         200.897         71.1886         209.211 
       0.865192         199.848         70.0916         208.041 
       0.871341         197.677         69.0172         206.143 
       0.877463         196.491         67.9706         205.312 
       0.883569         194.665         66.9486         203.682 
       0.889708         193.477         65.9427         202.358 
       0.895864         191.474         64.9552         201.236 
       0.902008         190.631         63.9903         199.132 
       0.908149         189.525         63.0457         197.629 
       0.914301         187.395          62.119         196.995 
       0.920448         186.237          61.212         195.348 
       0.926574         185.293         60.3266         193.322 
       0.932687             184         59.4607         192.008 
       0.938823         182.041          58.609         191.323 
       0.944975         180.888         57.7722         190.387 
       0.951105         179.775          56.955         188.812 
       0.957225         177.548         56.1551         187.581 
       0.963368         176.434         55.3681         185.621 
       0.969511         175.631         54.5964         184.796 
       0.975621         174.677         53.8437         185.014 
       0.981748         173.949         53.1034         182.908 
       0.987916         171.667         52.3725         182.221 
        0.99406         171.141         51.6583          180.93 
        1.00019         170.032         50.9589         179.388 
        1.00632         168.688         50.2733         178.143 
        1.01246         167.555         49.5995         176.835 
        1.01859         165.845         48.9392         176.294 
        1.02471          165.76          48.292         175.671 
        1.03085           164.1         47.6543          174.37 
        1.03698         162.537         47.0297         172.962 
        1.04314         161.683         46.4137          172.25 
        1.04929         160.588         45.8103         171.438 
        1.05541         159.687         45.2202         170.462 
        1.06154         158.558         44.6391         169.624 
        1.06769         158.233         44.0675         168.633 
        1.07382         157.271         43.5079         167.584 
        1.07993         156.098         42.9594         166.517 
        1.08607         154.772         42.4181         165.772 
        1.09222         153.891         41.8858         164.712 
        1.09836         152.656         41.3633         163.645 
        1.10449         151.675         40.8505         162.675 
        1.11063         150.822         40.3459         161.461 
        1.11677          150.13         39.8501         160.815 
         1.1229         148.643         39.3635         160.175 
        1.12903         147.695         38.8848         159.081 
        1.13518          147.67         38.4137          158.29 
        1.14131         146.148         37.9508         157.222 
        1.14745         145.282         37.4958         156.468 
        1.15359         144.322         37.0483         155.541 
        1.15973         143.957          36.608         154.953 
        1.16584         142.652         36.1769         154.021 
        1.17197         141.868         35.7522         153.063 
        1.17811         141.061         35.3331         152.486 
        1.18424         139.944          34.922         151.616 
        1.19038         139.332         34.5163         150.999 
        1.19652         138.586         34.1173         149.972 
        1.20267         137.491         33.7247         149.222 
        1.20881         136.713         33.3384         148.625 
        1.21495           135.8         32.9588         147.449 
        1.22108         135.031         32.5852         147.055 
         1.2272         134.271         32.2184         146.156 
        1.23334         133.391         31.8565         145.522 
        1.23949          131.95         31.4992         144.536 
        1.24562         131.886         31.1486         143.987 
        1.25174          130.68         30.8038         143.205 
        1.25789         130.064         30.4632         142.566 
        1.26402         129.563         30.1285         141.735 
        1.27014         128.371         29.7996         141.569 
        1.27628         127.978         29.4747         140.982 
        1.28244         127.033         29.1541         139.548 
        1.28858         126.354         28.8387         138.862 
        1.29471         125.389         28.5287         138.557 
        1.30084         124.687         28.2236         137.636 
        1.30697         123.931         27.9226          136.92 
        1.31312         123.618         27.6255         136.283 
        1.31925         122.719         27.3338         135.611 
        1.32537         122.264         27.0466         134.927 
        1.33151         120.956         26.7625         134.356 
        1.33765         120.422         26.4827         133.801 
        1.34378         119.563         26.2075         132.962 
        1.34992         119.397         25.9361          132.46 
        1.35606         118.536          25.668         131.681 
         1.3622         117.554         25.4041         131.165 
        1.36833         117.171         25.1447         130.338 
        1.37445         116.222          24.889          129.63 
        1.38059         115.802         24.6361         129.355 
        1.38675         115.045         24.3862         128.436 
        1.39288         114.327         24.1408         128.095 
        1.39901         113.968         23.8989         127.439 
        1.40515         113.429         23.6597         126.842 
         1.4113         112.071          23.424         126.397 
        1.41742         111.969         23.1924         125.794 
        1.42355         111.041         22.9636         124.906 
         1.4297         110.485         22.7372         124.334 
        1.43585         109.771         22.5139         123.896 
        1.44198         109.405         22.2945         123.465 
        1.44809         108.515         22.0785         122.598 
        1.45423         107.916         21.8646         121.987 
        1.46036         107.413         21.6539         121.545 
        1.46649          106.89          21.446         121.187 
        1.47263         106.415         21.2406         120.684 
        1.47877         105.852         21.0381         119.813 
        1.48491         105.046         20.8378         119.569 
        1.49104         104.436         20.6407         118.855 
        1.49718         103.932         20.4459         118.131 
        1.50333          103.24         20.2534         117.759 
        1.50947         102.471         20.0638         117.264 
         1.5156         102.385         19.8769         116.745 
        1.52172         101.451         19.6924         116.336 
        1.52787         101.267         19.5099          115.61 
          1.534         100.723           19.33         115.193 
        1.54013         99.8468         19.1525         114.629 
        1.54627         99.2999         18.9769          114.11 
        1.55241         98.7108         18.8035         113.753 
        1.55855         98.3442         18.6326         113.003 
        1.56467         97.6289         18.4643         112.458 
         1.5708         97.0999         18.2976         112.133 
        1.57695         96.8192         18.1327         111.678 
        1.58308         95.9112         17.9702         111.174 
        1.58922         95.7235         17.8096         110.693 
        1.59535          95.239         17.6511         110.187 
         1.6015         94.5962         17.4943          109.64 
        1.60764         94.1716         17.3395         109.287 
        1.61376           93.53          17.187         108.994 
        1.61989         93.1032         17.0363         108.345 
        1.62604          92.382          16.887         107.746 
        1.63218         92.2434         16.7396         107.327 
        1.63831         91.6236         16.5943         107.022 
        1.64444          91.185         16.4508         106.561 
        1.65059          90.345         16.3085         105.831 
        1.65673         89.9949         16.1682         105.482 
        1.66285         89.6156         16.0299         105.182 
        1.66898         89.1309         15.8931         104.583 
        1.67512         88.4336         15.7577         104.316 
        1.68127         87.9907         15.6238         103.844 
         1.6874         87.5609         15.4918         103.154 
        1.69353         87.1763         15.3613         102.697 
        1.69967         86.6269         15.2321         102.473 
        1.70581         86.2421         15.1044         102.034 
        1.71193          85.879         14.9787         101.521 
        1.71806          85.132         14.8541         101.366 
        1.72421         84.9877         14.7308         100.805 
        1.73035         84.3246          14.609         100.276 
        1.73649         83.8708         14.4886         100.018 
        1.74262          83.508         14.3696         99.5413 
        1.74876         83.0566         14.2519         99.0503 
        1.75489         82.4912         14.1358         98.6638 
        1.76101           82.19         14.0211         98.2668 
        1.76715         81.6667         13.9074         97.6922 
        1.77329         81.2659         13.7949          97.338 
        1.77943         80.9185         13.6836         97.0036 
        1.78557         80.4923         13.5737         96.4069 
        1.79171         79.9916          13.465         96.0268 
        1.79785         79.7126         13.3575         95.7858 
        1.80399         79.0696         13.2512         95.3883 
        1.81012         78.8454         13.1462          94.996 
        1.81625         78.2223         13.0424         94.5772 
        1.82239         77.8244         12.9395         94.1895 
        1.82853         77.4552         12.8378         93.9638 
        1.83466         77.0314         12.7374         93.5115 
        1.84078         76.4768         12.6381         92.9804 
        1.84692         76.2328         12.5397         92.8594 
        1.85306         75.8304         12.4422         92.4946 
         1.8592          75.233          12.346         91.9483 
        1.86533         74.8759         12.2508         91.6556 
        1.87147         74.4735         12.1565         91.1739 
        1.87761         74.0757         12.0632         90.6885 
