# k  (h/Mpc)    Pcb(k)  (Mpc/h)^3    Pcb_linear(k) (Mpc/h)^3    Pcb_NL(k) (Mpc/h)^3   ShotnoiseSubtracted = false
     0.00783031         144.358         145.486         145.354 
       0.013688           193.9          194.61         194.006 
       0.019231         210.016         210.268         209.355 
      0.0249154         205.759         206.557          205.93 
      0.0312784         189.823          190.04         189.789 
      0.0375637         170.161         169.997         169.888 
      0.0433917         152.968         153.018          153.03 
      0.0492413         139.549         139.432         139.467 
      0.0555754         128.478         128.615         128.612 
      0.0619321         120.781         120.554         120.522 
       0.067871         113.883         114.033         113.947 
      0.0738098         107.084         107.303         107.171 
      0.0800417         99.0719         99.3947         99.2774 
      0.0862327         90.6166         90.7895         90.7129 
      0.0921407         82.3995         82.4722         82.4344 
      0.0982031         74.4468         74.5722         74.5785 
       0.104506         67.7531         67.6573         67.6916 
       0.110769         62.4251         62.3544          62.378 
       0.116806         58.4989          58.602         58.6025 
       0.122832         55.8196         55.8157         55.8101 
       0.129052         53.3103         53.4406         53.4198 
       0.135211         50.9389         51.1177         51.0874 
       0.141259         48.4788         48.5675         48.5439 
       0.147318         45.6761         45.6711         45.6661 
       0.153489         42.4412         42.4969           42.49 
       0.159709         39.2884         39.3229         39.3401 
       0.165845         36.5918         36.4728         36.5218 
       0.171974         34.0572         34.0785         34.1274 
       0.178125         32.1835         32.1821         32.2484 
       0.184229         30.7888         30.7397         30.8043 
        0.19034         29.5145          29.595         29.6536 
       0.196428         28.5676         28.5844         28.6245 
       0.202534         27.6335         27.5534         27.5946 
       0.208729          26.405         26.3971         26.4366 
       0.214876         25.0632         25.1243         25.1843 
       0.220989         23.8699         23.7841         23.8547 
       0.227147         22.4058         22.4461         22.5196 
        0.23329         21.1852         21.2108         21.3036 
       0.239377         20.1456         20.1454         20.2497 
       0.245482         19.2277         19.2555         19.3514 
       0.251667         18.5597         18.5169         18.6216 
       0.257832         17.9073         17.8964         17.9982 
       0.263955         17.3545         17.3361         17.4315 
       0.270079         16.8038         16.7783         16.8685 
        0.27624         16.2663         16.1876         16.2725 
       0.282372         15.6333         15.5614         15.6535 
        0.28843         14.9485         14.9192         15.0154 
       0.294538         14.3175          14.276         14.3793 
       0.300721          13.749         13.6593         13.7722 
        0.30691         13.1469         13.1004         13.2159 
       0.313033         12.6714         12.6142         12.7284 
       0.319153         12.1729         12.1916         12.3139 
       0.325316         11.9012         11.8143         11.9408 
        0.33145         11.5351         11.4682         11.5867 
       0.337538          11.194         11.1342         11.2485 
       0.343633         10.8403         10.7971         10.9103 
       0.349808         10.5085         10.4473         10.5646 
       0.355968         10.1612         10.0929         10.2252 
       0.362074         9.80631         9.74456         9.87162 
       0.368217         9.47517         9.40682         9.52425 
       0.374374         9.12767         9.09023         9.21818 
       0.380519         8.87063         8.80005         8.92447 
       0.386598         8.61818         8.53885         8.66796 
       0.392688         8.39276         8.29898         8.42732 
        0.39888         8.15064         8.07065          8.1973 
       0.405048         7.93825         7.85262         7.97249 
       0.411186         7.73281         7.63934         7.77158 
       0.417313         7.49651         7.42699         7.55381 
       0.423458         7.30318         7.21525         7.34446 
       0.429607         7.07684         7.00601         7.13138 
       0.435692         6.87608          6.8047         6.93568 
       0.441815         6.68884         6.61119         6.75001 
       0.447964         6.53244         6.42771         6.56244 
       0.454126         6.32973         6.25506         6.38787 
       0.460267          6.1661         6.09373         6.22997 
       0.466387         6.00439         5.94156         6.07214 
        0.47254           5.868          5.7946         5.92637 
       0.478662         5.73328         5.65253         5.78182 
       0.484765         5.58459         5.51395         5.64473 
       0.490885         5.44861         5.37726         5.51691 
       0.497035         5.34248         5.24224         5.38277 
       0.503198          5.1978         5.11049         5.24037 
       0.509342         5.07873         4.98368         5.11753 
       0.515458         4.94513         4.86249         5.00247 
       0.521598         4.83335           4.746         4.87594 
       0.527764         4.71077         4.63433         4.76411 
       0.533884         4.62228          4.5284         4.65914 
           0.54         4.51532         4.42656         4.55493 
       0.546137         4.42301         4.32748         4.45852 
       0.552299         4.32268         4.23047         4.35327 
       0.558452         4.21324         4.13596         4.26078 
       0.564573         4.13231         4.04426         4.17875 
       0.570708         4.04452         3.95469         4.08647 
       0.576825         3.94906         3.86783         3.99735 
       0.582926         3.87638          3.7838         3.91554 
       0.589034         3.77036         3.70247         3.83796 
       0.595184         3.69913         3.62352         3.74711 
       0.601379         3.62268          3.5469         3.67917 
       0.607522         3.55952         3.47344         3.60374 
       0.613639         3.49996         3.40245         3.53103 
       0.619772         3.41245         3.33318          3.4658 
       0.625918         3.35088         3.26548         3.39325 
       0.632068         3.29323         3.19947         3.32552 
       0.638161         3.22022         3.13578         3.26117 
         0.6443         3.15628         3.07334         3.19665 
       0.650464         3.08719          3.0124         3.14062 
       0.656582         3.03842         2.95361         3.07987 
       0.662703           2.982         2.89642         3.02105 
       0.668861         2.93342         2.84048          2.9689 
       0.675024         2.86992         2.78606          2.9113 
       0.681124         2.81076          2.7337         2.85719 
       0.687237         2.76928         2.68264         2.80173 
       0.693381         2.72071         2.63269         2.74887 
       0.699536         2.65451         2.58395         2.70167 
       0.705665         2.61136         2.53667         2.66162 
       0.711789         2.57093         2.49059         2.61361 
       0.717957         2.52022         2.44531         2.56434 
        0.72409         2.47898          2.4014          2.5205 
       0.730186         2.43457         2.35882         2.47451 
       0.736317         2.40308         2.31705         2.43185 
       0.742472         2.35983         2.27615         2.39751 
       0.748622         2.31598         2.23631         2.35719 
        0.75476         2.26872         2.19753         2.31305 
       0.760888         2.23179         2.15976         2.27635 
       0.767043         2.20719         2.12276         2.24038 
       0.773185         2.16198         2.08673         2.20569 
       0.779291          2.1288         2.05175         2.16986 
       0.785407         2.09512         2.01754         2.13376 
       0.791564         2.06147         1.98391         2.10005 
       0.797719         2.03207         1.95107         2.06271 
       0.803834         2.00019         1.91918         2.03234 
       0.809972         1.96746          1.8879         2.00405 
       0.816124         1.93304         1.85725          1.9691 
       0.822261         1.89963         1.82738         1.93854 
       0.828378         1.87556         1.79825         1.90911 
       0.834502         1.85028         1.76975         1.87831 
       0.840667         1.81365         1.74169         1.85162 
       0.846816           1.787         1.71432         1.82846 
       0.852925         1.76693         1.68772         1.79886 
       0.859047         1.73981         1.66164         1.77569 
       0.865192         1.71149         1.63603          1.7473 
       0.871341         1.68532         1.61096         1.72051 
       0.877463         1.66725         1.58653         1.69474 
       0.883569         1.63724         1.56267         1.67257 
       0.889708         1.61252         1.53919          1.6486 
       0.895864         1.59017         1.51614         1.62414 
       0.902008         1.56463         1.49362         1.60103 
       0.908149         1.54277         1.47157         1.57996 
       0.914301          1.5146         1.44994         1.55543 
       0.920448         1.49642         1.42877         1.53332 
       0.926574         1.47445         1.40811         1.51325 
       0.932687         1.45446          1.3879         1.48995 
       0.938823         1.44017         1.36802         1.47505 
       0.944975         1.41815         1.34848         1.44969 
       0.951105         1.39987         1.32941         1.43065 
       0.957225         1.38466         1.31074         1.41482 
       0.963368         1.36397         1.29237          1.3939 
       0.969511         1.34242         1.27436         1.37582 
       0.975621         1.32216         1.25679         1.35396 
       0.981748         1.31046         1.23951         1.33747 
       0.987916         1.29167         1.22245         1.32381 
        0.99406         1.27249         1.20578          1.3073 
        1.00019         1.25962         1.18945         1.29025 
        1.00632         1.23844         1.17345         1.27196 
        1.01246         1.22279         1.15772         1.25507 
        1.01859         1.20959         1.14231         1.24058 
        1.02471         1.19243          1.1272         1.22563 
        1.03085         1.18126         1.11232         1.20744 
        1.03698         1.16301         1.09774         1.19185 
        1.04314         1.14973         1.08336         1.17842 
        1.04929         1.13351         1.06928         1.16394 
        1.05541         1.12186          1.0555         1.15124 
        1.06154         1.10574         1.04194          1.1371 
        1.06769         1.09101          1.0286         1.12266 
        1.07382         1.07974         1.01553          1.1093 
        1.07993         1.06344         1.00273         1.09591 
        1.08607         1.05576        0.990098         1.08324 
        1.09222         1.03988        0.977673         1.06918 
        1.09836         1.03162        0.965478         1.05779 
        1.10449         1.01853        0.953507         1.04526 
        1.11063           1.003        0.941729         1.03162 
        1.11677        0.990035        0.930156         1.02121 
         1.1229        0.980186          0.9188         1.00945 
        1.12903        0.967152        0.907625        0.997527 
        1.13518        0.958742         0.89663        0.986333 
        1.14131        0.945336        0.885825        0.975545 
        1.14745         0.92991        0.875205        0.962711 
        1.15359        0.923554         0.86476         0.95283 
        1.15973        0.909479        0.854483        0.943197 
        1.16584        0.904653         0.84442        0.931452 
        1.17197        0.892355        0.834507        0.921239 
        1.17811        0.883243        0.824724        0.912199 
        1.18424        0.876246        0.815129        0.900466 
        1.19038        0.863232         0.80566        0.891114 
        1.19652        0.851475        0.796346        0.881998 
        1.20267        0.845832        0.787181        0.870206 
        1.20881         0.83414        0.778164        0.862685 
        1.21495        0.827706        0.769304        0.855249 
        1.22108        0.818043        0.760585        0.844228 
         1.2272        0.810354        0.752023        0.834148 
        1.23334        0.800117        0.743574        0.826261 
        1.23949        0.791405        0.735236        0.818808 
        1.24562        0.783491        0.727051        0.810022 
        1.25174        0.775481        0.719004        0.800461 
        1.25789        0.768278        0.711054        0.791975 
        1.26402        0.757152        0.703241         0.78408 
        1.27014        0.750037        0.695565        0.775758 
        1.27628        0.744333        0.687981        0.767613 
        1.28244        0.733175        0.680497        0.760059 
        1.28858        0.727085        0.673136        0.751091 
        1.29471        0.721624          0.6659        0.744543 
        1.30084        0.712122        0.658779        0.738625 
        1.30697        0.705142        0.651752        0.730534 
        1.31312        0.695151        0.644818        0.722882 
        1.31925        0.690015        0.638008        0.716487 
        1.32537        0.684141        0.631305        0.709659 
        1.33151        0.678162        0.624674        0.702487 
        1.33765         0.67086        0.618143        0.695599 
        1.34378        0.662242         0.61172        0.689018 
        1.34992        0.657391        0.605385        0.682573 
        1.35606        0.650171        0.599126        0.674783 
         1.3622         0.64412        0.592968        0.668504 
        1.36833        0.637439        0.586912        0.662763 
        1.37445        0.629416        0.580944        0.656894 
        1.38059        0.623617        0.575042        0.649943 
        1.38675        0.621885        0.569208        0.643812 
        1.39288         0.61341        0.563479         0.63736 
        1.39901        0.607875        0.557833        0.631866 
        1.40515        0.602628        0.552252        0.625727 
         1.4113        0.595256         0.54675         0.62045 
        1.41742        0.589817        0.541344        0.616002 
        1.42355        0.586549        0.536002        0.608031 
         1.4297        0.578936        0.530717        0.603826 
        1.43585        0.574307        0.525506        0.598121 
        1.44198        0.570747        0.520386        0.590701 
        1.44809        0.563321        0.515344        0.587748 
        1.45423        0.558754         0.51035        0.580325 
        1.46036        0.553234        0.505433        0.575928 
        1.46649        0.549182        0.500579        0.572153 
        1.47263        0.543239        0.495786        0.566419 
        1.47877        0.537427        0.491058        0.561413 
        1.48491        0.533429        0.486384        0.557054 
        1.49104        0.527196        0.481783        0.550743 
        1.49718        0.523427        0.477237        0.547356 
        1.50333        0.519515        0.472744        0.540869 
        1.50947        0.514453        0.468318        0.535955 
         1.5156        0.509491        0.463955        0.532582 
        1.52172        0.505214        0.459649        0.527212 
        1.52787        0.500499        0.455389        0.522568 
          1.534        0.496192        0.451188        0.518785 
        1.54013        0.490793        0.447046        0.514228 
        1.54627        0.487758        0.442948        0.509479 
        1.55241        0.482683        0.438901        0.505141 
        1.55855        0.477659        0.434911        0.500944 
        1.56467        0.476108        0.430982        0.497293 
         1.5708        0.470756        0.427091        0.492361 
        1.57695        0.467037        0.423242        0.487718 
        1.58308        0.462576         0.41945         0.48459 
        1.58922        0.459069        0.415702        0.480755 
        1.59535        0.454845        0.412002        0.476372 
         1.6015        0.450798        0.408342        0.471855 
        1.60764        0.447413        0.404729        0.468659 
        1.61376         0.44241         0.40117         0.46606 
        1.61989          0.4398        0.397651        0.461767 
        1.62604        0.436394        0.394166        0.457724 
        1.63218        0.432991        0.390726        0.454183 
        1.63831        0.429246        0.387335         0.45052 
        1.64444        0.425497        0.383984        0.446571 
        1.65059        0.422071        0.380664        0.442856 
        1.65673        0.418636        0.377388        0.439601 
        1.66285        0.415598         0.37416         0.43627 
        1.66898        0.412217        0.370968        0.432495 
        1.67512        0.408026        0.367808        0.429045 
        1.68127        0.404559        0.364682        0.425972 
         1.6874        0.402476          0.3616        0.422971 
        1.69353         0.39829        0.358555         0.41959 
        1.69967        0.396229        0.355539        0.415758 
        1.70581        0.391821        0.352558        0.412468 
        1.71193        0.389085        0.349624        0.409637 
        1.71806        0.385492        0.346717        0.406432 
        1.72421        0.383534        0.343837        0.403803 
        1.73035        0.379836        0.340994        0.400598 
        1.73649        0.377583        0.338183        0.396648 
        1.74262        0.374277        0.335407        0.393705 
        1.74876        0.371225        0.332661        0.391408 
        1.75489        0.368819        0.329951        0.388619 
        1.76101        0.364897        0.327272        0.385271 
        1.76715        0.362528         0.32462        0.382719 
        1.77329        0.359371        0.321993        0.380216 
        1.77943        0.356826        0.319396        0.377241 
        1.78557        0.354689         0.31683        0.374033 
        1.79171        0.351768        0.314293        0.370939 
        1.79785        0.349062        0.311783        0.368411 
        1.80399         0.34627        0.309302        0.366237 
        1.81012        0.344021        0.306851        0.362671 
        1.81625        0.341093        0.304427        0.359736 
        1.82239        0.338903        0.302027        0.358151 
        1.82853        0.335541        0.299653         0.35582 
        1.83466        0.333754        0.297308        0.352881 
        1.84078        0.330934         0.29499        0.350132 
        1.84692        0.328518        0.292694        0.348059 
        1.85306        0.326548        0.290419        0.345232 
         1.8592        0.323592        0.288172        0.342206 
        1.86533        0.321764        0.285951        0.340217 
        1.87147         0.31918         0.28375        0.338057 
