# k  (h/Mpc)    P(k)  (Mpc/h)^3    P_linear(k)  (Mpc/h)^3     P_NL(k)  ShotnoiseSubtracted = false
     0.00783031         9048.77         9164.25         9156.11 
       0.013688         12326.2         12250.3         12185.6 
       0.019231         13226.3         13231.8         13121.4 
      0.0249154         12742.3           12996         12867.4 
      0.0312784         11803.9         11955.4         11807.8 
      0.0375637         10635.4         10693.8         10539.8 
      0.0433917         9411.22         9625.28         9455.73 
      0.0492413            8651          8770.4         8598.25 
      0.0555754         7809.84         8089.83          7917.4 
      0.0619321          7517.5         7582.61         7403.64 
       0.067871         6922.72         7172.39         6994.78 
      0.0738098         6498.55         6748.98         6525.34 
      0.0800417         5939.21         6251.53          6034.5 
      0.0862327         5479.25         5710.25          5544.1 
      0.0921407         5043.44         5187.09         5031.03 
      0.0982031          4542.6          4690.2         4593.28 
       0.104506         4239.01         4255.27         4208.31 
       0.110769         3909.81         3921.73         3854.01 
       0.116806         3655.23         3685.71         3618.72 
       0.122832         3496.85         3510.46         3458.04 
       0.129052         3278.34         3361.08         3311.94 
       0.135211         3138.19         3214.98         3165.86 
       0.141259         3022.61         3054.59         3029.93 
       0.147318         2868.69         2872.41          2871.9 
       0.153489         2647.84         2672.77         2648.97 
       0.159709         2505.05         2473.14         2488.38 
       0.165845         2401.56         2293.89         2368.06 
       0.171974         2251.66          2143.3         2226.61 
       0.178125         2138.94         2024.03         2150.23 
       0.184229         2056.56         1933.31         2053.25 
        0.19034         1939.37         1861.31         1983.95 
       0.196428         1914.57         1797.76         1904.31 
       0.202534         1856.11         1732.91         1849.58 
       0.208729         1778.83         1660.19         1764.44 
       0.214876         1700.27         1580.13         1718.75 
       0.220989         1651.55         1495.85         1655.62 
       0.227147         1569.41          1411.7         1585.93 
        0.23329         1508.43            1334         1535.86 
       0.239377         1483.78         1266.99         1477.79 
       0.245482         1391.15         1211.03         1413.45 
       0.251667         1382.86         1164.58         1383.98 
       0.257832         1333.85         1125.55         1343.27 
       0.263955         1293.48         1090.31         1306.85 
       0.270079         1254.12         1055.23         1271.98 
        0.27624         1243.21         1018.08         1233.61 
       0.282372         1190.27         978.692         1202.66 
        0.28843         1177.61         938.305         1167.92 
       0.294538         1121.84          897.85         1136.88 
       0.300721         1118.36         859.063          1104.9 
        0.30691         1070.81         823.913         1085.18 
       0.313033         1051.51         793.331            1052 
       0.319153         1030.45         766.757         1026.41 
       0.325316         998.112         743.032          1011.9 
        0.33145         975.238         721.262         978.152 
       0.337538         963.744         700.258         961.109 
       0.343633         938.189         679.057         950.479 
       0.349808         909.225         657.052         932.479 
       0.355968         904.525         634.763         915.555 
       0.362074         891.821         612.858         894.898 
       0.368217         867.189         591.615         870.156 
       0.374374          833.72         571.706         855.224 
       0.380519         831.294         553.454         837.786 
       0.386598         813.018         537.028         826.834 
       0.392688         810.194         521.942         808.205 
        0.39888         786.922         507.582         797.975 
       0.405048         775.629          493.87          789.22 
       0.411186         763.524         480.455         770.138 
       0.417313         749.331           467.1          756.04 
       0.423458         738.112         453.785         745.052 
       0.429607         724.997         440.623         729.688 
       0.435692         710.248         427.963           717.5 
       0.441815         706.803         415.793         713.271 
       0.447964         691.691         404.254         701.103 
       0.454126         678.457         393.392         684.672 
       0.460267         667.853         383.249         682.544 
       0.466387         660.703         373.678           669.6 
        0.47254         649.662         364.435         662.313 
       0.478662         647.759           355.5         651.566 
       0.484765         630.498         346.785         640.414 
       0.490885         625.125         338.187         631.565 
       0.497035         613.174         329.696          625.71 
       0.503198         606.493          321.41         616.918 
       0.509342         600.789         313.434         609.117 
       0.515458          596.56         305.813         605.581 
       0.521598         584.557         298.487         596.384 
       0.527764         571.975         291.463         588.995 
       0.533884         571.486         284.801         582.422 
           0.54         564.136         278.396         575.227 
       0.546137         561.835         272.165         568.535 
       0.552299         551.911         266.064         561.145 
       0.558452         548.984         260.119         556.211 
       0.564573         540.051         254.352         551.478 
       0.570708         533.495         248.719         546.759 
       0.576825         521.819         243.256         537.536 
       0.582926         521.576         237.972         531.991 
       0.589034         516.494         232.856         524.863 
       0.595184         511.513         227.891         519.712 
       0.601379         506.013         223.072         516.092 
       0.607522         498.678         218.452         510.303 
       0.613639         498.008         213.988          506.46 
       0.619772         484.707         209.631         504.774 
       0.625918         483.963         205.373         498.396 
       0.632068         477.443         201.222         492.568 
       0.638161         475.623         197.216         486.948 
         0.6443          466.37         193.289         484.141 
       0.650464         464.233         189.457         476.338 
       0.656582         463.137         185.759         472.395 
       0.662703         459.254         182.162         470.979 
       0.668861         451.047         178.644         466.882 
       0.675024         447.528         175.221          462.69 
       0.681124         445.332         171.928         455.891 
       0.687237         440.683         168.717         452.127 
       0.693381         435.168         165.576         448.633 
       0.699536         430.414          162.51         445.806 
       0.705665         428.377         159.536         441.873 
       0.711789         424.348         156.638         437.973 
       0.717957         420.713         153.791         435.444 
        0.72409         417.185         151.029         432.085 
       0.730186         412.896         148.351         428.629 
       0.736317         409.544         145.724         424.001 
       0.742472         408.076         143.152         420.226 
       0.748622         403.615         140.646         416.871 
        0.75476         399.391         138.207         416.323 
       0.760888         394.784         135.832         411.266 
       0.767043         395.109         133.505         408.473 
       0.773185         389.612         131.239         405.311 
       0.779291         384.519         129.039         401.658 
       0.785407         382.777         126.888         399.275 
       0.791564         378.839         124.772         396.619 
       0.797719           376.4         122.707         393.448 
       0.803834         373.449         120.701         391.127 
       0.809972         371.029         118.734         388.286 
       0.816124         371.278         116.806          383.78 
       0.822261          364.84         114.927         381.815 
       0.828378         363.169         113.096         378.989 
       0.834502         361.135         111.303         377.226 
       0.840667         356.044         109.538          374.41 
       0.846816         354.903         107.817         372.011 
       0.852925         351.679         106.144         369.174 
       0.859047         350.697         104.504         366.626 
       0.865192         347.398         102.894         364.326 
       0.871341         344.295         101.316         361.892 
       0.877463         341.962           99.78         359.661 
       0.883569         339.588         98.2798         357.562 
       0.889708         336.898         96.8031         354.474 
       0.895864         332.946         95.3535         352.476 
       0.902008         332.433         93.9369         349.998 
       0.908149         330.325         92.5504         346.895 
       0.914301         326.296           91.19         345.368 
       0.920448         323.579         89.8585          342.08 
       0.926574          321.28         88.5587         340.222 
       0.932687         321.345         87.2877         337.387 
       0.938823         317.118         86.0373         337.025 
       0.944975         316.248         84.8089         334.947 
       0.951105          313.58         83.6092         332.283 
       0.957225         310.852         82.4351         330.128 
       0.963368         307.178         81.2798         327.574 
       0.969511         305.625         80.1469         325.521 
       0.975621          303.26         79.0419         324.624 
       0.981748         303.463         77.9551         322.225 
       0.987916         300.082         76.8822         320.727 
        0.99406         296.421         75.8337         318.845 
        1.00019         296.469         74.8071         315.803 
        1.00632          294.06         73.8007         313.698 
        1.01246         291.403         72.8115         311.781 
        1.01859         291.257         71.8422          310.24 
        1.02471         287.787          70.892         308.989 
        1.03085         284.937          69.956         307.256 
        1.03698         284.168          69.039         305.718 
        1.04314         281.759         68.1347          303.45 
        1.04929         279.507         67.2489         301.203 
        1.05541         278.637         66.3827           299.5 
        1.06154          275.64         65.5297         297.844 
        1.06769          274.67         64.6906         296.257 
        1.07382         272.924         63.8691         294.198 
        1.07993           270.8         63.0638         292.875 
        1.08607         269.887         62.2693         291.219 
        1.09222           267.7         61.4879         289.309 
        1.09836         265.216         60.7209         288.487 
        1.10449         262.763          59.968         286.437 
        1.11063         260.911         59.2273         284.643 
        1.11677         260.353         58.4994         282.941 
         1.1229          258.44         57.7852         281.775 
        1.12903         256.517         57.0824         280.361 
        1.13518         254.921         56.3909         278.476 
        1.14131         253.161         55.7113         277.047 
        1.14745         252.519         55.0435         275.463 
        1.15359         250.017         54.3865         273.865 
        1.15973         249.327         53.7402         272.153 
        1.16584         246.458         53.1073         270.001 
        1.17197         246.078         52.4839         269.032 
        1.17811         243.855         51.8686         268.085 
        1.18424         242.304         51.2651         266.632 
        1.19038         241.346         50.6696         265.154 
        1.19652         239.544         50.0838         264.114 
        1.20267         238.504         49.5074         261.849 
        1.20881          236.59         48.9403          261.19 
        1.21495         234.783         48.3831         258.982 
        1.22108         233.935         47.8347         257.901 
         1.2272         232.031         47.2962         255.772 
        1.23334         230.501         46.7649         254.906 
        1.23949         229.069         46.2405         254.365 
        1.24562         227.908         45.7257         252.439 
        1.25174          225.12         45.2196         251.575 
        1.25789         223.996         44.7197         250.053 
        1.26402         223.089         44.2283         248.408 
        1.27014          221.46         43.7455         247.684 
        1.27628         220.239         43.2685         246.738 
        1.28244         219.602         42.7979         244.936 
        1.28858         217.556         42.3349         243.572 
        1.29471         215.497         41.8798         242.138 
        1.30084         214.422         41.4319         240.951 
        1.30697         213.016           40.99         239.962 
        1.31312          211.79         40.5539         238.238 
        1.31925         211.083         40.1256          236.84 
        1.32537         209.694          39.704         236.113 
        1.33151         207.888          39.287         234.945 
        1.33765         206.714         38.8763          233.47 
        1.34378         205.599         38.4723           232.3 
        1.34992         204.358         38.0739         230.977 
        1.35606         203.529         37.6802         229.547 
         1.3622         202.143         37.2929         228.547 
        1.36833         200.373         36.9121         227.565 
        1.37445         198.736         36.5367         225.938 
        1.38059         197.782         36.1655         225.297 
        1.38675         196.607         35.7987         224.106 
        1.39288         195.366         35.4384         222.323 
        1.39901         195.081         35.0832         221.797 
        1.40515         193.422         34.7322         220.928 
         1.4113          191.52         34.3862         219.483 
        1.41742             191         34.0462         218.422 
        1.42355           189.1         33.7103         217.815 
         1.4297          188.21         33.3779         216.457 
        1.43585         186.598         33.0501         215.302 
        1.44198         185.942         32.7281         214.185 
        1.44809         185.055          32.411         213.039 
        1.45423         183.274          32.097         211.954 
        1.46036         182.716         31.7877         210.923 
        1.46649         181.431         31.4824         210.238 
        1.47263         180.341          31.181         209.589 
        1.47877         179.279         30.8836         208.176 
        1.48491         177.793         30.5897         207.083 
        1.49104         177.182         30.3003         206.323 
        1.49718         175.181         30.0144         204.823 
        1.50333         174.553         29.7318         203.978 
        1.50947         173.658         29.4534          203.16 
         1.5156         172.415         29.1791         202.047 
        1.52172         171.351         28.9082         201.053 
        1.52787         170.178         28.6403         200.105 
          1.534         169.605         28.3761         199.012 
        1.54013         167.832         28.1156         198.183 
        1.54627         167.459         27.8579           197.4 
        1.55241         165.969         27.6034         196.337 
        1.55855         165.139         27.3524         195.189 
        1.56467         164.206         27.1053         194.246 
         1.5708         163.184         26.8606         193.725 
        1.57695         161.897         26.6185         192.788 
        1.58308         161.465         26.3801         191.542 
        1.58922         160.372         26.1443          190.73 
        1.59535         159.009         25.9116          189.84 
         1.6015         158.538         25.6815         188.825 
        1.60764          157.25         25.4542         187.909 
        1.61376         156.209         25.2304         187.225 
        1.61989         155.269          25.009         186.528 
        1.62604         154.513         24.7899         185.551 
        1.63218         153.534         24.5735         184.598 
        1.63831          152.49         24.3603         183.696 
        1.64444         151.723         24.1495         182.696 
        1.65059         150.902         23.9407          182.09 
        1.65673         149.765         23.7347         181.179 
        1.66285         149.202         23.5316           180.2 
        1.66898         148.237         23.3309         179.547 
        1.67512         147.402         23.1322         178.735 
        1.68127         146.203         22.9356         177.921 
         1.6874         144.765         22.7417         177.244 
        1.69353         144.473         22.5502          176.55 
        1.69967         143.615         22.3605         175.448 
        1.70581         142.723         22.1731         174.563 
        1.71193         141.744         21.9885         173.849 
        1.71806          141.01         21.8057         172.745 
        1.72421         140.294         21.6246         172.081 
        1.73035         139.194         21.4458         171.426 
        1.73649         138.677          21.269          170.56 
        1.74262         137.684         21.0944         169.973 
        1.74876          137.13         20.9217         169.147 
        1.75489         135.706         20.7512         168.209 
        1.76101         135.276         20.5828         167.435 
        1.76715         134.271          20.416         166.673 
        1.77329         133.777         20.2508         165.872 
        1.77943         132.696         20.0874         165.109 
        1.78557         131.953         19.9261          164.46 
        1.79171         131.191         19.7665         163.889 
        1.79785         130.366         19.6087         163.192 
        1.80399          129.63         19.4526         162.262 
        1.81012         128.879         19.2984         161.457 
        1.81625         128.059          19.146         160.871 
        1.82239         127.589         18.9951         160.276 
        1.82853         126.922         18.8458         159.479 
        1.83466         125.934         18.6983         158.615 
        1.84078         125.371         18.5525         157.894 
        1.84692         124.314         18.4081           157.4 
        1.85306         123.668          18.265         156.683 
         1.8592         122.648         18.1237         155.948 
        1.86533         122.103          17.984         155.456 
        1.87147         121.145         17.8456         154.588 
        1.87761         120.823         17.7086         153.746 
