# k  (h/Mpc)    Pcb(k)  (Mpc/h)^3    Pcb_linear(k) (Mpc/h)^3    Pcb_NL(k) (Mpc/h)^3   ShotnoiseSubtracted = false
     0.00783031          1284.2         1295.82          1295.1 
       0.013688         1732.03         1732.74         1726.98 
       0.019231         1871.53          1871.9         1862.72 
      0.0249154         1825.67         1838.72         1831.65 
      0.0312784         1687.23         1691.61         1687.23 
      0.0375637         1514.99         1513.16         1509.52 
      0.0433917         1356.58            1362         1359.14 
      0.0492413         1240.44         1241.06         1238.43 
      0.0555754         1136.92         1144.77         1141.79 
      0.0619321         1076.64         1073.01         1069.81 
       0.067871         1009.06         1014.97         1011.32 
      0.0738098         948.221          955.06         950.227 
      0.0800417         874.848         884.671         880.062 
      0.0862327         802.145         808.077         804.738 
      0.0921407         731.168         734.046         731.193 
      0.0982031         659.336         663.731         662.411 
       0.104506         604.139         602.184         602.109 
       0.110769         556.623         554.984         554.279 
       0.116806         519.772         521.586         520.773 
       0.122832         497.611         496.786         496.302 
       0.129052         472.893         475.647           475.1 
       0.135211         451.728         454.972          454.48 
       0.141259         431.553         432.274         432.255 
       0.147318         407.765         406.493         407.355 
       0.153489         377.911         378.242         378.333 
       0.159709         351.269         349.991         351.142 
       0.165845         329.783         324.624         327.525 
       0.171974         305.994         303.314         306.178 
       0.178125         289.853         286.435         290.495 
       0.184229         278.087         273.597         277.758 
        0.19034         264.216         263.408         267.477 
       0.196428         257.681         254.414         257.614 
       0.202534         250.543         245.237         248.696 
       0.208729         238.859         234.946         238.257 
       0.214876         225.949         223.617         228.177 
       0.220989         217.459         211.689         216.721 
       0.227147         203.108          199.78         204.898 
        0.23329         192.915         188.785          195.01 
       0.239377         184.909         179.302         186.129 
       0.245482          175.14         171.382         177.691 
       0.251667         170.809         164.808         171.728 
       0.257832         165.112         159.285         166.122 
       0.263955         159.811         154.298         160.883 
       0.270079         154.986         149.334         155.718 
        0.27624         151.222         144.076         150.185 
       0.282372         145.372         138.503         144.948 
        0.28843         139.151         132.787         139.363 
       0.294538         133.562         127.062         134.074 
       0.300721         129.716         121.573         129.146 
        0.30691         123.786         116.599         124.349 
       0.313033         119.785         112.271         119.892 
       0.319153         114.428          108.51         116.569 
       0.325316         112.778         105.152         113.498 
        0.33145         109.074         102.072         109.979 
       0.337538          106.58         99.0991          106.82 
       0.343633         103.237         96.0987         103.939 
       0.349808         100.344         92.9851         101.028 
       0.355968         97.4308         89.8305         98.4809 
       0.362074         94.3227         86.7305         95.2141 
       0.368217         91.5606         83.7245         91.7682 
       0.374374         88.6146         80.9067          89.416 
       0.380519         86.3472          78.324         86.7046 
       0.386598         84.0538         75.9992         84.5142 
       0.392688         82.3531         73.8643         82.4939 
        0.39888         80.0917         71.8321         80.2404 
       0.405048         78.3577         69.8915         78.2307 
       0.411186         76.6855         67.9932         76.8083 
       0.417313         74.1766         66.1032         74.5105 
       0.423458         72.4448         64.2186          72.785 
       0.429607         70.4586         62.3563         70.8105 
       0.435692         68.3553         60.5646         69.2289 
       0.441815         67.2351         58.8422         67.8982 
       0.447964         66.1255         57.2092         66.0393 
       0.454126         63.6094         55.6725         64.3825 
       0.460267         62.4526         54.2366         63.1675 
       0.466387         60.7653         52.8823         61.6123 
        0.47254         59.9262         51.5743         60.4173 
       0.478662         58.8514         50.3098         59.0606 
       0.484765         57.3196         49.0764          57.746 
       0.490885         56.0302         47.8598          56.862 
       0.497035         55.2635         46.6581         55.7427 
       0.503198         53.9025         45.4854         54.2504 
       0.509342         52.5594         44.3568         53.2906 
       0.515458         51.5116         43.2781         52.5184 
       0.521598          50.689         42.2413         51.0498 
       0.527764         49.6597         41.2473         49.8888 
       0.533884         48.7995         40.3046         48.9991 
           0.54         47.8773         39.3982         48.0663 
       0.546137         47.1021         38.5163         47.3546 
       0.552299         46.3721         37.6529         46.2332 
       0.558452         44.9646         36.8117         45.3533 
       0.564573         44.3773         35.9955         44.7941 
       0.570708         43.7211         35.1983          43.945 
       0.576825         42.6187         34.4252         43.1395 
       0.582926         41.9209         33.6773         42.4415 
       0.589034         40.8019         32.9535         41.7955 
       0.595184         40.2937         32.2508         40.8507 
       0.601379         39.6442         31.5688         40.3598 
       0.607522         38.9331          30.915         39.5366 
       0.613639         38.5963         30.2832         38.8773 
       0.619772         37.6094         29.6666         38.3155 
       0.625918         37.4217         29.0641         37.7425 
       0.632068         36.8069         28.4766         37.0112 
       0.638161         36.0556         27.9097         36.4214 
         0.6443         35.3641          27.354         35.7761 
       0.650464         34.7611         26.8116         35.3519 
       0.656582         34.5438         26.2883         34.8035 
       0.662703         33.9161         25.7793         34.1981 
       0.668861         33.3219         25.2814          33.788 
       0.675024         32.7559         24.7971          33.149 
       0.681124         32.2136          24.331         32.6682 
       0.687237         31.7107         23.8765         32.1018 
       0.693381         31.4211          23.432         31.6488 
       0.699536         30.6393         22.9982         31.2403 
       0.705665         30.4934         22.5773         30.9139 
       0.711789         29.8996         22.1672         30.3508 
       0.717957          29.514         21.7643         29.9232 
        0.72409         29.0698         21.3734         29.5726 
       0.730186         28.7035         20.9945         29.0986 
       0.736317         28.4054         20.6227         28.6918 
       0.742472         27.9361         20.2587         28.4619 
       0.748622         27.6221          19.904         27.9691 
        0.75476            27.1         19.5589         27.5708 
       0.760888         26.8143         19.2227          27.254 
       0.767043         26.4927         18.8934         26.9637 
       0.773185         26.0044         18.5727         26.6041 
       0.779291         25.8565         18.2614         26.2977 
       0.785407         25.5124         17.9569          25.923 
       0.791564          25.061         17.6576         25.6098 
       0.797719         24.6396         17.3653         25.2366 
       0.803834         24.5445         17.0815         24.8989 
       0.809972         24.3283          16.803          24.718 
       0.816124          23.749         16.5303          24.326 
       0.822261          23.597         16.2644         24.0073 
       0.828378         23.3161         16.0052          23.737 
       0.834502          23.072         15.7515         23.5333 
       0.840667         22.7768         15.5017         23.1872 
       0.846816         22.3982         15.2581         22.9636 
       0.852925         22.2041         15.0214         22.8152 
       0.859047         21.9532         14.7893         22.4413 
       0.865192         21.7632         14.5613         22.1882 
       0.871341         21.5795         14.3382         21.9954 
       0.877463         21.2147         14.1207          21.705 
       0.883569         20.9221         13.9084         21.5151 
       0.889708         20.6263         13.6994         21.2427 
       0.895864         20.5227         13.4943         20.9872 
       0.902008         20.3395         13.2938         20.8009 
       0.908149         20.1145         13.0976         20.5851 
       0.914301         19.9323         12.9051         20.4287 
       0.920448         19.5622         12.7166         20.1139 
       0.926574         19.4083         12.5327         19.9192 
       0.932687         19.2298         12.3528         19.6405 
       0.938823         18.9778         12.1759         19.5066 
       0.944975         18.7493          12.002         19.2877 
       0.951105         18.6195         11.8323         19.0363 
       0.957225         18.4585         11.6661         18.9625 
       0.963368         18.2463         11.5026         18.7104 
       0.969511         18.1013         11.3423         18.5622 
       0.975621         17.9256         11.1859         18.3257 
       0.981748         17.7203         11.0321          18.184 
       0.987916         17.5775         10.8803         18.0005 
        0.99406         17.3423         10.7319         17.8306 
        1.00019          17.087         10.5866         17.6908 
        1.00632         17.0898         10.4442         17.5192 
        1.01246         16.8941         10.3042         17.4104 
        1.01859         16.6489          10.167         17.1894 
        1.02471         16.5614         10.0325         16.9879 
        1.03085         16.4128         9.90007         16.8604 
        1.03698          16.164          9.7703          16.723 
        1.04314         16.0742         9.64233          16.541 
        1.04929          15.863         9.51697         16.4163 
        1.05541          15.713         9.39438         16.2886 
        1.06154         15.5832         9.27367         16.1225 
        1.06769          15.521         9.15492         15.9944 
        1.07382         15.2972         9.03866         15.8636 
        1.07993         15.2009          8.9247         15.7233 
        1.08607         15.0588         8.81227         15.5572 
        1.09222         14.9262         8.70168         15.4305 
        1.09836         14.7625         8.59313         15.2792 
        1.10449           14.66         8.48659         15.1545 
        1.11063          14.534         8.38176         15.0471 
        1.11677         14.4383         8.27876         14.9082 
         1.1229           14.33         8.17768         14.8021 
        1.12903         14.1846         8.07823         14.7231 
        1.13518         14.0208         7.98036         14.5863 
        1.14131         13.9103         7.88419         14.4406 
        1.14745         13.7909         7.78967         14.2877 
        1.15359          13.703          7.6967         14.2006 
        1.15973          13.598         7.60523          14.092 
        1.16584          13.406         7.51567         14.0269 
        1.17197         13.3326         7.42744         13.8925 
        1.17811         13.2567         7.34037         13.7605 
        1.18424         13.1482         7.25497         13.6688 
        1.19038         13.0776         7.17069         13.5553 
        1.19652         12.9463         7.08779         13.4623 
        1.20267         12.7923         7.00622         13.3287 
        1.20881         12.7761         6.92597         13.2819 
        1.21495         12.6674         6.84711         13.1646 
        1.22108         12.5187         6.76951         13.0688 
         1.2272          12.449          6.6933         12.9383 
        1.23334         12.3029          6.6181         12.8674 
        1.23949         12.2245         6.54389         12.7827 
        1.24562         12.1734         6.47104         12.6683 
        1.25174         12.0625         6.39941         12.5837 
        1.25789         11.9841         6.32866         12.4889 
        1.26402         11.9158         6.25912         12.3742 
        1.27014         11.8144          6.1908         12.3057 
        1.27628         11.6871          6.1233         12.2332 
        1.28244         11.5861         6.05669         12.1607 
        1.28858         11.5669         5.99117         12.0528 
        1.29471         11.4475         5.92677         11.9705 
        1.30084           11.34         5.86339         11.9145 
        1.30697         11.3368         5.80085         11.8108 
        1.31312         11.1472         5.73914          11.741 
        1.31925          11.101         5.67853          11.679 
        1.32537         11.0269         5.61886         11.5994 
        1.33151         10.9778         5.55984         11.5098 
        1.33765          10.865         5.50172         11.4148 
        1.34378         10.7795         5.44455          11.363 
        1.34992         10.7148         5.38816         11.2823 
        1.35606         10.6473         5.33246         11.1795 
         1.3622         10.5861         5.27765         11.1168 
        1.36833         10.5068         5.22374         11.0847 
        1.37445         10.4434         5.17063         10.9921 
        1.38059         10.4012          5.1181         10.9093 
        1.38675         10.3008         5.06618         10.8523 
        1.39288         10.2329         5.01519         10.7788 
        1.39901         10.1306         4.96493         10.7207 
        1.40515         10.1013         4.91526         10.6521 
         1.4113         10.0402         4.86629         10.5795 
        1.41742         9.96569         4.81818         10.5156 
        1.42355         9.88236         4.77063         10.4415 
         1.4297         9.80448         4.72359          10.393 
        1.43585         9.77736         4.67721         10.3398 
        1.44198         9.74278         4.63164         10.2497 
        1.44809         9.63937         4.58676         10.2139 
        1.45423         9.56899         4.54232         10.1428 
        1.46036         9.51967         4.49855         10.0783 
        1.46649         9.44766         4.45535         10.0271 
        1.47263         9.37545         4.41269         9.97333 
        1.47877         9.32542         4.37061         9.90963 
        1.48491         9.26772         4.32901          9.8459 
        1.49104         9.21915         4.28805         9.78865 
        1.49718         9.16551          4.2476         9.73516 
        1.50333         9.10652          4.2076         9.68649 
        1.50947         9.04332         4.16821         9.63338 
         1.5156         8.99555         4.12938         9.57606 
        1.52172         8.94348         4.09105         9.51733 
        1.52787         8.88703         4.05314         9.45122 
          1.534          8.8266         4.01575         9.39787 
        1.54013         8.79099         3.97888         9.34971 
        1.54627         8.71015         3.94241         9.30453 
        1.55241         8.66892         3.90639          9.2556 
        1.55855         8.63053         3.87088         9.19211 
        1.56467         8.56337         3.83591         9.15524 
         1.5708         8.53161         3.80127         9.11592 
        1.57695         8.45294         3.76702         9.05666 
        1.58308         8.40813         3.73327         9.01055 
        1.58922         8.37935         3.69991         8.96808 
        1.59535         8.33931         3.66698         8.91053 
         1.6015         8.27386         3.63441         8.85597 
        1.60764         8.22188         3.60225          8.8189 
        1.61376         8.18352         3.57057         8.78438 
        1.61989         8.14233         3.53925         8.73722 
        1.62604         8.08309         3.50823          8.6849 
        1.63218         8.06132         3.47762         8.64208 
        1.63831         8.01786         3.44744         8.60174 
        1.64444         7.97217         3.41761         8.54793 
        1.65059         7.88618         3.38806         8.50469 
        1.65673          7.8694          3.3589         8.46412 
        1.66285         7.79791         3.33017         8.42379 
        1.66898         7.77567         3.30176         8.38511 
        1.67512         7.73715         3.27364          8.3452 
        1.68127         7.69413         3.24581         8.30279 
         1.6874         7.65706         3.21838         8.25875 
        1.69353         7.60766         3.19128         8.21423 
        1.69967         7.56518         3.16443         8.17071 
        1.70581         7.51939         3.13791         8.13838 
        1.71193         7.49106         3.11179         8.10957 
        1.71806         7.45994         3.08591         8.06615 
        1.72421         7.40129         3.06028         8.02391 
        1.73035         7.38063         3.03498         7.98119 
        1.73649         7.34034         3.00996         7.93759 
        1.74262         7.27794         2.98526          7.9029 
        1.74876         7.26617         2.96081         7.87264 
        1.75489         7.23856         2.93669         7.83353 
        1.76101         7.17438         2.91285         7.78533 
        1.76715         7.14691         2.88924         7.74813 
        1.77329         7.11504         2.86587         7.71928 
        1.77943         7.05498         2.84275         7.68713 
        1.78557         7.04674         2.81991         7.64757 
        1.79171         6.99174         2.79733         7.60825 
        1.79785         6.96301         2.77499         7.57169 
        1.80399         6.91812         2.75291         7.53896 
        1.81012         6.89689         2.73109         7.51618 
        1.81625         6.84863         2.70952         7.48576 
        1.82239         6.82495         2.68816         7.44641 
        1.82853         6.79178         2.66703         7.41752 
        1.83466         6.76403         2.64616         7.39219 
        1.84078         6.72681         2.62553         7.35669 
        1.84692          6.7065         2.60509         7.30545 
        1.85306         6.65223         2.58484         7.27182 
         1.8592         6.61535         2.56485         7.25292 
        1.86533         6.59247         2.54507         7.22176 
        1.87147         6.56465         2.52549         7.18706 
