# k  (h/Mpc)    Pcb(k)  (Mpc/h)^3    Pcb_linear(k) (Mpc/h)^3    Pcb_NL(k) (Mpc/h)^3   ShotnoiseSubtracted = false
     0.00783031         3143.53         3175.64         3174.12 
       0.013688         4254.64         4245.84         4229.93 
       0.019231         4587.23         4586.53         4560.32 
      0.0249154          4457.1         4505.06         4481.42 
      0.0312784         4123.76         4144.52         4124.29 
      0.0375637         3707.49         3707.25         3687.62 
      0.0433917         3307.47         3336.88         3317.38 
      0.0492413         3030.03         3040.56         3021.31 
      0.0555754         2764.47         2804.64         2784.67 
      0.0619321         2633.46         2628.82         2607.84 
       0.067871         2454.22         2486.61         2464.87 
      0.0738098         2305.27         2339.83         2312.01 
      0.0800417         2120.74         2167.38         2140.45 
      0.0862327          1948.6         1979.72         1959.59 
      0.0921407         1781.16         1798.35         1779.82 
      0.0982031         1604.42         1626.08         1615.77 
       0.104506         1479.42          1475.3         1471.73 
       0.110769         1363.28         1359.66         1352.67 
       0.116806         1271.46         1277.84         1270.86 
       0.122832         1218.68         1217.08         1212.19 
       0.129052         1152.66         1165.29         1160.47 
       0.135211         1101.72         1114.64         1110.21 
       0.141259         1055.67         1059.03         1057.43 
       0.147318         999.024         995.868         998.725 
       0.153489         924.207         926.654         925.199 
       0.159709         864.151         857.442          861.73 
       0.165845         816.744         795.295         808.918 
       0.171974         759.105         743.087         756.925 
       0.178125          720.19         701.735         722.189 
       0.184229         692.237         670.284         690.885 
        0.19034          653.27         645.322           665.7 
       0.196428         641.454         623.287         639.523 
       0.202534         624.596         600.805         618.591 
       0.208729          595.63         575.592         592.091 
       0.214876         563.487         547.837          570.87 
       0.220989         545.597         518.615         544.347 
       0.227147         510.717          489.44         516.057 
        0.23329         487.568         462.503         494.733 
       0.239377         471.788         439.271          474.12 
       0.245482         443.387         419.867         452.221 
       0.251667         436.151         403.763         439.308 
       0.257832         422.381         390.232         425.392 
       0.263955         408.807         378.014         412.262 
       0.270079         396.614         365.852         399.439 
        0.27624         389.723         352.971         385.462 
       0.282372         374.258         339.316         373.084 
        0.28843         360.559         325.314         359.478 
       0.294538          345.73         311.288         347.851 
       0.300721         339.964          297.84          337.11 
        0.30691         324.339         285.654         326.352 
       0.313033         315.743         275.052         314.997 
       0.319153         302.895         265.837         307.414 
       0.325316         296.811         257.612         300.748 
        0.33145         287.703         250.064         290.908 
       0.337538         283.424         242.782         283.104 
       0.343633         274.701         235.431         277.268 
       0.349808         266.901         227.803         270.553 
       0.355968         261.372         220.075         264.556 
       0.362074          254.07          212.48         256.809 
       0.368217         247.457         205.116         248.025 
       0.374374         240.113         198.212         242.631 
       0.380519         234.832         191.885         236.116 
       0.386598         229.056          186.19         230.805 
       0.392688         225.663         180.959         226.306 
        0.39888         219.937         175.981         220.338 
       0.405048         215.558         171.226         216.602 
       0.411186         211.045         166.576         212.345 
       0.417313         205.983         161.946         206.049 
       0.423458         201.811         157.329         201.964 
       0.429607          196.79         152.766         197.523 
       0.435692         190.928         148.376         193.628 
       0.441815         189.506         144.157         191.103 
       0.447964         186.518         140.156          186.43 
       0.454126         178.783         136.391         181.858 
       0.460267         176.622         132.874         179.578 
       0.466387         173.646         129.556         175.695 
        0.47254         170.862         126.351         172.814 
       0.478662         168.579         123.253         169.446 
       0.484765         164.488         120.232         165.531 
       0.490885         161.649         117.251         163.473 
       0.497035         159.519         114.307         161.146 
       0.503198         155.451         111.434         157.863 
       0.509342         152.549         108.669         155.514 
       0.515458         150.442         106.026         154.002 
       0.521598         148.714         103.487         150.205 
       0.527764         146.275         101.051         146.867 
       0.533884         143.703         98.7416         144.933 
           0.54         141.527         96.5211         142.898 
       0.546137         140.166         94.3607         141.318 
       0.552299         138.199         92.2454         138.373 
       0.558452         134.872         90.1845         136.034 
       0.564573         132.483         88.1849         134.677 
       0.570708         131.258         86.2319         132.547 
       0.576825         128.946         84.3379         130.407 
       0.582926         126.926         82.5057         128.469 
       0.589034         124.264         80.7323         127.123 
       0.595184         123.069         79.0107         125.182 
       0.601379         121.927           77.34         123.891 
       0.607522         118.902         75.7382         121.326 
       0.613639         118.849         74.1904         120.088 
       0.619772         115.962         72.6799         118.143 
       0.625918         115.206         71.2037         117.324 
       0.632068         113.745         69.7644         115.165 
       0.638161         112.233         68.3757         114.168 
         0.6443         110.726         67.0142         112.256 
       0.650464         109.213         65.6854         110.479 
       0.656582         108.185         64.4033         109.725 
       0.662703         106.099         63.1563         107.871 
       0.668861         105.182         61.9367         106.863 
       0.675024         103.817           60.75         105.374 
       0.681124         102.455         59.6082         104.087 
       0.687237         100.817         58.4948         102.729 
       0.693381         99.8988         57.4058         101.472 
       0.699536         98.4197          56.343         100.884 
       0.705665         98.8711         55.3119          99.859 
       0.711789         96.2849         54.3072          97.899 
       0.717957         95.7304           53.32         97.3107 
        0.72409         94.3322         52.3625           96.69 
       0.730186         92.8889         51.4341         95.3352 
       0.736317         92.6583         50.5233          94.065 
       0.742472         91.2757         49.6315         93.1813 
       0.748622         90.6771         48.7626         92.0254 
        0.75476         89.5692         47.9171         91.1482 
       0.760888         88.4392         47.0936         90.1439 
       0.767043          87.527         46.2867          89.603 
       0.773185         86.5229          45.501         88.7863 
       0.779291         85.9906         44.7384         87.8778 
       0.785407         85.2533         43.9925         86.7291 
       0.791564         83.9276         43.2591         85.8402 
       0.797719         82.8571         42.5429         85.1985 
       0.803834         82.6247         41.8477         84.1986 
       0.809972         81.2664         41.1656         83.5177 
       0.816124         80.3307         40.4973         82.8375 
       0.822261         80.0015         39.8459         81.7673 
       0.828378          79.202         39.2109         80.7814 
       0.834502         78.3357         38.5893         80.6662 
       0.840667         77.7623         37.9774         79.7621 
       0.846816         76.8283         37.3807         79.0342 
       0.852925         76.1223         36.8007         78.5561 
       0.859047         75.1258          36.232         77.4842 
       0.865192         74.9109         35.6737         76.9602 
       0.871341         74.4211         35.1269          76.297 
       0.877463         73.0609         34.5942         75.6907 
       0.883569         72.6577          34.074         75.2185 
       0.889708         72.2765         33.5621         74.3798 
       0.895864         71.5462         33.0595         73.8039 
       0.902008         71.0223         32.5684         73.2203 
       0.908149         70.4423         32.0876         72.6624 
       0.914301         69.9167          31.616         72.2481 
       0.920448           68.98         31.1544          71.479 
       0.926574         68.6862         30.7037         70.6904 
       0.932687         68.0367          30.263         70.3901 
       0.938823         67.1361         29.8295         69.6829 
       0.944975         66.9895         29.4036         69.0375 
       0.951105         66.3403         28.9877         68.7661 
       0.957225         65.5858         28.5806         68.1903 
       0.963368         65.2692         28.1801         67.5137 
       0.969511         64.8701         27.7873         67.0566 
       0.975621         64.3419         27.4042         66.7944 
       0.981748         63.6093         27.0274         66.1929 
       0.987916         63.3166         26.6554         65.6832 
        0.99406         62.9384         26.2919         65.2872 
        1.00019         62.0342          25.936         64.7972 
        1.00632          61.906          25.587         64.3818 
        1.01246         61.2955         25.2441         63.8701 
        1.01859         60.6868          24.908         63.3914 
        1.02471         60.7481         24.5786         63.0187 
        1.03085         60.0612          24.254         62.5461 
        1.03698         59.3603         23.9361          62.062 
        1.04314         58.8367         23.6226         61.5234 
        1.04929         58.6745         23.3155         61.3025 
        1.05541         58.0625         23.0152         61.0514 
        1.06154         57.8612         22.7194         60.3813 
        1.06769          57.356         22.4285          60.028 
        1.07382         56.9898         22.1437         59.7254 
        1.07993         56.7975         21.8645         59.1749 
        1.08607         56.1618         21.5891         58.7935 
        1.09222         55.9575         21.3181          58.523 
        1.09836         55.3779         21.0522         58.1417 
        1.10449         55.1387         20.7912         57.6363 
        1.11063         54.3839         20.5344         57.3663 
        1.11677         54.2378          20.282         57.0026 
         1.1229         54.0683         20.0344         56.6163 
        1.12903          53.338         19.7907         56.2823 
        1.13518         53.1536          19.551         55.8209 
        1.14131          53.051         19.3154         55.5972 
        1.14745         52.4751         19.0838         55.2517 
        1.15359         52.2153         18.8561         55.0484 
        1.15973          51.659          18.632         54.6517 
        1.16584         51.3038         18.4125         54.2968 
        1.17197         51.2936         18.1964         53.9037 
        1.17811         50.7311         17.9831         53.4624 
        1.18424         50.2967         17.7738         53.2264 
        1.19038         50.2696         17.5674         53.1039 
        1.19652         49.9122         17.3643         52.6056 
        1.20267         49.5506         17.1645         52.4516 
        1.20881          49.219         16.9678          52.109 
        1.21495         48.8567         16.7746         51.9147 
        1.22108         48.5307         16.5845         51.4719 
         1.2272         48.0415         16.3978         51.2737 
        1.23334         47.9014         16.2136         51.0048 
        1.23949         47.6305         16.0318         50.5969 
        1.24562          47.445         15.8533         50.3589 
        1.25174         47.1592         15.6778         50.1346 
        1.25789         46.9104         15.5045         49.7895 
        1.26402         46.6352         15.3341         49.5231 
        1.27014         46.1895         15.1668         49.2759 
        1.27628         45.9465         15.0014          48.962 
        1.28244         45.6968         14.8382         48.8635 
        1.28858          45.495         14.6777         48.4987 
        1.29471          45.205         14.5199         48.2571 
        1.30084         44.9222         14.3646         47.9832 
        1.30697         44.5853         14.2114         47.6622 
        1.31312         44.2418         14.0602         47.4886 
        1.31925         44.1107         13.9117         47.2507 
        1.32537         43.9233         13.7656         47.0382 
        1.33151         43.5895          13.621         46.7898 
        1.33765          43.489         13.4786         46.5746 
        1.34378         43.3059         13.3385          46.317 
        1.34992         42.6192         13.2004         46.0891 
        1.35606         42.5766         13.0639         45.9206 
         1.3622         42.3277         12.9296         45.7031 
        1.36833         42.1074         12.7976         45.4669 
        1.37445         42.0332         12.6675         45.1633 
        1.38059         41.8356         12.5388         44.9743 
        1.38675         41.4494         12.4116         44.8018 
        1.39288         41.2855         12.2866         44.5923 
        1.39901          40.937         12.1635         44.3856 
        1.40515         40.7447         12.0418         44.1295 
         1.4113         40.6349         11.9218         43.9317 
        1.41742         40.1813          11.804          43.787 
        1.42355         40.1858         11.6875         43.4124 
         1.4297         39.8674         11.5723          43.232 
        1.43585          39.784         11.4586         43.1318 
        1.44198         39.4046          11.347         42.8934 
        1.44809         39.2932          11.237         42.6816 
        1.45423         39.1163         11.1282         42.4378 
        1.46036         38.9455         11.0209         42.2345 
        1.46649         38.6916         10.9151         42.0649 
        1.47263         38.4654         10.8106         41.9243 
        1.47877         38.2734         10.7075         41.7985 
        1.48491         38.0686         10.6056         41.4645 
        1.49104         37.9682         10.5052         41.3398 
        1.49718         37.6213         10.4061         41.1465 
        1.50333         37.4822         10.3081         41.0085 
        1.50947         37.3102         10.2116         40.8794 
         1.5156         37.0753         10.1165         40.6612 
        1.52172         36.7784         10.0226         40.4057 
        1.52787         36.7926         9.92973         40.2273 
          1.534          36.522         9.83814         40.0912 
        1.54013         36.2603          9.7478         39.8607 
        1.54627          36.203         9.65845         39.6664 
        1.55241         35.9479         9.57021          39.563 
        1.55855         35.7986         9.48321         39.4245 
        1.56467         35.6314         9.39754         39.2205 
         1.5708         35.4564         9.31269         39.0709 
        1.57695          35.134         9.22877         38.8797 
        1.58308         35.1958         9.14609         38.6754 
        1.58922         34.9368         9.06437         38.6028 
        1.59535          34.674         8.98368          38.477 
         1.6015          34.556         8.90388         38.2443 
        1.60764         34.4675         8.82509         38.0463 
        1.61376         34.2753         8.74748         37.9176 
        1.61989         33.9517         8.67075         37.7369 
        1.62604         33.9051         8.59477         37.6833 
        1.63218         33.6461         8.51976         37.5712 
        1.63831         33.5794         8.44583         37.3227 
        1.64444         33.3814         8.37275         37.1608 
        1.65059         33.1881         8.30037         37.0316 
        1.65673         33.0965         8.22893         36.8958 
        1.66285         32.9164         8.15853         36.7581 
        1.66898         32.7256         8.08894         36.6188 
        1.67512         32.6158         8.02004         36.4472 
        1.68127         32.3507         7.95188          36.288 
         1.6874         32.2697         7.88466          36.131 
        1.69353         32.2055         7.81828          35.952 
        1.69967         31.9199          7.7525          35.824 
        1.70581         31.7447         7.68752         35.7418 
        1.71193         31.5619         7.62353         35.6256 
        1.71806         31.5334         7.56014         35.4139 
        1.72421          31.365         7.49735         35.2789 
        1.73035         31.2608         7.43535         35.1631 
        1.73649         31.0106         7.37407          35.008 
        1.74262         30.9155         7.31353         34.8637 
        1.74876         30.7541         7.25364         34.7388 
        1.75489         30.5858         7.19455         34.6145 
        1.76101         30.4851         7.13614          34.478 
        1.76715         30.3688         7.07831         34.3325 
        1.77329         30.2546         7.02105          34.184 
        1.77943          30.088          6.9644         34.0764 
        1.78557         29.9114         6.90847         34.0093 
        1.79171         29.8059         6.85314         33.8638 
        1.79785         29.6687         6.79842         33.7109 
        1.80399         29.5518         6.74431         33.6352 
        1.81012         29.4149         6.69086         33.4572 
        1.81625         29.2732         6.63802         33.2927 
        1.82239         29.1585         6.58568         33.2159 
        1.82853         28.9304         6.53393         33.1068 
        1.83466         28.8388         6.48278         32.9831 
        1.84078         28.6363         6.43225         32.8767 
        1.84692          28.607         6.38217         32.7849 
        1.85306           28.39         6.33257         32.6328 
         1.8592         28.3421         6.28358         32.4701 
        1.86533          28.169         6.23514         32.3787 
        1.87147         28.0647         6.18715          32.285 
