# k  (h/Mpc)    P(k)  (Mpc/h)^3    P_linear(k)  (Mpc/h)^3     P_NL(k)  ShotnoiseSubtracted = false
     0.00783031         5488.86         5551.18         5547.84 
       0.013688         7451.78         7421.41         7389.21 
       0.019231         8017.13         8016.54         7962.38 
      0.0249154         7760.04         7873.94         7817.94 
      0.0312784         7184.82         7243.64         7186.48 
      0.0375637         6466.28         6479.32         6421.02 
      0.0433917          5747.6         5831.97         5769.87 
      0.0492413            5274         5314.03         5251.58 
      0.0555754          4789.3          4901.7         4838.33 
      0.0619321         4585.28         4594.39         4528.21 
       0.067871         4250.03         4345.85         4279.19 
      0.0738098         3990.64         4089.31         4004.95 
      0.0800417         3660.44         3787.91         3705.97 
      0.0862327         3369.69         3459.94         3397.74 
      0.0921407         3089.34         3142.96          3084.6 
      0.0982031         2781.66         2841.88         2807.11 
       0.104506         2579.51         2578.35         2563.07 
       0.110769         2377.63         2376.25          2351.7 
       0.116806          2218.4         2233.25            2209 
       0.122832         2125.65         2127.06         2108.76 
       0.129052         2001.91         2036.55         2018.96 
       0.135211         1914.89         1948.03         1931.17 
       0.141259         1839.24         1850.84         1842.92 
       0.147318         1742.56         1740.46         1743.87 
       0.153489         1610.04         1619.49         1611.73 
       0.159709         1514.18         1498.53          1506.9 
       0.165845         1440.06         1389.92         1423.59 
       0.171974         1343.36         1298.68         1334.42 
       0.178125         1275.33          1226.4         1280.45 
       0.184229         1226.95         1171.44         1224.44 
        0.19034         1154.33         1127.81         1180.98 
       0.196428         1138.18          1089.3         1133.03 
       0.202534         1107.22         1050.01         1098.04 
       0.208729         1057.54         1005.95         1049.44 
       0.214876         1003.49          957.44         1017.62 
       0.220989         974.538         906.371         974.672 
       0.227147         917.526         855.381         927.704 
        0.23329         879.176         808.305         894.499 
       0.239377         857.851         767.702         859.392 
       0.245482          803.29         733.792         820.035 
       0.251667         794.808         705.647         800.102 
       0.257832         768.887         681.999         775.486 
       0.263955         745.195         660.644         752.599 
       0.270079         722.715         639.388         730.619 
        0.27624         714.119         616.877         706.419 
       0.282372         684.512         593.013         685.371 
        0.28843         666.505         568.542         662.018 
       0.294538         636.683         544.029         643.403 
       0.300721         632.031         520.527         625.426 
        0.30691         603.221         499.229         609.398 
       0.313033         590.578         480.699         589.145 
       0.319153          571.62         464.597         575.438 
       0.325316         556.325         450.221         565.228 
        0.33145         541.186          437.03         546.187 
       0.337538         535.207         424.304          533.55 
       0.343633         518.782         411.457         525.801 
       0.349808         503.507         398.124         514.575 
       0.355968         497.829         384.619         503.866 
       0.362074         486.868         371.346         490.865 
       0.368217         474.285         358.474         475.586 
       0.374374         457.669         346.411         466.197 
       0.380519         451.516         335.352         455.278 
       0.386598         441.532         325.399         447.143 
       0.392688         437.921         316.257         438.142 
        0.39888         426.138         307.556         429.235 
       0.405048         418.181         299.248         424.307 
       0.411186         409.673         291.119          413.87 
       0.417313          402.76         283.028         403.287 
       0.423458         395.633         274.959         396.445 
       0.429607         386.769         266.985         388.579 
       0.435692         377.453         259.313         381.474 
       0.441815         375.145         251.939          377.95 
       0.447964         368.366         244.947         370.203 
       0.454126         354.934         238.366         361.414 
       0.460267         351.368          232.22           358.6 
       0.466387         347.316         226.421          351.61 
        0.47254         340.388         220.821         346.625 
       0.478662         338.354         215.406          340.26 
       0.484765         329.704         210.126         332.778 
       0.490885         325.364         204.916          328.99 
       0.497035         320.562         199.771         325.268 
       0.503198         313.326         194.751         319.968 
       0.509342         310.467         189.918         316.046 
       0.515458         306.735           185.3         313.578 
       0.521598         302.561          180.86         307.093 
       0.527764         297.342         176.605         301.804 
       0.533884          293.69         172.568         298.451 
           0.54         289.961         168.687         294.662 
       0.546137         288.476         164.912         291.584 
       0.552299          283.32         161.215         286.629 
       0.558452         279.395         157.613         282.968 
       0.564573         274.742         154.118          280.56 
       0.570708         270.691         150.705         277.019 
       0.576825         267.418         147.395         272.062 
       0.582926         264.456         144.193         268.846 
       0.589034         260.528         141.093         266.275 
       0.595184         258.296         138.085           262.1 
       0.601379         256.163         135.165         261.041 
       0.607522         250.845         132.365         257.149 
       0.613639         250.098         129.661         254.479 
       0.619772         244.332          127.02         251.262 
       0.625918         242.603         124.441         249.416 
       0.632068          239.82         121.925         245.271 
       0.638161           238.5         119.498         243.999 
         0.6443         234.671         117.119          241.01 
       0.650464         232.483         114.796         236.996 
       0.656582          230.87         112.556         235.369 
       0.662703         227.525         110.376         232.969 
       0.668861         224.768         108.245         230.668 
       0.675024          222.32         106.171         227.804 
       0.681124         221.263         104.175         225.938 
       0.687237         217.585          102.23         223.238 
       0.693381         214.879         100.326         221.055 
       0.699536         213.411         98.4691          219.39 
       0.705665         213.452         96.6671         218.232 
       0.711789         208.886         94.9112         214.656 
       0.717957         207.975         93.1859         213.089 
        0.72409         205.398         91.5124         212.292 
       0.730186         202.255         89.8899         210.014 
       0.736317         201.502         88.2981         207.527 
       0.742472         200.117         86.7395         205.759 
       0.748622          198.76         85.2209         203.573 
        0.75476         196.909         83.7433          201.93 
       0.760888         194.303          82.304         199.603 
       0.767043         192.881          80.894         198.646 
       0.773185         191.029         79.5208         197.454 
       0.779291         188.506          78.188         195.517 
       0.785407         187.688         76.8844         193.265 
       0.791564         185.768         75.6027         192.043 
       0.797719         183.614         74.3511         190.854 
       0.803834         182.878         73.1359         188.565 
       0.809972          180.38         71.9439         187.315 
       0.816124         180.337          70.776         186.256 
       0.822261         178.053         69.6374         184.498 
       0.828378         176.477         68.5277         182.294 
       0.834502         175.974         67.4414         181.834 
       0.840667         173.559          66.372         180.893 
       0.846816         172.509         65.3291         178.829 
       0.852925         170.735         64.3156         177.361 
       0.859047         169.157         63.3217         175.997 
       0.865192         168.491         62.3458         175.106 
       0.871341         166.692         61.3902         173.401 
       0.877463         165.425         60.4592         172.714 
       0.883569         164.003         59.5502         171.248 
       0.889708         163.081         58.6555         170.163 
       0.895864          161.51         57.7771         169.148 
       0.902008         160.581         56.9188         167.416 
       0.908149         159.612         56.0786         166.191 
       0.914301         157.759         55.2543         165.594 
       0.920448         156.925         54.4476         164.274 
       0.926574         156.041         53.6599         162.356 
       0.932687         154.873         52.8898         161.381 
       0.938823         153.114         52.1322         160.581 
       0.944975         152.297         51.3879         159.704 
       0.951105         151.171         50.6609         158.456 
       0.957225         149.305         49.9495         157.574 
       0.963368         148.635         49.2495         155.798 
       0.969511         147.897          48.563         155.064 
       0.975621         147.209         47.8935         155.381 
       0.981748         146.196          47.235         153.499 
       0.987916         144.568         46.5849         152.931 
        0.99406         144.112         45.9496         151.738 
        1.00019         142.739         45.3275         150.483 
        1.00632         141.955         44.7177         149.622 
        1.01246         140.773         44.1183         148.463 
        1.01859         139.209          43.531         147.852 
        1.02471           139.6         42.9553         147.322 
        1.03085         138.175         42.3881         146.211 
        1.03698         136.732         41.8325          144.99 
        1.04314         135.826         41.2845         144.411 
        1.04929         135.131         40.7478         143.865 
        1.05541         134.256         40.2229         143.046 
        1.06154         133.349         39.7061         142.245 
        1.06769         132.815         39.1977         141.425 
        1.07382         132.202         38.6999         140.529 
        1.07993         131.304          38.212         139.621 
        1.08607         130.138         37.7306         138.847 
        1.09222         129.408         37.2571         137.834 
        1.09836         128.415         36.7923         137.054 
        1.10449         127.654         36.3362          136.32 
        1.11063         126.855         35.8873         135.248 
        1.11677         126.172         35.4463          134.64 
         1.1229         125.135         35.0135         134.269 
        1.12903         124.015         34.5877         133.234 
        1.13518         124.152         34.1687         132.592 
        1.14131         123.048         33.7569         131.735 
        1.14745         121.928         33.3522         131.086 
        1.15359         121.354         32.9542         130.386 
        1.15973         120.926         32.5625         129.828 
        1.16584         119.949         32.1791         129.065 
        1.17197         119.176         31.8013         128.326 
        1.17811         118.529         31.4285          127.58 
        1.18424         117.467         31.0628         126.955 
        1.19038         117.003          30.702         126.532 
        1.19652         116.452         30.3471          125.51 
        1.20267         115.477         29.9978          124.97 
        1.20881         114.829         29.6542         124.345 
        1.21495         114.046         29.3166         123.537 
        1.22108          113.33         28.9843         123.097 
         1.2272         112.756          28.658         122.443 
        1.23334         112.082          28.336         121.832 
        1.23949         111.138         28.0183         121.005 
        1.24562         110.974         27.7064           120.6 
        1.25174         110.106         27.3997         119.983 
        1.25789         109.472         27.0968           119.4 
        1.26402          108.99          26.799          118.72 
        1.27014         107.933         26.5065         118.412 
        1.27628         107.702         26.2175         117.885 
        1.28244         106.746         25.9323         116.834 
        1.28858          106.21         25.6518         116.279 
        1.29471         105.651          25.376         116.035 
        1.30084         104.937         25.1047         115.138 
        1.30697         104.199         24.8369         114.556 
        1.31312         103.849         24.5727         114.237 
        1.31925         103.419         24.3131         113.591 
        1.32537         102.836         24.0577         112.948 
        1.33151         101.899          23.805         112.515 
        1.33765         101.385         23.5561         112.024 
        1.34378         100.707         23.3114         111.358 
        1.34992         100.331         23.0699         110.941 
        1.35606         99.7492         22.8314          110.34 
         1.3622         98.8563         22.5967         109.869 
        1.36833         98.7052          22.366         109.082 
        1.37445         97.8808         22.1385         108.629 
        1.38059         97.3081         21.9136         108.442 
        1.38675         96.8614         21.6913         107.565 
        1.39288          96.149          21.473         107.326 
        1.39901         95.9905         21.2578          106.76 
        1.40515         95.5157         21.0451         106.288 
         1.4113         94.5437         20.8355         105.944 
        1.41742         94.2293         20.6295         105.373 
        1.42355         93.5967         20.4259         104.583 
         1.4297         93.1346         20.2245         104.141 
        1.43585         92.5111         20.0259          103.85 
        1.44198         92.2224         19.8308         103.535 
        1.44809         91.4632         19.6386         102.667 
        1.45423         91.1325         19.4484          102.27 
        1.46036         90.5735          19.261         101.948 
        1.46649         90.0904          19.076         101.627 
        1.47263         89.6906         18.8933         101.207 
        1.47877         89.2847         18.7132         100.478 
        1.48491         88.6404         18.5351         100.232 
        1.49104         88.1322         18.3597         99.5483 
        1.49718          87.699         18.1865         99.0868 
        1.50333         87.1552         18.0152         98.7343 
        1.50947         86.5264         17.8466         98.3252 
         1.5156         86.3724         17.6803         97.9418 
        1.52172         85.7558         17.5162         97.5464 
        1.52787         85.4245         17.3539         97.0392 
          1.534         85.0943         17.1938         96.7001 
        1.54013         84.4034         17.0359         96.2205 
        1.54627         84.0324         16.8798         95.7591 
        1.55241         83.4067         16.7256         95.4082 
        1.55855         82.9955         16.5735         94.8518 
        1.56467         82.4015         16.4238         94.3758 
         1.5708         82.1602         16.2755         94.1496 
        1.57695          81.795         16.1288          93.844 
        1.58308         81.2923         15.9843         93.3941 
        1.58922         80.9623         15.8415         93.0006 
        1.59535         80.5852         15.7005         92.5671 
         1.6015         79.9631          15.561         92.0866 
        1.60764         79.7625         15.4234         91.7785 
        1.61376         79.1953         15.2877         91.5436 
        1.61989         78.6941         15.1536         91.0152 
        1.62604         78.2856         15.0208         90.5117 
        1.63218         78.0868         14.8897         90.1479 
        1.63831         77.5815         14.7605         89.8636 
        1.64444         77.3061         14.6328          89.486 
        1.65059          76.517         14.5063         88.9822 
        1.65673         76.3422         14.3814         88.6186 
        1.66285         75.9785         14.2584         88.3225 
        1.66898          75.551         14.1368         87.9846 
        1.67512         74.9883         14.0164         87.7465 
        1.68127         74.6315         13.8973         87.3022 
         1.6874         74.3121         13.7798         86.7284 
        1.69353         73.9311         13.6638         86.3676 
        1.69967         73.5438         13.5488         86.2085 
        1.70581         73.2496         13.4352         85.9295 
        1.71193          72.867         13.3234         85.5142 
        1.71806         72.2493         13.2126           85.17 
        1.72421          72.156         13.1029         84.7085 
        1.73035         71.5803         12.9945         84.4454 
        1.73649         71.2042         12.8874         84.3029 
        1.74262         70.9299         12.7816         83.7072 
        1.74876         70.6521          12.677         83.2837 
        1.75489         70.0875         12.5737          83.057 
        1.76101         69.9102         12.4716         82.7358 
        1.76715         69.3963         12.3705         82.2706 
        1.77329         69.0899         12.2705         81.9592 
        1.77943         68.8451         12.1715         81.6773 
        1.78557         68.5072         12.0737         81.2287 
        1.79171         68.0566          11.977         80.8925 
        1.79785         67.7825         11.8814         80.6809 
        1.80399         67.2637         11.7868         80.4189 
        1.81012         67.1247         11.6934         79.9954 
        1.81625         66.5372         11.6011         79.6023 
        1.82239         66.2945         11.5096         79.3938 
        1.82853         65.8487         11.4191         79.2497 
        1.83466         65.6219         11.3298         78.8407 
        1.84078         65.0645         11.2414         78.3558 
        1.84692         64.9043         11.1539         78.2646 
        1.85306         64.5688         11.0672         77.9831 
         1.8592         64.1692         10.9816         77.5455 
        1.86533         63.8004          10.897         77.3443 
        1.87147          63.544         10.8131         77.0107 
        1.87761          63.255         10.7301         76.5874 
