# k  (h/Mpc)    P(k)  (Mpc/h)^3    P_linear(k)  (Mpc/h)^3     P_NL(k)  ShotnoiseSubtracted = false
     0.00783031         2243.61         2265.39         2264.28 
       0.013688         3032.17         3028.97         3018.24 
       0.019231         3272.31         3272.09         3254.65 
      0.0249154         3184.93         3214.02         3199.32 
      0.0312784         2945.47         2956.83         2945.66 
      0.0375637         2646.76         2644.89         2634.52 
      0.0433917         2365.02         2380.67         2371.01 
      0.0492413         2164.94         2169.26          2159.9 
      0.0555754         1979.19         2000.95         1991.03 
      0.0619321         1880.76         1875.52         1865.05 
       0.067871         1757.06         1774.06         1762.93 
      0.0738098         1650.72         1669.34         1654.96 
      0.0800417         1520.53         1546.31         1532.45 
      0.0862327         1395.87         1412.43         1402.17 
      0.0921407         1274.33         1283.03         1273.78 
      0.0982031         1148.34         1160.13         1155.25 
       0.104506         1056.03         1052.55         1051.26 
       0.110769         973.055         970.048         966.918 
       0.116806         907.792         911.671         908.476 
       0.122832         869.861         868.324         866.208 
       0.129052         824.418         831.375         829.232 
       0.135211         787.743         795.236         793.311 
       0.141259         753.907         755.563         755.082 
       0.147318         713.042         710.502         712.484 
       0.153489          660.12         661.121         660.777 
       0.159709         615.593         611.742         614.461 
       0.165845         580.175         567.403         575.163 
       0.171974         538.634         530.156          537.92 
       0.178125         510.747         500.653         511.945 
       0.184229         490.581         478.214         489.692 
        0.19034         464.162         460.405         471.705 
       0.196428          454.54         444.684         453.619 
       0.202534         442.472         428.644         438.383 
       0.208729         421.817         410.656         419.824 
       0.214876         398.891         390.854         403.598 
       0.220989         385.385         370.006         384.146 
       0.227147         360.185         349.191         363.696 
        0.23329         343.129         329.973         347.591 
       0.239377         330.672         313.398         332.574 
       0.245482         311.719         299.555         317.307 
       0.251667         305.597         288.065         307.566 
       0.257832         295.796         278.411         297.694 
       0.263955         286.227         269.694         288.384 
       0.270079         277.682         261.017         279.253 
        0.27624         272.053         251.827         269.373 
       0.282372         261.425         242.085         260.427 
        0.28843         251.014         232.095         250.707 
       0.294538          240.91         222.089             242 
       0.300721         235.653         212.494         233.961 
        0.30691         224.831           203.8         225.918 
       0.313033         218.273         196.235         217.949 
       0.319153         208.822         189.662         212.433 
       0.325316         205.307         183.793         207.403 
        0.33145         198.733         178.409         200.767 
       0.337538         195.169         173.213         195.166 
       0.343633         189.142         167.969         190.558 
       0.349808         183.832         162.526         185.642 
       0.355968         179.291         157.013          181.37 
       0.362074         173.928         151.594         175.736 
       0.368217         169.224          146.34         169.511 
       0.374374         164.219         141.415         165.617 
       0.380519         160.231           136.9         160.896 
       0.386598         156.137         132.837         157.059 
       0.392688          153.44         129.106         153.767 
        0.39888         149.461         125.553         149.563 
       0.405048         146.409         122.162         146.479 
       0.411186           143.4         118.843         143.858 
       0.417313         139.293          115.54         139.487 
       0.423458         136.291         112.247         136.557 
       0.429607         132.772         108.991         133.233 
       0.435692         128.707         105.859         130.496 
       0.441815         127.405         102.849         128.494 
       0.447964         125.418         99.9948         125.138 
       0.454126         120.326         97.3081          122.05 
       0.460267         118.593         94.7991         120.202 
       0.466387         116.041         92.4316         117.446 
        0.47254         114.411         90.1454         115.418 
       0.478662         112.617         87.9352         113.023 
       0.484765         109.834         85.7796         110.442 
       0.490885         107.687         83.6528         108.975 
       0.497035         106.245         81.5525         107.184 
       0.503198         103.606         79.5029         104.677 
       0.509342          101.24           77.53          103.02 
       0.515458         99.6696         75.6447         101.859 
       0.521598         98.3818         73.8326          99.151 
       0.527764         96.6575         72.0952         96.8607 
       0.533884         94.9669         70.4473         95.4079 
           0.54         93.3782         68.8631         93.9011 
       0.546137         92.2259         67.3218         92.7532 
       0.552299         90.9517         65.8126         90.7057 
       0.558452          88.441         64.3423         89.0589 
       0.564573         87.0124         62.9157         88.0753 
       0.570708         86.1371         61.5223         86.5912 
       0.576825         84.3107         60.1709         85.1683 
       0.582926         82.9143         58.8638         83.8406 
       0.589034         80.9615         57.5984         82.8061 
       0.595184         80.0966         56.3703         81.3493 
       0.601379         79.1901         55.1784         80.3774 
       0.607522          77.359         54.0355         78.6845 
       0.613639         77.1398         52.9313         77.6975 
       0.619772         75.1981         51.8535         76.4904 
       0.625918         74.8586         50.8004         75.7991 
       0.632068         73.7578         49.7735         74.3247 
       0.638161         72.5706         48.7827         73.4434 
         0.6443         71.4214         47.8113         72.1683 
       0.650464         70.3552         46.8633         71.1929 
       0.656582         69.8493         45.9486         70.4641 
       0.662703         68.4969         45.0589         69.2199 
       0.668861         67.6668         44.1888         68.5131 
       0.675024         66.6881         43.3422         67.4339 
       0.681124         65.6358         42.5275         66.5148 
       0.687237         64.6181         41.7332         65.5732 
       0.693381         64.1103         40.9562         64.7254 
       0.699536         62.8568          40.198          64.214 
       0.705665         62.9974         39.4624         63.4838 
       0.711789         61.4878         38.7456         62.2665 
       0.717957         60.9472         38.0412         61.7668 
        0.72409         60.0746         37.3581          61.204 
       0.730186         59.2354         36.6957         60.2996 
       0.736317         58.8822         36.0459         59.5049 
       0.742472         57.8776         35.4096         58.9536 
       0.748622         57.4598         34.7897         58.0849 
        0.75476         56.6508         34.1865         57.4865 
       0.760888         55.9318          33.599         56.8793 
       0.767043         55.3511         33.0233         56.4022 
       0.773185         54.5592         32.4628         55.7485 
       0.779291          54.293         31.9187         55.1952 
       0.785407         53.7332         31.3865          54.463 
       0.791564          52.801         30.8633         53.8407 
       0.797719         51.9851         30.3523         53.3259 
       0.803834         51.9008         29.8563         52.6742 
       0.809972         51.2318         29.3696         52.2275 
       0.816124         50.2269         28.8929         51.6288 
       0.822261         50.1111         28.4281         50.9439 
       0.828378         49.6009          27.975         50.3675 
       0.834502         49.0178         27.5316         50.2183 
       0.840667         48.5938          27.095         49.5044 
       0.846816         47.9073         26.6693         49.0763 
       0.852925         47.5285         26.2555         48.8684 
       0.859047         46.9232         25.8498         48.0665 
       0.865192         46.6361         25.4514         47.6444 
       0.871341         46.3668         25.0613         47.2885 
       0.877463         45.4843         24.6813         46.7934 
       0.883569         45.1082         24.3102         46.4878 
       0.889708         44.7416         23.9449         45.8801 
       0.895864         44.3839         23.5863         45.4601 
       0.902008         44.0409         23.2359         45.0984 
       0.908149         43.6277          22.893         44.7545 
       0.914301         43.4169         22.5565         44.4657 
       0.920448         42.5724         22.2271         43.9094 
       0.926574         42.4224         21.9056         43.4496 
       0.932687         41.9673         21.5912         43.1128 
       0.938823         41.4753         21.2819         42.7294 
       0.944975         41.1968         20.9781         42.2857 
       0.951105         40.8976         20.6813         41.9537 
       0.957225         40.4209         20.3909         41.6621 
       0.963368          40.144         20.1051         41.2422 
       0.969511         39.8709         19.8249         40.9335 
       0.975621         39.5883         19.5515         40.6189 
       0.981748         39.0749         19.2827         40.3455 
       0.987916          38.861         19.0173         39.9028 
        0.99406         38.5004          18.758         39.6326 
        1.00019         38.0221          18.504         39.3045 
        1.00632          37.947         18.2551         39.0642 
        1.01246         37.5802         18.0104         38.8065 
        1.01859         37.1337         17.7707         38.4315 
        1.02471         37.0828         17.5356         38.1206 
        1.03085         36.7102         17.3041         37.8408 
        1.03698         36.1787         17.0773         37.5251 
        1.04314         35.9531         16.8536         37.1507 
        1.04929         35.6746         16.6345         36.9735 
        1.05541         35.3447         16.4202         36.7905 
        1.06154         35.1495         16.2092         36.3556 
        1.06769         34.9201         16.0016         36.0994 
        1.07382           34.61         15.7984         35.9245 
        1.07993          34.473         15.5993         35.5936 
        1.08607         34.0524         15.4027         35.3331 
        1.09222         33.8647         15.2094         35.1444 
        1.09836          33.468         15.0197         34.8596 
        1.10449         33.3982         14.8335         34.5669 
        1.11063         32.9794         14.6503         34.4174 
        1.11677         32.8746         14.4702         34.1131 
         1.1229         32.7303         14.2936         33.8718 
        1.12903         32.3067         14.1197         33.6851 
        1.13518         32.0467         13.9487         33.3553 
        1.14131         31.9619         13.7806         33.1622 
        1.14745         31.7291         13.6154         32.9706 
        1.15359         31.5271         13.4529         32.7645 
        1.15973         31.2127          13.293         32.5477 
        1.16584         30.9077         13.1365         32.3871 
        1.17197         30.9313         12.9822         32.1475 
        1.17811         30.5426         12.8301         31.8264 
        1.18424         30.2744         12.6808          31.697 
        1.19038         30.2107         12.5335          31.527 
        1.19652         29.9822         12.3886         31.2496 
        1.20267         29.7486          12.246         31.0756 
        1.20881         29.6363         12.1057         30.9568 
        1.21495          29.394         11.9679         30.7706 
        1.22108         29.1528         11.8322          30.519 
         1.2272         28.8735          11.699         30.3242 
        1.23334          28.726         11.5676         30.2019 
        1.23949         28.5053         11.4379         29.9504 
        1.24562         28.4643         11.3106         29.7652 
        1.25174         28.2734         11.1854         29.6232 
        1.25789         28.1173         11.0617         29.4211 
        1.26402         27.9535         10.9402         29.2143 
        1.27014         27.6969         10.8207         29.0718 
        1.27628         27.4366         10.7028         28.8768 
        1.28244         27.3868         10.5863          28.809 
        1.28858         27.2536         10.4718         28.5463 
        1.29471         26.9927         10.3593         28.3736 
        1.30084         26.8122         10.2485         28.3027 
        1.30697         26.6652         10.1392         28.0769 
        1.31312         26.4299         10.0313         27.8948 
        1.31925         26.2888         9.92535          27.808 
        1.32537         26.2289         9.82106         27.6826 
        1.33151          25.978         9.71791         27.4786 
        1.33765         25.8639         9.61632         27.3293 
        1.34378         25.7656         9.51639         27.2014 
        1.34992         25.4454         9.41783         27.0472 
        1.35606         25.4143         9.32046         26.8634 
         1.3622         25.2887         9.22466         26.7397 
        1.36833         25.0924         9.13045          26.638 
        1.37445         24.9959         9.03761         26.4313 
        1.38059          24.874         8.94579         26.2587 
        1.38675         24.6239         8.85504         26.1675 
        1.39288         24.5282         8.76592         26.0142 
        1.39901         24.3291         8.67808         25.9015 
        1.40515         24.2473         8.59125         25.7811 
         1.4113         24.1065         8.50566         25.6563 
        1.41742         23.9289         8.42157         25.5175 
        1.42355         23.8486         8.33847         25.3154 
         1.4297         23.6838         8.25625         25.2442 
        1.43585           23.62         8.17518         25.1523 
        1.44198         23.3834         8.09552         24.9964 
        1.44809         23.3283         8.01708         24.8963 
        1.45423         23.1795          7.9394         24.7538 
        1.46036         23.1036          7.8629         24.5989 
        1.46649         22.9684         7.78739          24.474 
        1.47263         22.7816         7.71282         24.3953 
        1.47877         22.6926         7.63927         24.3237 
        1.48491         22.5604         7.56657         24.1053 
        1.49104         22.4951         7.49498         24.0286 
        1.49718         22.3146         7.42427         23.9352 
        1.50333         22.2014         7.35436         23.8183 
        1.50947         22.1193         7.28551         23.7182 
         1.5156         21.9564         7.21764         23.5966 
        1.52172         21.7935         7.15065         23.4482 
        1.52787         21.7246         7.08438         23.3317 
          1.534         21.6244         7.01903         23.2345 
        1.54013         21.4732         6.95458         23.0736 
        1.54627         21.3696         6.89083         22.9651 
        1.55241         21.2472         6.82788         22.9225 
        1.55855         21.1826         6.76581         22.8172 
        1.56467         21.0676         6.70468         22.6862 
         1.5708         20.9993         6.64415         22.6194 
        1.57695         20.7993         6.58428         22.5269 
        1.58308         20.7553         6.52529         22.4051 
        1.58922         20.6437         6.46698         22.3376 
        1.59535         20.5408         6.40942         22.2286 
         1.6015         20.4017         6.35249         22.1163 
        1.60764          20.348         6.29627         22.0066 
        1.61376         20.2812          6.2409         21.8928 
        1.61989         20.0782         6.18616          21.825 
        1.62604         20.0778         6.13195          21.771 
        1.63218         19.9265         6.07844         21.6576 
        1.63831         19.8555         6.02569         21.5306 
        1.64444         19.7137         5.97355          21.473 
        1.65059          19.639         5.92191          21.354 
        1.65673         19.5584         5.87094         21.2788 
        1.66285         19.4162         5.82071         21.2106 
        1.66898          19.365         5.77107         21.0882 
        1.67512         19.2807         5.72191         20.9919 
        1.68127         19.1292         5.67328         20.8906 
         1.6874         19.0679         5.62532         20.7938 
        1.69353         19.0228         5.57796         20.7322 
        1.69967         18.8671         5.53103         20.6671 
        1.70581         18.7435         5.48467         20.5967 
        1.71193         18.6869         5.43902         20.5072 
        1.71806         18.6473         5.39379         20.3913 
        1.72421         18.5214         5.34899         20.3332 
        1.73035         18.4779         5.30476         20.2403 
        1.73649         18.3697         5.26104         20.1148 
        1.74262          18.295         5.21785         20.0956 
        1.74876         18.1995         5.17512         20.0137 
        1.75489         18.1286         5.13296         19.8882 
        1.76101         18.0052         5.09129         19.8056 
        1.76715         18.0045         5.05003         19.7524 
        1.77329         17.8949         5.00918         19.6625 
        1.77943         17.7705         4.96876         19.5832 
        1.78557         17.6998         4.92886         19.5547 
        1.79171         17.6522         4.88938         19.4648 
        1.79785         17.5607         4.85034          19.357 
        1.80399          17.484         4.81174           19.31 
        1.81012         17.3881          4.7736         19.2279 
        1.81625         17.2991         4.73591         19.1596 
        1.82239          17.248         4.69856         19.1131 
        1.82853         17.1059         4.66164         19.0085 
        1.83466         17.0772         4.62515         18.9266 
        1.84078         16.9548          4.5891         18.8748 
        1.84692         16.9226         4.55337         18.7867 
        1.85306         16.8465         4.51798         18.7188 
         1.8592         16.7783         4.48303          18.667 
        1.86533         16.7056         4.44847         18.5896 
        1.87147         16.6209         4.41423         18.5248 
        1.87761         16.5531         4.38035         18.4639 
