# k  (h/Mpc)    P(k)  (Mpc/h)^3    P_linear(k)  (Mpc/h)^3     P_NL(k)  ShotnoiseSubtracted = false
     0.00783031         4115.86         4159.99         4157.85 
       0.013688          5578.5         5561.74         5539.55 
       0.019231         6008.85         6007.88         5970.95 
      0.0249154         5828.43         5901.09         5865.53 
      0.0312784         5394.47         5428.77         5395.43 
      0.0375637         4852.26         4855.98          4822.7 
      0.0433917         4321.69         4370.84         4336.45 
      0.0492413         3962.13         3982.68         3948.38 
      0.0555754         3607.41         3673.66          3638.5 
      0.0619321         3444.42         3443.35         3406.52 
       0.067871         3202.17         3257.08         3219.53 
      0.0738098          3007.3         3064.81         3017.06 
      0.0800417         2762.98         2838.92          2792.6 
      0.0862327         2540.89         2593.13         2558.21 
      0.0921407         2325.58         2355.56         2323.03 
      0.0982031         2094.26         2129.91         2111.14 
       0.104506         1936.11          1932.4         1924.93 
       0.110769         1784.28         1780.94         1767.86 
       0.116806         1664.15         1673.76         1660.81 
       0.122832         1595.07         1594.18         1584.72 
       0.129052         1505.69         1526.34         1517.15 
       0.135211         1439.62         1459.99         1451.38 
       0.141259         1380.99         1387.16         1383.48 
       0.147318         1307.56         1304.43         1307.84 
       0.153489         1208.88         1213.77         1210.23 
       0.159709         1133.33         1123.11         1129.11 
       0.165845         1074.14         1041.71         1062.95 
       0.171974         999.839         973.324          995.31 
       0.178125         948.929         919.158         952.063 
       0.184229         912.564         877.963         910.743 
        0.19034         859.589         845.267         877.868 
       0.196428         845.901         816.405         842.696 
       0.202534         823.535         786.956         815.828 
       0.208729         785.785         753.932         780.381 
       0.214876         744.096         717.577         754.474 
       0.220989         721.667         679.302         720.822 
       0.227147          677.08         641.086         684.462 
        0.23329         647.574         605.804          658.02 
       0.239377         629.056         575.373         631.427 
       0.245482         589.874         549.958         602.258 
       0.251667         581.916         528.865         586.277 
       0.257832         563.477         511.141         567.944 
       0.263955         545.666         495.136         550.716 
       0.270079         529.341         479.206         533.996 
        0.27624         521.569         462.334         515.679 
       0.282372         500.456         444.448         499.639 
        0.28843         484.177         426.108         481.878 
       0.294538         463.568         407.736         467.329 
       0.300721         458.001         390.122         453.706 
        0.30691         436.969          374.16         440.451 
       0.313033         426.565         360.272         425.397 
       0.319153         410.693         348.204         415.441 
       0.325316         401.088         337.429         407.217 
        0.33145          389.41         327.543         393.656 
       0.337538         384.494         318.005         383.675 
       0.343633         372.618         308.377           376.9 
       0.349808         361.902         298.384         368.293 
       0.355968         355.947         288.262         360.337 
       0.362074         346.874         278.314         350.389 
       0.368217         337.977         268.668         338.906 
       0.374374         327.332         259.627         331.836 
       0.380519         321.235         251.338         323.472 
       0.386598         313.712         243.878         316.799 
       0.392688         309.969         237.027         310.732 
        0.39888         302.016         230.506         303.191 
       0.405048         296.121         224.279         298.979 
       0.411186         289.857         218.187         292.375 
       0.417313         284.125         212.122         284.151 
       0.423458         278.679         206.075         278.851 
       0.429607         272.056         200.098         273.179 
       0.435692         264.535         194.349         267.972 
       0.441815         262.852         188.822          264.99 
       0.447964           258.5         183.582         258.994 
       0.454126         248.007          178.65         252.702 
       0.460267         245.379         174.043         250.117 
       0.466387          242.07         169.697         245.001 
        0.47254         237.669           165.5         241.153 
       0.478662          235.25         161.442         236.642 
       0.484765         229.474         157.484         231.234 
       0.490885         225.964          153.58         228.504 
       0.497035         222.941         149.724         225.612 
       0.503198          217.31         145.961          221.57 
       0.509342         214.315         142.339         218.512 
       0.515458          211.52         138.877         216.609 
       0.521598         209.107          135.55         211.702 
       0.527764          205.72         132.361         207.414 
       0.533884         202.324         129.335         204.938 
           0.54         199.575         126.427         202.247 
       0.546137         198.118         123.597         200.128 
       0.552299         195.035         120.826          196.24 
       0.558452         191.215         118.127         193.276 
       0.564573         187.825         115.508         191.546 
       0.570708         185.699          112.95         188.713 
       0.576825         183.045         110.469         185.539 
       0.582926         180.484         108.069         183.052 
       0.589034         177.232         105.746         181.313 
       0.595184         175.658         103.491         178.583 
       0.601379         174.183         101.303         177.295 
       0.607522         169.999         99.2046         173.976 
       0.613639         169.865         97.1774         172.293 
       0.619772         165.935         95.1987          169.59 
       0.625918         164.572         93.2652          168.48 
       0.632068         162.751         91.3799         165.592 
       0.638161          161.14          89.561         164.544 
         0.6443         158.978         87.7776         162.052 
       0.650464         157.089         86.0371         159.287 
       0.656582         155.546         84.3578          158.37 
       0.662703         152.778         82.7244          156.05 
       0.668861         151.474         81.1269         154.628 
       0.675024         149.677         79.5726         152.564 
       0.681124         148.306         78.0769         151.092 
       0.687237          145.78         76.6187         149.161 
       0.693381         144.213         75.1921         147.492 
       0.699536         142.739         73.8002         146.587 
       0.705665         143.372         72.4496         145.484 
       0.711789         139.586         71.1336         142.715 
       0.717957         139.041         69.8405         141.816 
        0.72409          137.06         68.5863         141.208 
       0.730186         134.848         67.3703         139.412 
       0.736317         134.669         66.1772          137.61 
       0.742472         133.156         65.0091           136.4 
       0.748622         132.285          63.871         134.884 
        0.75476         130.845         62.7635         133.574 
       0.760888         129.194         61.6849         132.056 
       0.767043         127.917         60.6281         131.443 
       0.773185         126.649         59.5989         130.515 
       0.779291         125.587            58.6         129.175 
       0.785407         124.725          57.623         127.536 
       0.791564         123.054         56.6624         126.494 
       0.797719         121.624         55.7243         125.623 
       0.803834         121.158         54.8136         124.057 
       0.809972         119.166         53.9202         123.198 
       0.816124         118.595         53.0449         122.489 
       0.822261         117.693         52.1916         121.074 
       0.828378         116.528         51.3598         119.548 
       0.834502         115.592         50.5457         119.361 
       0.840667         114.589         49.7442         118.503 
       0.846816         113.492         48.9626         117.219 
       0.852925         112.242         48.2029         116.291 
       0.859047         110.968          47.458         115.055 
       0.865192         110.776         46.7267         114.472 
       0.871341         109.797         46.0104         113.325 
       0.877463         108.261         45.3127         112.724 
       0.883569         107.641         44.6314         111.868 
       0.889708         107.081         43.9608         110.916 
       0.895864         106.033         43.3025         110.162 
       0.902008         105.335         42.6592         109.214 
       0.908149         104.562         42.0296         108.377 
       0.914301         103.431         41.4117         107.874 
       0.920448         102.686         40.8071         106.886 
       0.926574         102.076         40.2168         105.591 
       0.932687         101.338         39.6396         105.185 
       0.938823         99.9703         39.0718          104.28 
       0.944975         99.7526         38.5139         103.529 
       0.951105         98.7331         37.9691         102.985 
       0.957225         97.5754         37.4359         102.357 
       0.963368         97.2331         36.9113         101.189 
       0.969511         96.6759         36.3968         100.613 
       0.975621         96.0444          35.895         100.614 
       0.981748         95.0835         35.4015         99.4754 
       0.987916         94.5308         34.9142         99.0131 
        0.99406         94.0773         34.4381         98.2728 
        1.00019         92.7289         33.9719         97.5598 
        1.00632         92.5376         33.5148         97.0152 
        1.01246         91.5545         33.0656         96.2003 
        1.01859         90.6378         32.6254         95.5855 
        1.02471         90.9914         32.1939          95.173 
        1.03085         89.9173         31.7688         94.4346 
        1.03698         89.0386         31.3524         93.7265 
        1.04314         88.1976         30.9418         93.1495 
        1.04929         87.9643         30.5395         92.8486 
        1.05541         87.2036         30.1461         92.4052 
        1.06154         86.8351         29.7587         91.6251 
        1.06769         86.0845         29.3777         91.1443 
        1.07382         85.6932         29.0046         90.5502 
        1.07993         85.3555         28.6389         89.8885 
        1.08607         84.5103         28.2781         89.3066 
        1.09222         84.1421         27.9232         88.6718 
        1.09836         83.4762         27.5749          88.264 
        1.10449         82.9479         27.2331         87.6613 
        1.11063         82.0903         26.8967         87.0106 
        1.11677         81.7042         26.5661         86.5678 
         1.1229         81.4075         26.2418         86.2877 
        1.12903         80.3108         25.9226         85.6562 
        1.13518         80.3469         25.6086         85.1461 
        1.14131         79.9835            25.3         84.7296 
        1.14745         78.9327         24.9967         84.2014 
        1.15359         78.6757         24.6983          84.001 
        1.15973         78.0376         24.4048           83.33 
        1.16584         77.5252         24.1174         82.8111 
        1.17197         77.1766         23.8343         82.3328 
        1.17811         76.6808         23.5549         81.7039 
        1.18424         75.9627         23.2808         81.2778 
        1.19038         75.8607         23.0104         81.1775 
        1.19652         75.4085         22.7444         80.4147 
        1.20267         74.8158         22.4826          80.253 
        1.20881         74.3077         22.2251          79.655 
        1.21495         73.8085          21.972         79.3173 
        1.22108         73.3337          21.723         78.8526 
         1.2272         72.7522         21.4785         78.5388 
        1.23334         72.4671         21.2372         78.0629 
        1.23949         72.1823          20.999         77.5349 
        1.24562         71.8133         20.7652         77.1643 
        1.25174         71.3446         20.5354         76.8956 
        1.25789         70.9548         20.3084         76.4076 
        1.26402         70.4403         20.0852         75.9515 
        1.27014         69.8557          19.866         75.6044 
        1.27628         69.6352         19.6494         75.2198 
        1.28244          69.023         19.4356         74.8641 
        1.28858         68.7517         19.2254         74.4948 
        1.29471         68.5157         19.0187         74.2033 
        1.30084         68.0281         18.8153         73.5904 
        1.30697         67.4513         18.6146         73.2027 
        1.31312         67.0576         18.4166         73.0925 
        1.31925         66.9007         18.2221         72.6338 
        1.32537         66.4762         18.0306         72.2213 
        1.33151         66.0631         17.8413         71.9309 
        1.33765         65.8722         17.6547         71.6043 
        1.34378         65.5023         17.4713         71.1955 
        1.34992         64.6397         17.2903         70.8727 
        1.35606         64.4522         17.1116           70.66 
         1.3622         64.0206         16.9357         70.2658 
        1.36833         63.8924         16.7627         69.8332 
        1.37445         63.6207         16.5923         69.5627 
        1.38059         63.2804         16.4237         69.4107 
        1.38675         62.8689         16.2571         68.9156 
        1.39288         62.4726         16.0935         68.7241 
        1.39901         62.0675         15.9322         68.3629 
        1.40515          61.786         15.7728         67.9595 
         1.4113         61.5964         15.6157         67.7243 
        1.41742         60.9587         15.4613         67.5453 
        1.42355         60.9185         15.3087         66.9911 
         1.4297         60.3952         15.1578         66.6794 
        1.43585         60.2757         15.0089          66.508 
        1.44198         59.8871         14.8627         66.2703 
        1.44809         59.4874         14.7187         65.7156 
        1.45423         59.3289         14.5761         65.4634 
        1.46036          58.916         14.4356         65.2348 
        1.46649         58.6352          14.297         64.9947 
        1.47263         58.3338         14.1601         64.7574 
        1.47877         58.0727         14.0251         64.4125 
        1.48491         57.7341         13.8916         64.0216 
        1.49104         57.4191         13.7601         63.7365 
        1.49718         56.9968         13.6303         63.4562 
        1.50333         56.7903          13.502         63.2899 
        1.50947         56.4141         13.3756         63.0757 
         1.5156         56.1417          13.251         62.7761 
        1.52172         55.8778          13.128         62.4756 
        1.52787         55.7683         13.0063         62.1742 
          1.534         55.3607         12.8863         61.9596 
        1.54013         55.0014          12.768         61.6458 
        1.54627          54.939          12.651          61.316 
        1.55241         54.5612         12.5354         61.1018 
        1.55855         54.1968         12.4215          60.892 
        1.56467         53.8374         12.3092         60.5669 
         1.5708         53.6959         12.1981         60.4004 
        1.57695         53.3427         12.0882         60.1776 
        1.58308          53.307         11.9799         59.8053 
        1.58922         52.9643         11.8728         59.6219 
        1.59535         52.6048         11.7672          59.441 
         1.6015         52.3684         11.6626         59.1203 
        1.60764         52.2211         11.5594         58.8463 
        1.61376         51.9743         11.4578         58.6592 
        1.61989         51.4175         11.3573         58.3123 
        1.62604         51.3291         11.2577          58.119 
        1.63218         51.0076         11.1595         57.9731 
        1.63831         50.8043         11.0627         57.6922 
        1.64444         50.6364         10.9669         57.3959 
        1.65059         50.1512         10.8721         57.2104 
        1.65673         50.0296         10.7785         56.9493 
        1.66285         49.8511         10.6863         56.7239 
        1.66898         49.4746         10.5952         56.6367 
        1.67512         49.2531         10.5049         56.4166 
        1.68127         48.9307         10.4157         56.0777 
         1.6874         48.8656         10.3276         55.7672 
        1.69353         48.5415         10.2407         55.5882 
        1.69967         48.3829         10.1545           55.41 
        1.70581         48.1222         10.0694         55.3009 
        1.71193         47.7753         9.98557         55.1205 
        1.71806         47.5908         9.90254         54.6616 
        1.72421         47.2994          9.8203         54.4148 
        1.73035          47.164         9.73909         54.3568 
        1.73649         46.9178         9.65882         54.2214 
        1.74262         46.6322         9.57953         53.8388 
        1.74876          46.573         9.50109         53.6171 
        1.75489         46.1601         9.42369         53.4835 
        1.76101         45.9822         9.34718         53.2661 
        1.76715          45.748         9.27143         53.0726 
        1.77329         45.5463         9.19642         52.8805 
        1.77943          45.381         9.12223         52.6804 
        1.78557          45.145         9.04896         52.4845 
        1.79171         44.8674         8.97649           52.26 
        1.79785         44.6886         8.90481         52.0882 
        1.80399         44.4716         8.83394         51.9799 
        1.81012         44.3033         8.76393         51.6261 
        1.81625         44.0192         8.69472         51.3169 
        1.82239         43.8639         8.62616         51.2242 
        1.82853         43.4972         8.55837         51.0957 
        1.83466         43.3449         8.49139         50.8952 
        1.84078         43.0592         8.42519         50.7026 
        1.84692         42.9749          8.3596         50.5964 
        1.85306         42.6816         8.29463         50.3915 
         1.8592         42.5482         8.23046         50.1422 
        1.86533         42.2404         8.16701         49.9984 
        1.87147         42.1332         8.10416         49.8152 
        1.87761         42.0371         8.04194         49.5929 
