# k  (h/Mpc)    Pcb(k)  (Mpc/h)^3    Pcb_linear(k) (Mpc/h)^3    Pcb_NL(k) (Mpc/h)^3   ShotnoiseSubtracted = false
     0.00783031         4858.98         4912.71         4909.97 
       0.013688         6591.59         6567.95         6540.56 
       0.019231         7095.62         7094.72         7048.86 
      0.0249154         6874.84         6968.56         6922.63 
      0.0312784         6364.25         6410.77         6365.57 
      0.0375637          5726.3         5734.34         5688.64 
      0.0433917         5094.67         5161.43         5113.35 
      0.0492413            4673         4703.06         4654.86 
      0.0555754         4248.74         4338.14         4289.03 
      0.0619321         4062.71         4066.16         4014.81 
       0.067871         3770.93          3846.2         3794.22 
      0.0738098         3541.07         3619.15         3553.24 
      0.0800417         3250.57         3352.41         3288.41 
      0.0862327         2990.93         3062.15         3013.71 
      0.0921407         2739.92         2781.61         2736.28 
      0.0982031         2467.14         2515.15          2488.5 
       0.104506          2284.6         2281.92         2270.66 
       0.110769         2105.62         2103.06         2084.31 
       0.116806         1964.17          1976.5         1957.98 
       0.122832         1882.39         1882.52         1868.73 
       0.129052          1774.7         1802.41         1789.09 
       0.135211         1697.21         1724.06         1711.42 
       0.141259          1629.2         1638.05         1632.32 
       0.147318          1543.1         1540.36         1543.91 
       0.153489         1426.14          1433.3         1427.72 
       0.159709         1339.29         1326.25         1333.52 
       0.165845         1271.68         1230.12         1257.75 
       0.171974         1185.04         1149.37         1178.34 
       0.178125         1124.89         1085.41         1129.05 
       0.184229         1082.05         1036.76         1079.87 
        0.19034         1018.43          998.15         1041.22 
       0.196428         1003.35         964.067         999.146 
       0.202534         976.498         929.293         967.831 
       0.208729         932.201         890.296         925.365 
       0.214876         883.603         847.365         896.121 
       0.220989         857.665         802.166         857.288 
       0.227147         806.119         757.039         815.034 
        0.23329         771.787         715.375         784.838 
       0.239377         751.547          679.44         753.646 
       0.245482         704.074         649.428         718.949 
       0.251667         695.725         624.519         700.758 
       0.257832         673.395          603.59         679.031 
       0.263955         652.402         584.691         658.716 
       0.270079         632.803          565.88          639.11 
        0.27624          624.51         545.956         617.569 
       0.282372         598.896         524.835         598.771 
        0.28843         581.313         503.178         577.916 
       0.294538         555.897         481.483         561.165 
       0.300721         550.718         460.683         545.239 
        0.30691         525.495         441.834         530.339 
       0.313033         513.836         425.435         512.472 
       0.319153         496.072         411.182         500.552 
       0.325316         483.522          398.46         491.214 
        0.33145         469.942         386.786         474.729 
       0.337538         464.477         375.522         463.235 
       0.343633         450.138         364.152         455.869 
       0.349808         437.046         352.353         445.839 
       0.355968         431.087         340.399         436.376 
       0.362074         420.878         328.653         424.769 
       0.368217         410.069         317.262         411.236 
       0.374374         396.402         306.584         402.892 
       0.380519         390.081         296.797         393.137 
       0.386598         381.245         287.988         385.591 
       0.392688         377.462         279.898         378.065 
        0.39888          367.56         272.197         369.635 
       0.405048         360.525         264.844         365.046 
       0.411186         352.989          257.65         356.443 
       0.417313         346.684         250.488         346.873 
       0.423458         340.306         243.347         340.707 
       0.429607          332.46          236.29         333.936 
       0.435692           323.9         229.501         327.712 
       0.441815         321.898         222.974         324.418 
       0.447964         316.321         216.786          317.45 
       0.454126         304.047         210.963          309.83 
       0.460267         300.973         205.522         307.075 
       0.466387         297.302          200.39         300.975 
        0.47254         291.565         195.433         296.463 
       0.478662         289.267         190.641         290.985 
       0.484765          282.03         185.968         284.447 
       0.490885         278.038         181.357         281.175 
       0.497035         274.146         176.804         277.832 
       0.503198         267.522          172.36         273.143 
       0.509342         264.596         168.083         269.599 
       0.515458         261.259         163.996         267.391 
       0.521598         258.042         160.067         261.636 
       0.527764         253.763         156.301         256.756 
       0.533884         250.051         152.728         253.825 
           0.54          246.81         149.293         250.571 
       0.546137         245.326         145.952         247.969 
       0.552299         241.191          142.68         243.448 
       0.558452         237.211         139.492         240.082 
       0.564573         233.137           136.4          238.02 
       0.570708         230.033         133.379         234.742 
       0.576825         227.108         130.449         230.646 
       0.582926         224.263         127.615         227.775 
       0.589034         220.611         124.872         225.645 
       0.595184         218.721         122.209         222.151 
       0.601379         216.917         119.625         220.997 
       0.607522         212.051         117.148         217.295 
       0.613639         211.634         114.754         215.118 
       0.619772         206.808         112.417         212.024 
       0.625918         205.127         110.134         210.578 
       0.632068         202.881         107.908          207.05 
       0.638161         201.387          105.76         205.918 
         0.6443          198.43         103.654         203.107 
       0.650464         196.343         101.599         199.651 
       0.656582         194.659         99.6154          198.42 
       0.662703         191.504         97.6866         195.945 
       0.668861         189.563         95.8002         194.104 
       0.675024         187.416         93.9647         191.585 
       0.681124         186.184         92.1986         189.975 
       0.687237         182.977         90.4766         187.601 
       0.693381         180.845          88.792         185.644 
       0.699536         179.403         87.1483         184.352 
       0.705665         179.878         85.5534         183.253 
       0.711789         175.465         83.9994         179.985 
       0.717957         174.808         82.4724         178.731 
        0.72409         172.466         80.9914         178.071 
       0.730186         169.698         79.5554          175.99 
       0.736317         169.333         78.1466         173.821 
       0.742472         167.859         76.7672         172.336 
       0.748622         166.733         75.4232         170.472 
        0.75476         165.072         74.1154         168.912 
       0.760888         162.936         72.8417         166.983 
       0.767043         161.495         71.5938         166.216 
       0.773185         159.969         70.3784         165.177 
       0.779291         158.246         69.1989         163.519 
       0.785407         157.359         68.0451         161.514 
       0.791564         155.521         66.9108         160.395 
       0.797719         153.712         65.8031         159.344 
       0.803834         153.105         64.7276         157.338 
       0.809972         150.791         63.6726         156.302 
       0.816124         150.498          62.639         155.472 
       0.822261         148.938         61.6314          153.86 
       0.828378         147.526         60.6492         151.941 
       0.834502         146.753         59.6878          151.64 
       0.840667          145.11         58.7413           150.8 
       0.846816         143.999         57.8184         149.061 
       0.852925         142.389         56.9213         147.815 
       0.859047         140.964         56.0417         146.496 
       0.865192         140.602          55.178           145.8 
       0.871341         139.173         54.3323         144.321 
       0.877463         137.741         53.5083         143.702 
       0.883569         136.751         52.7038         142.496 
       0.889708         135.998         51.9119         141.497 
       0.895864          134.72         51.1345         140.593 
       0.902008         133.872         50.3749         139.251 
       0.908149          132.98         49.6314         138.227 
       0.914301         131.425         48.9018         137.667 
       0.920448         130.724         48.1878         136.529 
       0.926574         129.935         47.4908         134.848 
       0.932687         129.002         46.8091         134.182 
       0.938823         127.395         46.1386         133.293 
       0.944975         126.901         45.4799         132.466 
       0.951105         125.771         44.8365          131.56 
       0.957225         124.248         44.2069         130.878 
       0.963368         123.804         43.5873          129.34 
       0.969511         123.133         42.9798         128.676 
       0.975621         122.524         42.3872         128.908 
       0.981748         121.451         41.8045         127.341 
       0.987916          120.42         41.2291         126.849 
        0.99406         119.927         40.6668         125.827 
        1.00019         118.467         40.1163         124.842 
        1.00632         118.085         39.5766         124.204 
        1.01246         116.903         39.0461         123.194 
        1.01859         115.628         38.5263         122.539 
        1.02471         116.143         38.0168         122.074 
        1.03085         114.873         37.5148          121.13 
        1.03698         113.691         37.0231          120.16 
        1.04314         112.747         36.5381         119.604 
        1.04929         112.316         36.0631          119.21 
        1.05541         111.509         35.5986         118.566 
        1.06154         110.878         35.1412         117.762 
        1.06769         110.134         34.6912          117.12 
        1.07382         109.707         34.2506         116.349 
        1.07993         109.095         33.8188         115.578 
        1.08607          108.09         33.3927         114.849 
        1.09222          107.52         32.9737         113.953 
        1.09836         106.715         32.5624         113.417 
        1.10449         106.062         32.1586         112.791 
        1.11063         105.261         31.7614         111.879 
        1.11677         104.659         31.3711         111.327 
         1.1229         104.049         30.9881         111.099 
        1.12903         102.855         30.6112         110.204 
        1.13518          102.99         30.2404         109.643 
        1.14131         102.292         29.8759         108.998 
        1.14745          101.05         29.5178         108.411 
        1.15359         100.726         29.1655         107.981 
        1.15973         100.185         28.8189         107.326 
        1.16584         99.4531         28.4795         106.695 
        1.17197         98.8258         28.1452          106.12 
        1.17811         98.2855         27.8152         105.346 
        1.18424         97.3424         27.4916         104.846 
        1.19038         97.0707         27.1722          104.61 
        1.19652         96.6064         26.8581         103.675 
        1.20267         95.7968          26.549         103.349 
        1.20881         95.2062         26.2449         102.689 
        1.21495         94.5489         25.9461         102.158 
        1.22108         93.9643          25.652          101.71 
         1.2272         93.4089         25.3632         101.231 
        1.23334          92.915         25.0783         100.651 
        1.23949         92.4036         24.7971         99.9868 
        1.24562         92.0899          24.521         99.5966 
        1.25174         91.4289         24.2496         99.1902 
        1.25789         90.9037         23.9815         98.6357 
        1.26402         90.3472          23.718         98.0449 
        1.27014         89.5216         23.4591         97.6694 
        1.27628         89.3166         23.2033          97.217 
        1.28244         88.4664         22.9509         96.5337 
        1.28858           88.07         22.7026         96.0945 
        1.29471         87.7588         22.4586         95.8313 
        1.30084         87.1214         22.2184         95.0151 
        1.30697         86.4114         21.9814         94.5392 
        1.31312         86.0302         21.7476         94.4006 
        1.31925         85.8175         21.5179         93.8201 
        1.32537         85.2284         21.2918         93.2549 
        1.33151         84.6145         21.0682         92.9033 
        1.33765         84.2344         20.8479         92.4842 
        1.34378         83.7126         20.6313         91.9524 
        1.34992         83.0341         20.4176         91.5847 
        1.35606         82.6562         20.2065         91.1881 
         1.3622         81.9846         19.9988         90.7191 
        1.36833         81.8993         19.7946         90.0663 
        1.37445         81.3255         19.5933          89.782 
        1.38059         80.7951         19.3942         89.6424 
        1.38675         80.4505         19.1975         88.8793 
        1.39288         79.8296         19.0043         88.6757 
        1.39901         79.6138         18.8138         88.2088 
        1.40515         79.2078         18.6256         87.7809 
         1.4113         78.6716           18.44         87.5002 
        1.41742         78.1579         18.2577         87.1102 
        1.42355         77.8614         18.0776          86.446 
         1.4297         77.3382         17.8993          86.076 
        1.43585         76.9488         17.7236         85.8492 
        1.44198         76.6335         17.5509         85.5929 
        1.44809         76.0133         17.3808         84.8134 
        1.45423         75.8347         17.2124         84.5358 
        1.46036         75.2782         17.0466         84.2833 
        1.46649         74.9158         16.8829         83.9973 
        1.47263         74.5475         16.7212         83.6628 
        1.47877         74.2412         16.5617         83.1017 
        1.48491         73.7555         16.4041         82.7606 
        1.49104         73.3209         16.2489         82.2473 
        1.49718         72.8721         16.0956         81.9186 
        1.50333         72.5425         15.9441         81.6553 
        1.50947         72.0243         15.7948         81.3481 
         1.5156         71.7723         15.6477          81.027 
        1.52172           71.45         15.5024         80.6725 
        1.52787         71.1238         15.3587         80.2748 
          1.534         70.8013         15.2171         79.9893 
        1.54013         70.3009         15.0774         79.6188 
        1.54627         70.1082         14.9392         79.2108 
        1.55241         69.5498         14.8027         78.8813 
        1.55855         69.0772         14.6681         78.5204 
        1.56467         68.6198         14.5356         78.0989 
         1.5708         68.5039         14.4043         77.9308 
        1.57695         68.1019         14.2745         77.7186 
        1.58308         67.9063         14.1467         77.2771 
        1.58922         67.5307         14.0203         76.9598 
        1.59535         67.1797         13.8955         76.6504 
         1.6015         66.7085          13.772         76.2586 
        1.60764         66.5844         13.6502         75.9592 
        1.61376         66.1769         13.5301         75.7355 
        1.61989         65.5607         13.4114         75.3025 
        1.62604         65.3862         13.2939         74.9351 
        1.63218         65.1191         13.1779         74.6698 
        1.63831         64.7473         13.0635          74.391 
        1.64444         64.5519         12.9505          74.055 
        1.65059         63.8897         12.8385         73.7473 
        1.65673         63.7339          12.728         73.3953 
        1.66285         63.5008         12.6192          73.116 
        1.66898         63.0548         12.5115         72.9801 
        1.67512           62.68         12.4049         72.7298 
        1.68127         62.3381         12.2995         72.2934 
         1.6874         62.1678         12.1956         71.8478 
        1.69353         61.7558         12.0929         71.6069 
        1.69967         61.5425         11.9911         71.4443 
        1.70581         61.3025         11.8906         71.2866 
        1.71193         60.8619         11.7916         70.9972 
        1.71806         60.4335         11.6936         70.4813 
        1.72421         60.2504         11.5965         70.1385 
        1.73035         59.8969         11.5006         70.0587 
        1.73649         59.5784         11.4058         69.9318 
        1.74262         59.3407         11.3122         69.3519 
        1.74876         59.2364         11.2195         69.0307 
        1.75489         58.6523         11.1281         68.8818 
        1.76101         58.5256         11.0378          68.593 
        1.76715          58.118         10.9483         68.2858 
        1.77329         57.8407         10.8598         68.0441 
        1.77943         57.6709         10.7721         67.8009 
        1.78557         57.4086         10.6856         67.4948 
        1.79171         56.9775         10.6001         67.2023 
        1.79785         56.7278         10.5154         67.0004 
        1.80399         56.3888         10.4317          66.835 
        1.81012         56.2243          10.349         66.3947 
        1.81625         55.7779         10.2673         66.0309 
        1.82239         55.6002         10.1864         65.9372 
        1.82853         55.1947         10.1063         65.7989 
        1.83466         55.0162         10.0272         65.4637 
        1.84078         54.5885         9.94904         65.1045 
        1.84692         54.4188         9.87159         65.0065 
        1.85306         54.1158         9.79487         64.7871 
         1.8592         53.8787         9.71909         64.4628 
        1.86533         53.5234         9.64416         64.2911 
        1.87147         53.3514         9.56994         64.0472 
