# k  (h/Mpc)    Pcb(k)  (Mpc/h)^3    Pcb_linear(k) (Mpc/h)^3    Pcb_NL(k) (Mpc/h)^3   ShotnoiseSubtracted = false
     0.00783031         2257.85         2279.77         2278.65 
       0.013688         3051.41          3048.2         3037.39 
       0.019231         3293.08         3292.86          3275.3 
      0.0249154         3205.14         3234.42         3219.62 
      0.0312784         2964.16          2975.6         2964.35 
      0.0375637         2663.56         2661.67         2651.24 
      0.0433917         2380.03         2395.77         2386.06 
      0.0492413         2178.68         2183.02         2173.61 
      0.0555754         1991.75         2013.65         2003.67 
      0.0619321          1892.7         1887.42         1876.88 
       0.067871         1768.21         1785.32         1774.11 
      0.0738098         1661.19         1679.94         1665.46 
      0.0800417         1530.18         1556.12         1542.17 
      0.0862327         1404.73         1421.39         1411.07 
      0.0921407         1282.41         1291.17         1281.86 
      0.0982031         1155.62         1167.49         1162.59 
       0.104506         1062.73         1059.23         1057.93 
       0.110769          979.23         976.204         973.054 
       0.116806         913.553         917.456         914.241 
       0.122832         875.381         873.834         871.705 
       0.129052         829.649          836.65         834.494 
       0.135211         792.742         800.283         798.345 
       0.141259         758.691         760.357         759.874 
       0.147318         717.567          715.01         717.004 
       0.153489         664.309         665.317          664.97 
       0.159709         619.499         615.624         618.361 
       0.165845         583.857         571.004         578.813 
       0.171974         542.052          533.52         541.333 
       0.178125         513.988          503.83         515.195 
       0.184229         493.694         481.249           492.8 
        0.19034         467.107         463.327         474.699 
       0.196428         457.425         447.506         456.497 
       0.202534          445.28         431.365         441.165 
       0.208729         424.494         413.263         422.489 
       0.214876         401.423         393.335         406.159 
       0.220989         387.831         372.354         386.584 
       0.227147         362.471         351.407         366.004 
        0.23329         345.307         332.067         349.797 
       0.239377         332.771         315.387         334.684 
       0.245482         313.698         301.455          319.32 
       0.251667         307.536         289.893         309.518 
       0.257832         297.673         280.178         299.583 
       0.263955         288.043         271.406         290.214 
       0.270079         279.444         262.674         281.026 
        0.27624         273.779         253.425         271.083 
       0.282372         263.084         243.621          262.08 
        0.28843         252.607         233.568         252.298 
       0.294538         242.439         223.498         243.536 
       0.300721         237.149         213.843         235.446 
        0.30691         226.258         205.093         227.351 
       0.313033         219.658         197.481         219.333 
       0.319153         210.147         190.865         213.781 
       0.325316          206.61          184.96         208.719 
        0.33145         199.994         179.541         202.041 
       0.337538         196.408         174.312         196.404 
       0.343633         190.342         169.034         191.767 
       0.349808         184.998         163.558         186.821 
       0.355968         180.428         158.009         182.521 
       0.362074         175.032         152.556         176.851 
       0.368217         170.298         147.269         170.587 
       0.374374         165.261         142.312         166.668 
       0.380519         161.248         137.769         161.917 
       0.386598         157.128          133.68         158.056 
       0.392688         154.414         129.925         154.743 
        0.39888          150.41          126.35         150.512 
       0.405048         147.338         122.937         147.409 
       0.411186          144.31         119.598         144.771 
       0.417313         140.177         116.273         140.372 
       0.423458         137.156         112.958         137.423 
       0.429607         133.614         109.683         134.078 
       0.435692         129.524         106.531         131.324 
       0.441815         128.214         103.502         129.309 
       0.447964         126.213         100.629         125.932 
       0.454126          121.09         97.9262         122.825 
       0.460267         119.345         95.4005         120.965 
       0.466387         116.777         93.0183         118.191 
        0.47254         115.137         90.7174          116.15 
       0.478662         113.332         88.4932         113.741 
       0.484765         110.531         86.3238         111.143 
       0.490885          108.37         84.1837         109.667 
       0.497035         106.919           82.07         107.864 
       0.503198         104.263         80.0074         105.341 
       0.509342         101.883         78.0221         103.674 
       0.515458         100.302         76.1247         102.505 
       0.521598         99.0061         74.3011         99.7802 
       0.527764         97.2709         72.5527         97.4754 
       0.533884         95.5695         70.8944         96.0133 
           0.54         93.9708         69.3001          94.497 
       0.546137         92.8111          67.749         93.3417 
       0.552299         91.5289         66.2302         91.2814 
       0.558452         89.0023         64.7506          89.624 
       0.564573         87.5645         63.3149         88.6342 
       0.570708         86.6837         61.9127         87.1407 
       0.576825         84.8458         60.5528         85.7088 
       0.582926         83.4404         59.2373         84.3726 
       0.589034         81.4753          57.964         83.3318 
       0.595184         80.6049          56.728         81.8655 
       0.601379         79.6926         55.5285         80.8874 
       0.607522         77.8499         54.3784         79.1839 
       0.613639         77.6293         53.2671         78.1904 
       0.619772         75.6753         52.1826         76.9758 
       0.625918         75.3337         51.1228         76.2802 
       0.632068         74.2258         50.0893         74.7964 
       0.638161         73.0311         49.0923         73.9095 
         0.6443         71.8746         48.1148         72.6263 
       0.650464         70.8017         47.1607         71.6447 
       0.656582         70.2925         46.2402         70.9113 
       0.662703         68.9316         45.3449         69.6591 
       0.668861         68.0962         44.4692         68.9478 
       0.675024         67.1113         43.6172         67.8619 
       0.681124         66.0523         42.7974         66.9369 
       0.687237         65.0282          41.998         65.9893 
       0.693381         64.5171         41.2161         65.1361 
       0.699536         63.2557         40.4531         64.6215 
       0.705665         63.3971         39.7128         63.8867 
       0.711789          61.878         38.9914         62.6616 
       0.717957          61.334         38.2826         62.1587 
        0.72409         60.4558         37.5951         61.5924 
       0.730186         59.6113         36.9286         60.6822 
       0.736317         59.2559         36.2746         59.8825 
       0.742472         58.2449         35.6343         59.3278 
       0.748622         57.8244         35.0105         58.4535 
        0.75476         57.0103         34.4034         57.8513 
       0.760888         56.2868         33.8122         57.2403 
       0.767043         55.7024         33.2329         56.7601 
       0.773185         54.9054         32.6688         56.1023 
       0.779291         54.6375         32.1212         55.5455 
       0.785407         54.0742         31.5857         54.8086 
       0.791564         53.1361         31.0591         54.1823 
       0.797719         52.3149         30.5449         53.6643 
       0.803834         52.2302         30.0457         53.0085 
       0.809972         51.5569          29.556          52.559 
       0.816124         50.5457         29.0762         51.9564 
       0.822261         50.4291         28.6085         51.2672 
       0.828378         49.9156         28.1526         50.6872 
       0.834502         49.3288         27.7063         50.5369 
       0.840667         48.9022          27.267         49.8185 
       0.846816         48.2113         26.8385         49.3878 
       0.852925         47.8301         26.4221         49.1785 
       0.859047          47.221         26.0138         48.3715 
       0.865192         46.9321         25.6129         47.9467 
       0.871341         46.6611         25.2203         47.5886 
       0.877463         45.7729         24.8379         47.0903 
       0.883569         45.3944         24.4644         46.7828 
       0.889708         45.0256         24.0969         46.1713 
       0.895864         44.6655          23.736         45.7486 
       0.902008         44.3204         23.3834         45.3846 
       0.908149         43.9045         23.0382         45.0385 
       0.914301         43.6924         22.6996         44.7478 
       0.920448         42.8425         22.3682          44.188 
       0.926574         42.6916         22.0446         43.7253 
       0.932687         42.2336         21.7282         43.3864 
       0.938823         41.7385          21.417         43.0006 
       0.944975         41.4582         21.1112          42.554 
       0.951105         41.1571         20.8125         42.2199 
       0.957225         40.6774         20.5203         41.9265 
       0.963368         40.3987         20.2327          41.504 
       0.969511         40.1239         19.9507         41.1933 
       0.975621         39.8395         19.6756         40.8766 
       0.981748         39.3228         19.4051         40.6016 
       0.987916         39.1076          19.138         40.1561 
        0.99406         38.7447          18.877         39.8841 
        1.00019         38.2634         18.6215         39.5539 
        1.00632         38.1878         18.3709         39.3121 
        1.01246         37.8187         18.1247         39.0528 
        1.01859         37.3694         17.8834         38.6754 
        1.02471         37.3181         17.6469         38.3625 
        1.03085         36.9432         17.4139         38.0809 
        1.03698         36.4083         17.1856         37.7633 
        1.04314         36.1812         16.9605         37.3865 
        1.04929          35.901           16.74         37.2082 
        1.05541          35.569         16.5244          37.024 
        1.06154         35.3725         16.3121         36.5863 
        1.06769         35.1417         16.1032         36.3285 
        1.07382         34.8296         15.8987         36.1525 
        1.07993         34.6918         15.6983         35.8194 
        1.08607         34.2685         15.5005         35.5573 
        1.09222         34.0796          15.306         35.3674 
        1.09836         33.6804          15.115         35.0808 
        1.10449         33.6101         14.9276         34.7862 
        1.11063         33.1887         14.7432         34.6358 
        1.11677         33.0832         14.5621         34.3296 
         1.1229          32.938         14.3843         34.0867 
        1.12903         32.5117         14.2093         33.8988 
        1.13518         32.2501         14.0372         33.5669 
        1.14131         32.1648          13.868         33.3726 
        1.14745         31.9305         13.7018         33.1798 
        1.15359         31.7271         13.5382         32.9725 
        1.15973         31.4107         13.3773         32.7543 
        1.16584         31.1039         13.2198         32.5926 
        1.17197         31.1276         13.0646         32.3515 
        1.17811         30.7364         12.9115         32.0283 
        1.18424         30.4665         12.7612         31.8982 
        1.19038         30.4025          12.613          31.727 
        1.19652         30.1724         12.4672         31.4479 
        1.20267         29.9374         12.3237         31.2728 
        1.20881         29.8244         12.1825         31.1532 
        1.21495         29.5806         12.0438         30.9659 
        1.22108         29.3378         11.9073         30.7126 
         1.2272         29.0567         11.7733         30.5166 
        1.23334         28.9083          11.641         30.3936 
        1.23949         28.6862         11.5105         30.1404 
        1.24562          28.645         11.3823          29.954 
        1.25174         28.4528         11.2564         29.8112 
        1.25789         28.2957         11.1319         29.6078 
        1.26402         28.1309         11.0096         29.3997 
        1.27014         27.8727         10.8894         29.2563 
        1.27628         27.6108         10.7707         29.0601 
        1.28244         27.5606         10.6535         28.9919 
        1.28858         27.4265         10.5383         28.7275 
        1.29471          27.164          10.425         28.5536 
        1.30084         26.9824         10.3135         28.4823 
        1.30697         26.8344         10.2035          28.255 
        1.31312         26.5976         10.0949         28.0718 
        1.31925         26.4557         9.98834         27.9845 
        1.32537         26.3953         9.88338         27.8583 
        1.33151         26.1428         9.77958          27.653 
        1.33765          26.028         9.67734         27.5027 
        1.34378         25.9291         9.57678          27.374 
        1.34992         25.6068         9.47759         27.2188 
        1.35606         25.5756         9.37961         27.0339 
         1.3622         25.4492          9.2832         26.9094 
        1.36833         25.2517         9.18839         26.8071 
        1.37445         25.1546         9.09496          26.599 
        1.38059         25.0318         9.00256         26.4254 
        1.38675         24.7801         8.91123         26.3335 
        1.39288         24.6839         8.82155         26.1793 
        1.39901         24.4835         8.73315         26.0659 
        1.40515         24.4012         8.64577         25.9447 
         1.4113         24.2594         8.55963         25.8191 
        1.41742         24.0808         8.47501         25.6794 
        1.42355              24         8.39138         25.4761 
         1.4297         23.8341         8.30864         25.4044 
        1.43585         23.7699         8.22706         25.3119 
        1.44198         23.5318         8.14689          25.155 
        1.44809         23.4764         8.06796         25.0543 
        1.45423         23.3265         7.98979         24.9109 
        1.46036         23.2502          7.9128          24.755 
        1.46649         23.1142         7.83681         24.6293 
        1.47263         22.9261         7.76177         24.5501 
        1.47877         22.8366         7.68775          24.478 
        1.48491         22.7035         7.61459         24.2583 
        1.49104         22.6379         7.54254          24.181 
        1.49718         22.4562         7.47138         24.0871 
        1.50333         22.3423         7.40103         23.9695 
        1.50947         22.2597         7.33174         23.8687 
         1.5156         22.0958         7.26345         23.7464 
        1.52172         21.9318         7.19603          23.597 
        1.52787         21.8625         7.12933         23.4798 
          1.534         21.7616         7.06357         23.3819 
        1.54013         21.6095         6.99872         23.2201 
        1.54627         21.5052         6.93456         23.1108 
        1.55241          21.382         6.87121          23.068 
        1.55855          21.317         6.80874          22.962 
        1.56467         21.2013         6.74723         22.8302 
         1.5708         21.1325         6.68631          22.763 
        1.57695         20.9313         6.62606         22.6698 
        1.58308          20.887          6.5667         22.5473 
        1.58922         20.7747         6.50802         22.4794 
        1.59535         20.6711         6.45009         22.3697 
         1.6015         20.5312          6.3928         22.2566 
        1.60764         20.4772         6.33623         22.1462 
        1.61376         20.4099         6.28051         22.0318 
        1.61989         20.2056         6.22541         21.9635 
        1.62604         20.2052         6.17087         21.9092 
        1.63218          20.053         6.11701          21.795 
        1.63831         19.9815         6.06393         21.6672 
        1.64444         19.8388         6.01146         21.6093 
        1.65059         19.7637         5.95949         21.4895 
        1.65673         19.6826         5.90819         21.4139 
        1.66285         19.5395         5.85765         21.3452 
        1.66898         19.4879         5.80769          21.222 
        1.67512          19.403         5.75822         21.1251 
        1.68127         19.2506         5.70928         21.0232 
         1.6874         19.1889         5.66102         20.9258 
        1.69353         19.1435         5.61336         20.8637 
        1.69967         18.9868         5.56613         20.7982 
        1.70581         18.8625         5.51947         20.7274 
        1.71193         18.8055         5.47353         20.6374 
        1.71806         18.7656         5.42802         20.5207 
        1.72421         18.6389         5.38294         20.4622 
        1.73035         18.5952         5.33842         20.3688 
        1.73649         18.4862         5.29442         20.2424 
        1.74262          18.411         5.25096         20.2232 
        1.74876          18.315         5.20796         20.1407 
        1.75489         18.2436         5.16554         20.0144 
        1.76101         18.1195          5.1236         19.9313 
        1.76715         18.1187         5.08208         19.8777 
        1.77329         18.0084         5.04096         19.7873 
        1.77943         17.8833         5.00029         19.7074 
        1.78557         17.8121         4.96013         19.6788 
        1.79171         17.7642         4.92041         19.5883 
        1.79785         17.6721         4.88112         19.4798 
        1.80399         17.5949         4.84227         19.4325 
        1.81012         17.4985          4.8039         19.3499 
        1.81625         17.4089         4.76596         19.2812 
        1.82239         17.3574         4.72838         19.2344 
        1.82853         17.2145         4.69122         19.1291 
        1.83466         17.1855          4.6545         19.0468 
        1.84078         17.0624         4.61822         18.9946 
        1.84692           17.03         4.58227         18.9059 
        1.85306         16.9534         4.54665         18.8376 
         1.8592         16.8848         4.51148         18.7855 
        1.86533         16.8116          4.4767         18.7076 
        1.87147         16.7264         4.44225         18.6423 
