# k  (h/Mpc)    Pcb(k)  (Mpc/h)^3    Pcb_linear(k) (Mpc/h)^3    Pcb_NL(k) (Mpc/h)^3   ShotnoiseSubtracted = false
     0.00783031         9856.37         9984.77         9975.23 
       0.013688         13434.1         13346.5         13273.4 
       0.019231         14407.8         14415.8         14290.6 
      0.0249154         13868.2         14158.7         14010.5 
      0.0312784         12847.7           13025         12852.2 
      0.0375637         11578.2         11650.4         11469.9 
      0.0433917           10237         10486.3         10286.8 
      0.0492413         9413.04         9554.94         9352.19 
      0.0555754         8488.29         8813.47         8610.77 
      0.0619321         8178.19         8260.88         8050.72 
       0.067871         7522.08         7813.96         7605.77 
      0.0738098         7061.05         7352.67         7090.71 
      0.0800417         6448.98         6810.72         6556.66 
      0.0862327         5951.89         6221.03         6026.32 
      0.0921407         5482.63         5651.07          5468.4 
      0.0982031         4939.03         5109.73         4995.71 
       0.104506         4613.95         4635.89         4580.16 
       0.110769          4256.4         4272.52          4193.4 
       0.116806         3981.33         4015.39         3937.02 
       0.122832         3807.37         3824.47         3762.95 
       0.129052         3566.82         3661.72         3604.32 
       0.135211         3414.44         3502.55         3444.76 
       0.141259         3290.49         3327.81         3298.82 
       0.147318         3124.18         3129.34         3127.52 
       0.153489         2883.31         2911.84         2884.01 
       0.159709         2730.39         2694.36         2711.56 
       0.165845          2621.7         2499.07         2583.77 
       0.171974          2460.1         2335.01         2431.07 
       0.178125         2337.49         2205.07         2350.23 
       0.184229         2246.55         2106.24         2243.54 
        0.19034         2121.13          2027.8          2168.6 
       0.196428         2093.55         1958.56          2082.2 
       0.202534         2027.93         1887.91         2023.18 
       0.208729         1945.08         1808.69         1929.59 
       0.214876         1862.15         1721.47         1880.61 
       0.220989         1808.39         1629.65         1813.48 
       0.227147         1721.64         1537.97         1739.43 
        0.23329         1655.46         1453.33         1685.33 
       0.239377         1630.48         1380.32         1621.89 
       0.245482         1529.69         1319.35         1552.22 
       0.251667         1521.53         1268.74         1520.55 
       0.257832         1466.98         1226.23         1476.35 
       0.263955         1422.49         1187.83         1437.13 
       0.270079         1379.34         1149.62         1399.32 
        0.27624         1367.43         1109.14         1357.78 
       0.282372         1309.37         1066.23          1325.4 
        0.28843         1299.02         1022.23         1288.69 
       0.294538         1237.64         978.159         1254.31 
       0.300721         1233.68         935.903          1218.7 
        0.30691         1182.52         897.609         1198.49 
       0.313033         1161.25         864.295         1162.57 
       0.319153         1140.52         835.339         1133.94 
       0.325316         1104.09         809.492         1118.67 
        0.33145         1079.62         785.777         1081.55 
       0.337538         1066.24         762.893         1063.79 
       0.343633         1039.38         739.794          1052.2 
       0.349808         1007.41         715.825         1032.73 
       0.355968         1002.21          691.54         1014.51 
       0.362074         989.452         667.675         992.204 
       0.368217          961.67         644.534          965.58 
       0.374374         925.165         622.842         949.385 
       0.380519          923.85          602.96         930.553 
       0.386598         903.185         585.062          918.67 
       0.392688         900.019         568.627          898.16 
        0.39888          874.41         552.983         887.398 
       0.405048         862.747         538.044         877.277 
       0.411186         849.883          523.43         856.936 
       0.417313         833.621          508.88         842.466 
       0.423458         821.281         494.372          830.07 
       0.429607         807.527         480.036         813.212 
       0.435692           791.5         466.242         799.687 
       0.441815         787.753         452.983         795.636 
       0.447964         770.555         440.412         782.512 
       0.454126         758.413         428.582         763.878 
       0.460267          745.34         417.528         762.096 
       0.466387         737.173         407.102         747.687 
        0.47254         726.382         397.032         739.659 
       0.478662          723.46         387.298         728.392 
       0.484765         704.659         377.803         716.848 
       0.490885         699.109         368.437         706.295 
       0.497035         685.239         359.186         699.945 
       0.503198         679.215         350.159         690.597 
       0.509342         672.274          341.47         681.217 
       0.515458         668.154         333.166          677.57 
       0.521598         654.243         325.185         668.355 
       0.527764         639.978         317.533         660.407 
       0.533884          640.25         310.275         653.002 
           0.54         632.062         303.297         645.186 
       0.546137         629.123         296.509         637.573 
       0.552299         618.649         289.862          629.26 
       0.558452         615.574         283.386         624.087 
       0.564573         605.695         277.103         618.749 
       0.570708         599.081         270.966         613.438 
       0.576825         584.569         265.014         603.548 
       0.582926         585.639         259.257          597.61 
       0.589034         580.137         253.684         589.175 
       0.595184         574.277         248.275         584.209 
       0.601379         567.825         243.025         579.827 
       0.607522         559.984         237.992         573.055 
       0.613639         559.938         233.128         569.406 
       0.619772         544.958         228.381         567.971 
       0.625918         543.939         223.743         560.496 
       0.632068         536.788          219.22         554.803 
       0.638161         534.824         214.856         547.422 
         0.6443         524.277         210.578         544.786 
       0.650464         522.327         206.403         536.112 
       0.656582          520.95         202.374         531.864 
       0.662703         516.791         198.455         530.091 
       0.668861         507.458         194.623         526.023 
       0.675024          503.78         190.894           521.6 
       0.681124         501.169         187.306         513.559 
       0.687237         496.266         183.808         509.422 
       0.693381         490.319         180.386         505.531 
       0.699536         484.009         177.046         502.344 
       0.705665         482.486         173.806         497.699 
       0.711789         478.132         170.649         493.523 
       0.717957         473.838         167.547          491.05 
        0.72409          470.38         164.538         487.002 
       0.730186         465.143         161.621         483.137 
       0.736317           461.6         158.759         478.017 
       0.742472         459.923         155.957         473.875 
       0.748622         454.649         153.226         470.231 
        0.75476         449.355         150.569         470.012 
       0.760888         444.496         147.982         464.222 
       0.767043         445.097         145.446         460.662 
       0.773185         438.976         142.977         457.276 
       0.779291         433.964         140.581         453.257 
       0.785407         431.412         138.237          450.73 
       0.791564         426.831         135.933         447.978 
       0.797719         424.429         133.682         443.988 
       0.803834         421.011         131.498         441.689 
       0.809972         418.469         129.354         438.676 
       0.816124         418.481         127.254         432.982 
       0.822261         411.443         125.207         431.016 
       0.828378         409.545         123.212         428.014 
       0.834502         406.547         121.259         426.141 
       0.840667         401.499         119.336         422.936 
       0.846816         400.107         117.461          420.21 
       0.852925          396.17         115.639         417.225 
       0.859047         395.724         113.852         414.157 
       0.865192         391.615         112.097         411.466 
       0.871341         388.342         110.379         408.989 
       0.877463         385.861         108.705         406.321 
       0.883569         383.037          107.07         403.909 
       0.889708          380.15         105.462         400.445 
       0.895864         376.028         103.882         398.232 
       0.902008         374.966         102.339         395.656 
       0.908149         372.452         100.829         392.065 
       0.914301         368.104         99.3465         390.055 
       0.920448         365.218          97.896         386.674 
       0.926574         361.879         96.4799         384.537 
       0.932687         362.232         95.0951         381.501 
       0.938823          357.37          93.733         381.071 
       0.944975         357.012         92.3947         378.374 
       0.951105         353.241         91.0877         375.243 
       0.957225         350.503         89.8085         373.318 
       0.963368         346.555         88.5499         370.607 
       0.969511          344.81         87.3156         368.056 
       0.975621         342.145         86.1118         366.728 
       0.981748         342.041         84.9279         364.124 
       0.987916           338.7          83.759         362.631 
        0.99406         333.831         82.6167         360.363 
        1.00019         333.844         81.4983         356.704 
        1.00632         331.456         80.4018         354.686 
        1.01246         328.412         79.3242           352.5 
        1.01859         328.521         78.2682         350.355 
        1.02471         324.226          77.233         349.094 
        1.03085         321.335         76.2132         347.436 
        1.03698         320.594         75.2142         345.641 
        1.04314         317.588         74.2291         343.032 
        1.04929         314.992         73.2641         340.482 
        1.05541         314.174         72.3203          338.47 
        1.06154         310.281          71.391         336.554 
        1.06769         308.967         70.4769         334.616 
        1.07382         307.219         69.5819         332.423 
        1.07993         304.959         68.7046             331 
        1.08607         304.082         67.8391         328.756 
        1.09222         301.381         66.9877         326.637 
        1.09836         298.782         66.1521         325.835 
        1.10449         295.898         65.3319         323.536 
        1.11063         293.736         64.5249         321.464 
        1.11677         293.098         63.7319         319.615 
         1.1229          291.23         62.9538         318.304 
        1.12903         288.679         62.1882         316.643 
        1.13518          286.67         61.4348         314.474 
        1.14131         284.925         60.6945         312.917 
        1.14745         283.997         59.9669         311.074 
        1.15359         281.267         59.2512         309.323 
        1.15973         280.241          58.547         307.506 
        1.16584         277.352         57.8575         305.056 
        1.17197         276.873         57.1783         304.014 
        1.17811         274.231          56.508          302.81 
        1.18424         272.277         55.8506         301.329 
        1.19038         271.087         55.2018         299.606 
        1.19652         268.942         54.5636         298.233 
        1.20267         268.116         53.9357          295.59 
        1.20881         265.991         53.3178         294.835 
        1.21495          263.75         52.7108         292.522 
        1.22108         262.624         52.1134         290.902 
         1.2272         260.704         51.5267         288.682 
        1.23334         258.817         50.9478         287.558 
        1.23949         257.583         50.3765          287.01 
        1.24562         256.002         49.8157         285.043 
        1.25174         253.055         49.2643         283.905 
        1.25789          251.53         48.7196         282.238 
        1.26402         250.588         48.1843         280.561 
        1.27014         248.703         47.6583         279.268 
        1.27628         247.266         47.1387          278.31 
        1.28244         246.506         46.6259         276.622 
        1.28858         244.128         46.1215         274.941 
        1.29471         241.871         45.6258          272.95 
        1.30084         240.817         45.1378         271.719 
        1.30697          239.12         44.6564         270.775 
        1.31312         237.383         44.1813         268.979 
        1.31925         237.116         43.7147         267.155 
        1.32537         235.463         43.2554         266.171 
        1.33151         233.272         42.8011         264.985 
        1.33765         231.733         42.3536         263.276 
        1.34378         230.751         41.9135         262.078 
        1.34992         229.275         41.4794         260.349 
        1.35606         228.634         41.0506         258.834 
         1.3622         226.813         40.6286         257.717 
        1.36833         224.722         40.2137         256.762 
        1.37445         223.119         39.8048         254.722 
        1.38059         221.556         39.4004          254.03 
        1.38675         220.604         39.0007         252.849 
        1.39288         218.746         38.6082          250.49 
        1.39901         218.545         38.2213         249.902 
        1.40515         216.618         37.8389         248.872 
         1.4113         214.757         37.4619         247.144 
        1.41742         214.066         37.0915          245.94 
        1.42355         211.801         36.7255         245.095 
         1.4297         210.839         36.3634         243.736 
        1.43585          209.21         36.0063         242.577 
        1.44198         208.092         35.6555         241.143 
        1.44809         207.308           35.31         239.976 
        1.45423         205.258         34.9679         238.518 
        1.46036         204.737          34.631         237.355 
        1.46649         202.952         34.2984         236.666 
        1.47263          201.56           33.97         235.861 
        1.47877         200.613          33.646         234.153 
        1.48491         199.033         33.3258         232.917 
        1.49104         198.238         33.0105         232.022 
        1.49718         196.069         32.6991         230.574 
        1.50333         195.294         32.3912         229.655 
        1.50947         194.273         32.0879         228.722 
         1.5156         192.663          31.789         227.341 
        1.52172         191.625         31.4939          225.93 
        1.52787         190.222         31.2021         225.081 
          1.534         189.633         30.9143         223.888 
        1.54013         187.739         30.6304         222.842 
        1.54627         187.262         30.3496         221.967 
        1.55241         185.458         30.0724         220.773 
        1.55855         184.431          29.799         219.492 
        1.56467         183.322         29.5298         218.434 
         1.5708         182.573         29.2631         217.631 
        1.57695         180.703         28.9994         216.603 
        1.58308         180.353         28.7396         215.403 
        1.58922         178.802         28.4828         214.386 
        1.59535         177.459         28.2293         213.365 
         1.6015         176.981         27.9786         212.153 
        1.60764         175.476          27.731         211.033 
        1.61376         174.012         27.4871         210.276 
        1.61989         173.185          27.246         209.476 
        1.62604         172.336         27.0072         208.452 
        1.63218         171.157         26.7715         207.438 
        1.63831         170.114         26.5392         206.379 
        1.64444         169.174         26.3096         205.219 
        1.65059         167.987         26.0821         204.534 
        1.65673         166.987         25.8576         203.488 
        1.66285          166.13         25.6364         202.305 
        1.66898          165.14         25.4178         201.469 
        1.67512         164.366         25.2013         200.569 
        1.68127         162.695         24.9871         199.715 
         1.6874         161.396         24.7759          198.99 
        1.69353         161.025         24.5673         198.198 
        1.69967         159.832         24.3606          196.94 
        1.70581         158.855         24.1564         195.925 
        1.71193         157.668         23.9553         195.086 
        1.71806         157.065         23.7561          193.81 
        1.72421         155.979         23.5588         193.118 
        1.73035         154.982          23.364         192.368 
        1.73649         154.383         23.1714         191.302 
        1.74262         153.014         22.9812         190.692 
        1.74876         152.453          22.793         189.837 
        1.75489         150.959         22.6074         188.811 
        1.76101         150.285         22.4238         187.935 
        1.76715         149.556         22.2421         187.056 
        1.77329         148.847         22.0621         186.075 
        1.77943         147.543         21.8841         185.122 
        1.78557         146.709         21.7084         184.343 
        1.79171         145.804         21.5345          183.69 
        1.79785         144.849         21.3626         182.911 
        1.80399         144.084         21.1925         181.877 
        1.81012         143.137         21.0246         181.029 
        1.81625         142.374         20.8586         180.376 
        1.82239         141.566         20.6941         179.662 
        1.82853         140.891         20.5315         178.774 
        1.83466          139.88         20.3708         177.776 
        1.84078         139.127          20.212         176.903 
        1.84692         137.985         20.0546         176.337 
        1.85306         137.444         19.8988         175.527 
         1.8592         136.176         19.7448          174.68 
        1.86533         135.444         19.5926         174.173 
        1.87147         134.587         19.4418         173.388 
