# k  (h/Mpc)    Pcb(k)  (Mpc/h)^3    Pcb_linear(k) (Mpc/h)^3    Pcb_NL(k) (Mpc/h)^3   ShotnoiseSubtracted = false
     0.00783031         9106.19          9222.4         9214.21 
       0.013688         12404.4           12328         12262.9 
       0.019231         13310.2         13315.8         13204.6 
      0.0249154         12823.1         13078.5         12949.1 
      0.0312784         11878.8         12031.3         11882.7 
      0.0375637         10702.9         10761.6         10606.7 
      0.0433917         9470.94         9686.36         9515.73 
      0.0492413          8705.9         8826.05         8652.82 
      0.0555754          7859.4         8141.16         7967.65 
      0.0619321         7565.21         7630.73         7450.63 
       0.067871         6966.65         7217.91         7039.17 
      0.0738098         6539.79         6791.81         6566.75 
      0.0800417         5976.89          6291.2          6072.8 
      0.0862327         5514.02         5746.49         5579.28 
      0.0921407         5075.44         5220.01         5062.96 
      0.0982031         4571.43         4719.96         4622.42 
       0.104506         4265.91         4282.27         4235.02 
       0.110769         3934.62         3946.61         3878.47 
       0.116806         3678.43          3709.1         3641.68 
       0.122832         3519.04         3532.74         3479.98 
       0.129052         3299.15         3382.41         3332.96 
       0.135211          3158.1         3235.38         3185.95 
       0.141259         3041.79         3073.97         3049.16 
       0.147318          2886.9         2890.64         2890.13 
       0.153489         2664.64         2689.73         2665.78 
       0.159709         2520.94         2488.84         2504.17 
       0.165845          2416.8         2308.44         2383.09 
       0.171974         2265.95          2156.9         2240.74 
       0.178125         2152.51         2036.87         2163.88 
       0.184229         2069.61         1945.58         2066.28 
        0.19034         1951.68         1873.12         1996.54 
       0.196428         1926.72         1809.16         1916.39 
       0.202534         1867.89         1743.91         1861.32 
       0.208729         1790.11         1670.72         1775.64 
       0.214876         1711.06         1590.16         1729.66 
       0.220989         1662.03         1505.34         1666.12 
       0.227147         1579.37         1420.66            1596 
        0.23329            1518         1342.47         1545.61 
       0.239377          1493.2         1275.03         1487.17 
       0.245482         1399.98         1218.71         1422.42 
       0.251667         1391.64         1171.97         1392.76 
       0.257832         1342.31         1132.69         1351.79 
       0.263955         1301.69         1097.23         1315.14 
       0.270079         1262.08         1061.93         1280.06 
        0.27624          1251.1         1024.54         1241.44 
       0.282372         1197.82         984.903         1210.29 
        0.28843         1185.08          944.26         1175.33 
       0.294538         1128.96         903.548         1144.09 
       0.300721         1125.46         864.515         1111.91 
        0.30691          1077.6         829.142         1092.07 
       0.313033         1058.18         798.369         1058.68 
       0.319153         1036.99         771.621         1032.92 
       0.325316         1004.45         747.746         1018.32 
        0.33145         981.427          725.84          984.36 
       0.337538         969.859         704.701         967.207 
       0.343633         944.143         683.365         956.508 
       0.349808         914.995         661.224         938.399 
       0.355968         910.265         638.791         921.365 
       0.362074          897.48         616.747         900.577 
       0.368217         872.693         595.371          875.68 
       0.374374         839.011         575.333         860.649 
       0.380519          836.57         556.968         843.104 
       0.386598         818.177         540.435          832.08 
       0.392688         815.336         525.254         813.333 
        0.39888         791.916         510.803         803.039 
       0.405048         780.552         497.003         794.228 
       0.411186         768.369         483.504         775.026 
       0.417313         754.086         470.064         760.838 
       0.423458         742.796         456.663         749.778 
       0.429607         729.597          443.42         734.319 
       0.435692         714.755         430.679         722.053 
       0.441815         711.288         418.431         717.797 
       0.447964         696.081         406.819         705.552 
       0.454126         682.763         395.891         689.021 
       0.460267         672.091          385.68         686.874 
       0.466387         664.896         376.049         673.849 
        0.47254         653.784         366.748         666.515 
       0.478662          651.87         357.756         655.701 
       0.484765         634.499         348.985         644.477 
       0.490885         629.092         340.334         635.573 
       0.497035         617.065         331.789         629.681 
       0.503198         610.342          323.45         620.832 
       0.509342         604.602         315.424         612.983 
       0.515458         600.345         307.753         609.424 
       0.521598         588.266         300.381         600.169 
       0.527764         575.605         293.312         592.732 
       0.533884         575.112         286.608         586.118 
           0.54         567.716         280.163         578.877 
       0.546137           565.4         273.892         572.142 
       0.552299         555.413         267.752         564.706 
       0.558452         552.468          261.77         559.741 
       0.564573         543.478         255.966         554.977 
       0.570708         536.881         250.297         550.229 
       0.576825          525.13           244.8         540.947 
       0.582926         524.886         239.482         535.366 
       0.589034         519.772         234.334         528.195 
       0.595184         514.759         229.337          523.01 
       0.601379         509.225         224.488         519.367 
       0.607522         501.843         219.838         513.541 
       0.613639         501.168         215.345         509.673 
       0.619772         487.783         210.961         507.978 
       0.625918         487.034         206.676         501.559 
       0.632068         480.473         202.498         495.693 
       0.638161         478.642         198.468         490.038 
         0.6443         469.329         194.516         487.213 
       0.650464         467.179         190.659         479.361 
       0.656582         466.076         186.937         475.393 
       0.662703         462.168         183.318         473.968 
       0.668861          453.91         179.778         469.844 
       0.675024         450.368         176.333         465.626 
       0.681124         448.158         173.019         458.784 
       0.687237          443.48         169.787         454.996 
       0.693381         437.929         166.626          451.48 
       0.699536         433.145         163.542         448.635 
       0.705665         431.096         160.549         444.677 
       0.711789         427.041         157.632         440.753 
       0.717957         423.382         154.767         438.208 
        0.72409         419.833         151.988         434.827 
       0.730186         415.516         149.293         431.349 
       0.736317         412.143         146.649         426.692 
       0.742472         410.665         144.061         422.893 
       0.748622         406.176         141.539         419.516 
        0.75476         401.925         139.084         418.965 
       0.760888         397.289         136.694         413.876 
       0.767043         397.617         134.352         411.065 
       0.773185         392.084         132.071         407.883 
       0.779291         386.959         129.858         404.207 
       0.785407         385.206         127.693         401.809 
       0.791564         381.243         125.564         399.136 
       0.797719         378.788         123.485         395.945 
       0.803834         375.819         121.467         393.609 
       0.809972         373.383         119.487          390.75 
       0.816124         373.634         117.548         386.215 
       0.822261         367.156         115.657         384.238 
       0.828378         365.474         113.814         381.394 
       0.834502         363.426          112.01         379.619 
       0.840667         358.303         110.233         376.786 
       0.846816         357.155         108.501         374.371 
       0.852925         353.911         106.818         371.517 
       0.859047         352.922         105.167         368.952 
       0.865192         349.603         103.547         366.638 
       0.871341          346.48         101.959         364.188 
       0.877463         344.132         100.413         361.943 
       0.883569         341.743         98.9034         359.831 
       0.889708         339.036         97.4174         356.723 
       0.895864         335.059         95.9586         354.713 
       0.902008         334.543         94.5331         352.219 
       0.908149         332.421         93.1377         349.096 
       0.914301         328.366         91.7687          347.56 
       0.920448         325.632         90.4288         344.251 
       0.926574         323.319         89.1207         342.381 
       0.932687         323.385         87.8416         339.528 
       0.938823          319.13         86.5833         339.164 
       0.944975         318.255         85.3471         337.073 
       0.951105          315.57         84.1398         334.392 
       0.957225         312.825         82.9582         332.223 
       0.963368         309.128         81.7956         329.652 
       0.969511         307.565         80.6555         327.587 
       0.975621         305.185         79.5435         326.684 
       0.981748         305.389         78.4498          324.27 
       0.987916         301.986         77.3701         322.762 
        0.99406         298.303          76.315         320.869 
        1.00019          298.35         75.2818         317.807 
        1.00632         295.926          74.269         315.688 
        1.01246         293.252         73.2735          313.76 
        1.01859         293.106         72.2981         312.209 
        1.02471         289.613         71.3419         310.949 
        1.03085         286.745         70.3999         309.206 
        1.03698         285.972         69.4771         307.658 
        1.04314         283.547         68.5671         305.376 
        1.04929         281.281         67.6757         303.114 
        1.05541         280.405         66.8039           301.4 
        1.06154         277.389         65.9455         299.734 
        1.06769         276.413         65.1011         298.137 
        1.07382         274.656         64.2744         296.065 
        1.07993         272.519          63.464         294.733 
        1.08607           271.6         62.6645         293.067 
        1.09222         269.399         61.8781         291.145 
        1.09836         266.899         61.1062         290.318 
        1.10449          264.43         60.3486         288.255 
        1.11063         262.567         59.6031         286.449 
        1.11677         262.005         58.8707         284.736 
         1.1229          260.08         58.1519         283.563 
        1.12903         258.145         57.4447         282.141 
        1.13518         256.538         56.7487         280.243 
        1.14131         254.768         56.0649         278.805 
        1.14745         254.122         55.3928         277.211 
        1.15359         251.603         54.7317         275.602 
        1.15973         250.909         54.0812          273.88 
        1.16584         248.022         53.4443         271.714 
        1.17197          247.64         52.8169          270.74 
        1.17811         245.403         52.1978         269.786 
        1.18424         243.842         51.5904         268.324 
        1.19038         242.878         50.9911         266.837 
        1.19652         241.064         50.4017          265.79 
        1.20267         240.018         49.8216         263.511 
        1.20881         238.091         49.2509         262.848 
        1.21495         236.273         48.6902         260.625 
        1.22108         235.419         48.1383         259.537 
         1.2272         233.503         47.5964         257.395 
        1.23334         231.963         47.0617         256.524 
        1.23949         230.523         46.5339         255.979 
        1.24562         229.354         46.0159         254.041 
        1.25174         226.549         45.5066         253.171 
        1.25789         225.417         45.0035          251.64 
        1.26402         224.504         44.5089         249.985 
        1.27014         222.866         44.0231         249.256 
        1.27628         221.636         43.5431         248.303 
        1.28244         220.996         43.0694          246.49 
        1.28858         218.937         42.6035         245.118 
        1.29471         216.864         42.1456         243.674 
        1.30084         215.783         41.6949          242.48 
        1.30697         214.367         41.2501         241.484 
        1.31312         213.134         40.8113          239.75 
        1.31925         212.423         40.3803         238.343 
        1.32537         211.025          39.956         237.611 
        1.33151         209.207         39.5363         236.436 
        1.33765         208.026          39.123         234.952 
        1.34378         206.904         38.7165         233.775 
        1.34992         205.655         38.3155         232.443 
        1.35606         204.821         37.9194         231.004 
         1.3622         203.426         37.5296         229.997 
        1.36833         201.645         37.1463         229.009 
        1.37445         199.997         36.7686         227.371 
        1.38059         199.037          36.395         226.727 
        1.38675         197.855         36.0258         225.528 
        1.39288         196.606         35.6632         223.734 
        1.39901         196.319         35.3059         223.204 
        1.40515          194.65         34.9526          222.33 
         1.4113         192.736         34.6044         220.876 
        1.41742         192.212         34.2623         219.808 
        1.42355           190.3         33.9242         219.198 
         1.4297         189.405         33.5897         217.831 
        1.43585         187.782         33.2599         216.669 
        1.44198         187.122         32.9358         215.544 
        1.44809         186.229         32.6167         214.391 
        1.45423         184.437         32.3006         213.299 
        1.46036         183.875         31.9894         212.262 
        1.46649         182.582         31.6822         211.572 
        1.47263         181.486         31.3788         210.919 
        1.47877         180.417         31.0796         209.497 
        1.48491         178.922         30.7838         208.397 
        1.49104         178.307         30.4926         207.633 
        1.49718         176.293         30.2049         206.122 
        1.50333          175.66         29.9205         205.272 
        1.50947          174.76         29.6403         204.449 
         1.5156         173.509         29.3642         203.329 
        1.52172         172.439         29.0917         202.329 
        1.52787         171.258         28.8221         201.375 
          1.534         170.681         28.5562         200.275 
        1.54013         168.897          28.294          199.44 
        1.54627         168.521         28.0347         198.653 
        1.55241         167.023         27.7785         197.583 
        1.55855         166.187          27.526         196.427 
        1.56467         165.248         27.2773         195.479 
         1.5708          164.22          27.031         194.954 
        1.57695         162.924         26.7875         194.012 
        1.58308         162.489         26.5475         192.758 
        1.58922         161.389         26.3103          191.94 
        1.59535         160.018         26.0761         191.045 
         1.6015         159.544         25.8444         190.024 
        1.60764         158.248         25.6157         189.102 
        1.61376           157.2         25.3905         188.413 
        1.61989         156.254         25.1677         187.712 
        1.62604         155.493         24.9472         186.728 
        1.63218         154.509         24.7295          185.77 
        1.63831         153.458         24.5149         184.861 
        1.64444         152.686         24.3028         183.855 
        1.65059          151.86         24.0927         183.246 
        1.65673         150.716         23.8853         182.329 
        1.66285         150.149          23.681         181.344 
        1.66898         149.177          23.479         180.687 
        1.67512         148.337          23.279         179.869 
        1.68127         147.131         23.0811          179.05 
         1.6874         145.684          22.886         178.369 
        1.69353          145.39         22.6933         177.671 
        1.69967         144.527         22.5024         176.561 
        1.70581         143.629         22.3138         175.671 
        1.71193         142.643         22.1281         174.952 
        1.71806         141.904         21.9441         173.842 
        1.72421         141.184         21.7618         173.173 
        1.73035         140.077         21.5819         172.514 
        1.73649         139.557          21.404         171.642 
        1.74262         138.558         21.2283         171.052 
        1.74876             138         21.0544          170.22 
        1.75489         136.567         20.8829         169.277 
        1.76101         136.134         20.7134         168.497 
        1.76715         135.123         20.5455         167.731 
        1.77329         134.626         20.3793         166.924 
        1.77943         133.538         20.2149         166.157 
        1.78557          132.79         20.0525         165.503 
        1.79171         132.024         19.8919         164.929 
        1.79785         131.194         19.7331         164.228 
        1.80399         130.453          19.576         163.292 
        1.81012         129.697         19.4209         162.482 
        1.81625         128.872         19.2675         161.892 
        1.82239         128.399         19.1156         161.293 
        1.82853         127.728         18.9654         160.491 
        1.83466         126.733         18.8169         159.622 
        1.84078         126.166         18.6703         158.896 
        1.84692         125.103         18.5249         158.399 
        1.85306         124.452         18.3809         157.677 
         1.8592         123.427         18.2387         156.937 
        1.86533         122.878         18.0981         156.443 
        1.87147         121.914         17.9588         155.569 
