# k  (h/Mpc)    P(k)  (Mpc/h)^3    P_linear(k)  (Mpc/h)^3     P_NL(k)  ShotnoiseSubtracted = false
     0.00783031         2523.27         2548.19         2546.96 
       0.013688         3411.81         3407.03         3394.74 
       0.019231         3680.86         3680.47          3660.4 
      0.0249154         3580.52         3615.13         3597.83 
      0.0312784         3311.82         3325.83         3312.11 
      0.0375637         2976.49         2974.95            2962 
      0.0433917         2658.22         2677.75         2665.37 
      0.0492413         2433.98         2439.96         2427.88 
      0.0555754         2223.66         2250.65         2237.95 
      0.0619321         2114.84         2109.56         2096.18 
       0.067871         1974.13         1995.45         1981.36 
      0.0738098         1854.54         1877.66         1859.53 
      0.0800417         1707.56         1739.27         1721.77 
      0.0862327         1568.03         1588.68         1575.68 
      0.0921407         1432.08         1443.14         1431.32 
      0.0982031         1290.31         1304.89         1298.54 
       0.104506         1187.66         1183.89         1182.01 
       0.110769         1094.37          1091.1         1086.92 
       0.116806         1020.83         1025.43         1021.22 
       0.122832         978.302         976.678         973.826 
       0.129052         926.559         935.119         932.264 
       0.135211         885.425          894.47         891.885 
       0.141259         847.745         849.847         849.091 
       0.147318         801.955         799.163         801.446 
       0.153489         742.248          743.62         743.002 
       0.159709         692.786         688.079         691.284 
       0.165845         653.547         638.207         647.681 
       0.171974         606.943         596.312         605.834 
       0.178125         575.635         563.127         577.057 
       0.184229         553.046         537.888         552.008 
        0.19034         522.777         517.857         531.778 
       0.196428         512.425         500.175         511.205 
       0.202534         498.892         482.133         494.178 
       0.208729          475.64           461.9         473.184 
       0.214876         449.822         439.627         455.342 
       0.220989         434.935         416.178         433.651 
       0.227147         406.669         392.765         410.736 
        0.23329         387.695         371.149          392.96 
       0.239377         374.133         352.506         376.196 
       0.245482         352.303         336.935         358.882 
       0.251667         345.793         324.012         348.125 
       0.257832         334.781         313.153             337 
       0.263955         323.961         303.348         326.499 
       0.270079         314.299         293.588         316.216 
        0.27624         308.236         283.251          305.06 
       0.282372          296.14         272.294         295.043 
        0.28843         284.634         261.057         284.116 
       0.294538         273.116         249.802         274.479 
       0.300721         267.634         239.011         265.589 
        0.30691         255.337         229.231         256.669 
       0.313033         248.111         220.722         247.654 
       0.319153         237.553         213.329         241.504 
       0.325316         233.312         206.728         235.947 
        0.33145         225.936         200.671         228.338 
       0.337538         222.132         194.828         222.039 
       0.343633         215.287         188.929         217.013 
       0.349808         209.223         182.807         211.533 
       0.355968         204.322         176.605         206.736 
       0.362074         198.333         170.511         200.437 
       0.368217          193.05         164.601         193.409 
       0.374374         187.375         159.062         189.058 
       0.380519         182.943         153.984         183.769 
       0.386598         178.322         149.413         179.461 
       0.392688          175.38         145.216         175.806 
        0.39888          170.88         141.221         171.035 
       0.405048         167.426         137.406         167.721 
       0.411186          163.97         133.673         164.646 
       0.417313         159.518         129.958         159.665 
       0.423458         156.154         126.253         156.379 
       0.429607         152.169         122.591         152.699 
       0.435692         147.529         119.069         149.609 
       0.441815         146.198         115.683         147.437 
       0.447964          143.92         112.473         143.661 
       0.454126         138.016         109.451         140.123 
       0.460267         136.143         106.629         138.128 
       0.466387         133.433         103.966         135.023 
        0.47254         131.483         101.394         132.738 
       0.478662         129.511         98.9082         130.043 
       0.484765         126.339         96.4836         127.055 
       0.490885         123.969         94.0915         125.409 
       0.497035         122.319         91.7291         123.445 
       0.503198         119.251         89.4237         120.684 
       0.509342         116.672         87.2047         118.813 
       0.515458         114.946         85.0841         117.544 
       0.521598         113.527         83.0458          114.49 
       0.527764         111.593         81.0916         111.862 
       0.533884         109.632         79.2381         110.259 
           0.54         107.854         77.4562         108.594 
       0.546137         106.626         75.7226         107.315 
       0.552299         105.159          74.025          104.99 
       0.558452         102.368         72.3712         103.121 
       0.564573         100.643         70.7666         102.016 
       0.570708         99.6938         69.1993         100.336 
       0.576825         97.6988         67.6794         98.7102 
       0.582926         96.0992         66.2092         97.1862 
       0.589034         93.9131         64.7858         96.0555 
       0.595184         92.9482         63.4045         94.4627 
       0.601379         91.9742         62.0638         93.3647 
       0.607522          89.769         60.7783         91.3949 
       0.613639         89.6115         59.5363         90.3357 
       0.619772         87.3778         58.3241         88.9054 
       0.625918         86.9332         57.1395         88.1857 
       0.632068         85.7108         55.9845         86.4926 
       0.638161         84.4097         54.8701          85.564 
         0.6443         83.1552         53.7775         84.0875 
       0.650464         81.9456         52.7112         82.8842 
       0.656582         81.2955         51.6823         82.1479 
       0.662703         79.7109         50.6816         80.7043 
       0.668861         78.8605         49.7029         79.9077 
       0.675024         77.7603         48.7506         78.7099 
       0.681124         76.5855         47.8343         77.6619 
       0.687237         75.3934         46.9409         76.6018 
       0.693381         74.7795         46.0669         75.6249 
       0.699536         73.4331         45.2141         75.1033 
       0.705665         73.6753         44.3867         74.2624 
       0.711789         71.8461         43.5804         72.8218 
       0.717957         71.2882         42.7882         72.3099 
        0.72409         70.2625         42.0198         71.7146 
       0.730186         69.2503         41.2748         70.6696 
       0.736317         68.9279         40.5439         69.7362 
       0.742472         67.7848         39.8282         69.0776 
       0.748622         67.3178          39.131          68.117 
        0.75476          66.423         38.4524         67.4489 
       0.760888         65.5734         37.7916         66.7301 
       0.767043         64.8992         37.1442         66.2242 
       0.773185           64.04         36.5136         65.5086 
       0.779291         63.7091         35.9016         64.8549 
       0.785407         63.0904         35.3031         63.9985 
       0.791564         62.0267         34.7145         63.2844 
       0.797719         61.1278         34.1398         62.7392 
       0.803834         61.0113         33.5819         61.9918 
       0.809972         60.1355         33.0345         61.4617 
       0.816124         59.1098         32.4983         60.8283 
       0.822261         58.9536         31.9755         60.0214 
       0.828378         58.3667         31.4659         59.3279 
       0.834502         57.6824         30.9671         59.2004 
       0.840667         57.2225         30.4761         58.4033 
       0.846816         56.4552         29.9972         57.8988 
       0.852925         55.9944         29.5318          57.629 
       0.859047         55.2592         29.0755         56.7292 
       0.865192         54.9887         28.6274         56.2665 
       0.871341          54.669         28.1886         55.8346 
       0.877463         53.6202         27.7611         55.2919 
       0.883569         53.2418         27.3437         54.9499 
       0.889708         52.8798         26.9329         54.2551 
       0.895864          52.407         26.5295         53.7869 
       0.902008         52.0048         26.1354         53.3638 
       0.908149         51.5403         25.7497         52.9648 
       0.914301         51.2681         25.3712         52.6323 
       0.920448         50.3501         25.0007         52.0116 
       0.926574         50.1813         24.6391         51.4619 
       0.932687         49.6481         24.2854         51.1341 
       0.938823         49.0464         23.9376          50.652 
       0.944975         48.8039         23.5958         50.1344 
       0.951105         48.4129          23.262         49.8324 
       0.957225         47.8509         22.9354         49.4373 
       0.963368           47.56         22.6139         48.9598 
       0.969511         47.2449         22.2987         48.5992 
       0.975621         46.8938         21.9913         48.2869 
       0.981748         46.3033         21.6889         47.9317 
       0.987916         46.0685         21.3904         47.4456 
        0.99406         45.6979         21.0987         47.1505 
        1.00019         45.1081         20.8131          46.766 
        1.00632         45.0095         20.5331         46.4828 
        1.01246          44.583         20.2578         46.1526 
        1.01859         44.0857         19.9882         45.7467 
        1.02471         44.0566         19.7238         45.4133 
        1.03085         43.6004         19.4634         45.0773 
        1.03698         42.9995         19.2082         44.7077 
        1.04314         42.6937         18.9567         44.2745 
        1.04929         42.4493         18.7102          44.087 
        1.05541          42.033         18.4692           43.89 
        1.06154         41.8377         18.2319         43.3699 
        1.06769         41.5284         17.9984         43.0827 
        1.07382         41.2049         17.7699         42.8865 
        1.07993         41.0474         17.5458         42.4784 
        1.08607         40.5515         17.3248          42.186 
        1.09222         40.3632         17.1074         41.9888 
        1.09836         39.8997          16.894         41.6679 
        1.10449         39.8028         16.6845         41.3074 
        1.11063         39.2715         16.4784         41.1402 
        1.11677         39.1603         16.2759         40.8105 
         1.1229          39.013         16.0772         40.5086 
        1.12903          38.498         15.8817         40.2813 
        1.13518         38.2416         15.6893         39.8983 
        1.14131         38.1651         15.5002         39.7018 
        1.14745         37.8504         15.3144         39.4832 
        1.15359         37.6257         15.1316          39.257 
        1.15973         37.2304         14.9518          39.004 
        1.16584         36.9101         14.7757         38.7871 
        1.17197         36.9573         14.6022         38.4978 
        1.17811          36.471         14.4311         38.1313 
        1.18424         36.1578         14.2631         37.9845 
        1.19038          36.106         14.0975         37.8241 
        1.19652          35.849         13.9345         37.4782 
        1.20267         35.5869         13.7741         37.3009 
        1.20881         35.4064         13.6163         37.1278 
        1.21495         35.1159         13.4613         36.9444 
        1.22108           34.86         13.3087         36.6263 
         1.2272           34.51         13.1589         36.4307 
        1.23334         34.3718         13.0111         36.2723 
        1.23949         34.1211         12.8652         35.9665 
        1.24562         34.0545          12.722         35.7733 
        1.25174         33.8381         12.5811         35.6011 
        1.25789          33.653         12.4421          35.359 
        1.26402         33.4623         12.3053         35.1377 
        1.27014           33.14          12.171         34.9659 
        1.27628         32.8751         12.0383         34.7283 
        1.28244         32.7974         11.9074         34.6619 
        1.28858          32.631         11.7785         34.3576 
        1.29471          32.345         11.6519          34.161 
        1.30084         32.1445         11.5273          34.048 
        1.30697         31.9418         11.4044          33.788 
        1.31312         31.6768          11.283          33.596 
        1.31925         31.5343         11.1639         33.4781 
        1.32537         31.4485         11.0466         33.3323 
        1.33151         31.1577         10.9306         33.1103 
        1.33765         31.0498         10.8163         32.9459 
        1.34378         30.9377         10.7039         32.7815 
        1.34992         30.5075          10.593         32.6071 
        1.35606         30.4816         10.4835         32.4139 
         1.3622         30.3256         10.3758         32.2683 
        1.36833         30.1078         10.2698         32.1281 
        1.37445         30.0196         10.1654         31.8843 
        1.38059         29.8704         10.0621         31.6998 
        1.38675         29.5704         9.96002         31.5914 
        1.39288         29.4723         9.85978         31.4174 
        1.39901         29.2349         9.76097         31.2815 
        1.40515          29.117         9.66331         31.1312 
         1.4113         28.9667         9.56704         30.9852 
        1.41742         28.7219         9.47245         30.8312 
        1.42355         28.6669         9.37898         30.5783 
         1.4297         28.4661          9.2865         30.4831 
        1.43585         28.3867         9.19532          30.393 
        1.44198         28.0919         9.10572         30.2068 
        1.44809         28.0453         9.01749         30.0884 
        1.45423         27.8801         8.93012         29.9107 
        1.46036          27.785         8.84408         29.7362 
        1.46649         27.6114         8.75914         29.5983 
        1.47263         27.4055         8.67527         29.5056 
        1.47877         27.2906         8.59254         29.4263 
        1.48491          27.139         8.51077         29.1657 
        1.49104         27.0757         8.43024         29.0764 
        1.49718          26.838         8.35071         28.9633 
        1.50333         26.7135         8.27208         28.8348 
        1.50947         26.6272         8.19463         28.7242 
         1.5156          26.424          8.1183         28.5753 
        1.52172         26.2103         8.04294         28.3904 
        1.52787         26.1749          7.9684          28.257 
          1.534         26.0319          7.8949         28.1441 
        1.54013         25.8359         7.82241         27.9616 
        1.54627         25.7491         7.75071         27.8342 
        1.55241         25.5725          7.6799         27.7755 
        1.55855         25.5023         7.61008         27.6542 
        1.56467         25.3878         7.54133         27.5041 
         1.5708         25.2764         7.47324          27.417 
        1.57695         25.0333          7.4059          27.299 
        1.58308         25.0202         7.33955         27.1567 
        1.58922         24.8707         7.27397         27.0844 
        1.59535         24.7228         7.20922         26.9695 
         1.6015         24.5842         7.14518          26.827 
        1.60764          24.531         7.08195         26.6862 
        1.61376         24.4251         7.01967         26.5591 
        1.61989         24.1804          6.9581         26.4712 
        1.62604         24.1811         6.89713         26.4215 
        1.63218         23.9939         6.83694         26.3009 
        1.63831         23.9194          6.7776         26.1375 
        1.64444         23.7493         6.71896         26.0588 
        1.65059         23.6669         6.66087         25.9329 
        1.65673         23.5673         6.60354         25.8411 
        1.66285         23.4194         6.54705         25.7529 
        1.66898         23.3411         6.49121          25.615 
        1.67512         23.2368         6.43591         25.4909 
        1.68127         23.0476         6.38122         25.3775 
         1.6874         22.9768         6.32728         25.2687 
        1.69353         22.9486         6.27401         25.1708 
        1.69967         22.7335         6.22122          25.095 
        1.70581         22.5944         6.16907          25.024 
        1.71193         22.5059         6.11772         24.9227 
        1.71806         22.4658         6.06685         24.7821 
        1.72421         22.3413         6.01647         24.7071 
        1.73035         22.2777         5.96671         24.6019 
        1.73649         22.1162         5.91754         24.4573 
        1.74262         22.0601         5.86896         24.4098 
        1.74876         21.9299          5.8209         24.3186 
        1.75489         21.8385         5.77348         24.1902 
        1.76101         21.7132         5.72661         24.0905 
        1.76715         21.7028          5.6802         24.0091 
        1.77329         21.5772         5.63425         23.8982 
        1.77943         21.4346         5.58879         23.8144 
        1.78557         21.3294          5.5439         23.7888 
        1.79171         21.2798         5.49951         23.6829 
        1.79785         21.1676         5.45559         23.5543 
        1.80399         21.0815         5.41217         23.4999 
        1.81012         20.9636         5.36928         23.3897 
        1.81625         20.8653         5.32688         23.3009 
        1.82239         20.8029         5.28487         23.2548 
        1.82853         20.6355         5.24334         23.1389 
        1.83466         20.5937          5.2023          23.034 
        1.84078         20.4487         5.16175         22.9645 
        1.84692         20.3977         5.12156         22.8766 
        1.85306         20.3004         5.08176         22.7852 
         1.8592          20.243         5.04244         22.7035 
        1.86533         20.1401         5.00357         22.6276 
        1.87147         20.0416         4.96506         22.5594 
        1.87761         19.9696         4.92695         22.4812 
