# k  (h/Mpc)    Pcb(k)  (Mpc/h)^3    Pcb_linear(k) (Mpc/h)^3    Pcb_NL(k) (Mpc/h)^3   ShotnoiseSubtracted = false
     0.00783031         368.376         371.385         371.096 
       0.013688         495.395         496.706         495.152 
       0.019231         536.191          536.64         534.248 
      0.0249154         524.652         527.152         525.482 
      0.0312784         484.293          484.99         484.257 
      0.0375637         434.354         433.835         433.417 
      0.0433917         390.021         390.502          390.39 
      0.0492413         356.055         355.829         355.784 
      0.0555754         327.394         328.224         328.073 
      0.0619321         308.463          307.65         307.441 
       0.067871         290.338          291.01         290.657 
      0.0738098         272.944         273.833         273.322 
      0.0800417         252.327         253.652         253.181 
      0.0862327         230.955         231.691         231.369 
      0.0921407         210.138         210.466         210.253 
      0.0982031         189.732         190.305         190.261 
       0.104506         173.003         172.658         172.741 
       0.110769         159.389         159.125         159.152 
       0.116806         149.171          149.55          149.52 
       0.122832         142.504         142.439         142.415 
       0.129052         135.906         136.378          136.32 
       0.135211         129.828          130.45         130.376 
       0.141259         123.697         123.942         123.907 
       0.147318         116.659          116.55         116.602 
       0.153489         108.304          108.45         108.456 
       0.159709         100.334          100.35         100.461 
       0.165845         93.6719         93.0767         93.3485 
       0.171974          87.043         86.9666         87.2336 
       0.178125         82.3083         82.1271         82.4939 
       0.184229         78.8138         78.4462         78.8173 
        0.19034         75.3548         75.5248         75.8791 
       0.196428         73.0799          72.946         73.2132 
       0.202534         70.8234         70.3149         70.5983 
       0.208729         67.6029         67.3641         67.6381 
       0.214876          64.079         64.1158            64.5 
       0.220989         61.2364         60.6959         61.1268 
       0.227147         57.3419         57.2814         57.7202 
        0.23329         54.2689         54.1289         54.6682 
       0.239377          51.694         51.4099         52.0085 
       0.245482         49.2537          49.139          49.691 
       0.251667         47.6776         47.2542         47.8578 
       0.257832          46.004         45.6707         46.2641 
       0.263955          44.572         44.2407         44.8051 
       0.270079          43.179         42.8173         43.3586 
        0.27624         41.8916         41.3099         41.8238 
       0.282372         40.2641         39.7118         40.2625 
        0.28843         38.4806          38.073         38.6415 
       0.294538         36.8816         36.4315         37.0363 
       0.300721         35.5152         34.8577         35.5125 
        0.30691         33.9244         33.4314         34.0995 
       0.313033         32.7245         32.1907         32.8498 
       0.319153         31.3489         31.1122         31.8149 
       0.325316          30.779         30.1495          30.876 
        0.33145         29.8028         29.2662         29.9523 
       0.337538         28.9516         28.4139         29.0796 
       0.343633         28.0282         27.5536         28.2177 
       0.349808         27.2012         26.6609         27.3461 
       0.355968         26.3205         25.7564         26.5164 
       0.362074         25.4178         24.8676         25.6008 
       0.368217         24.5857         24.0057         24.6893 
       0.374374         23.6866         23.1978         23.9346 
       0.380519         23.0516         22.4573         23.1757 
       0.386598         22.4104         21.7907         22.5315 
       0.392688         21.8609         21.1785         21.9188 
        0.39888         21.2277         20.5959         21.3246 
       0.405048         20.7023         20.0395         20.7381 
       0.411186         20.1917         19.4952         20.2569 
       0.417313         19.5409         18.9533         19.6829 
       0.423458         19.0538         18.4129         19.1564 
       0.429607         18.4712          17.879         18.6033 
       0.435692          17.949         17.3652          18.117 
       0.441815         17.4939         16.8714          17.663 
       0.447964         17.1308         16.4032         17.1726 
       0.454126         16.5603         15.9626          16.722 
       0.460267         16.1617         15.5509          16.329 
       0.466387         15.7126         15.1625         15.9127 
        0.47254         15.4019         14.7875         15.5457 
       0.478662         15.0698         14.4249         15.1712 
       0.484765         14.6701         14.0713          14.822 
       0.490885         14.3129         13.7225         14.5168 
       0.497035         14.0764         13.3779         14.1771 
       0.503198         13.6995         13.0417         13.7899 
       0.509342         13.3832         12.7181         13.4867 
       0.515458         13.0377         12.4088         13.2091 
       0.521598         12.7651         12.1115         12.8604 
       0.527764         12.4493         11.8265         12.5709 
       0.533884         12.2267         11.5562         12.3051 
           0.54         11.9528         11.2963         12.0345 
       0.546137           11.72         11.0435          11.797 
       0.552299         11.4733         10.7959         11.5106 
       0.558452          11.153         10.5547          11.276 
       0.564573         10.9752         10.3207         11.0866 
       0.570708         10.7529         10.0922         10.8458 
       0.576825         10.4819         9.87048         10.6147 
       0.582926          10.305         9.65605         10.4113 
       0.589034         10.0073          9.4485         10.2189 
       0.595184         9.84068         9.24702         9.96395 
       0.601379         9.63654         9.05149         9.80841 
       0.607522         9.48658         8.86402          9.6091 
       0.613639          9.3472         8.68287         9.41955 
       0.619772         9.10376         8.50609         9.26122 
       0.625918         8.97351         8.33333          9.0681 
       0.632068          8.8287         8.16487         8.89075 
       0.638161         8.62019         8.00235         8.72354 
         0.6443         8.44763           7.843         8.55445 
       0.650464         8.26529         7.68749         8.42204 
       0.656582         8.16692         7.53744         8.26278 
       0.662703         8.01795         7.39149         8.10944 
       0.668861         7.88341         7.24876         7.98286 
       0.675024         7.71377         7.10988          7.8259 
       0.681124         7.56962         6.97624         7.68693 
       0.687237         7.46061         6.84594         7.53519 
       0.693381         7.33918         6.71848          7.3978 
       0.699536         7.14566         6.59411         7.27722 
       0.705665         7.04333         6.47343         7.18839 
       0.711789         6.93582         6.35585         7.05899 
       0.717957         6.80722         6.24031         6.92524 
        0.72409         6.69385         6.12824         6.81587 
       0.730186         6.59107         6.01959         6.69201 
       0.736317         6.51615         5.91299         6.58108 
       0.742472          6.4069         5.80862          6.5061 
       0.748622         6.28743         5.70693         6.39664 
        0.75476         6.14693         5.60797          6.2759 
       0.760888         6.06914         5.51159         6.18447 
       0.767043         5.99857         5.41717         6.09636 
       0.773185         5.87337         5.32521         6.00832 
       0.779291         5.80242         5.23596         5.91472 
       0.785407         5.70854         5.14866         5.81763 
       0.791564         5.61684         5.06283          5.7319 
       0.797719         5.53972         4.97901         5.62782 
       0.803834         5.46455         4.89764         5.55083 
       0.809972         5.38892         4.81781          5.4875 
       0.816124         5.28399          4.7396         5.38898 
       0.822261         5.19557         4.66336         5.31022 
       0.828378         5.13519         4.58904         5.23399 
       0.834502         5.07592          4.5163         5.15261 
       0.840667         4.97284         4.44469         5.08337 
       0.846816         4.89908         4.37485           5.026 
       0.852925         4.85106         4.30697          4.9504 
       0.859047         4.78063         4.24042         4.89112 
       0.865192         4.71832         4.17507         4.81558 
       0.871341         4.65283         4.11107         4.74863 
       0.877463         4.59653         4.04873         4.67744 
       0.883569         4.51131         3.98786         4.62294 
       0.889708         4.44046         3.92794         4.55977 
       0.895864         4.39215         3.86912         4.49325 
       0.902008         4.32331         3.81164         4.43576 
       0.908149         4.27035         3.75538         4.38032 
       0.914301         4.19278         3.70018         4.31754 
       0.920448         4.14031         3.64615         4.25398 
       0.926574         4.08126         3.59341         4.20614 
       0.932687         4.03903         3.54183          4.1362 
       0.938823         3.99418          3.4911         4.10553 
       0.944975         3.93638         3.44125         4.03534 
       0.951105         3.89005         3.39258         3.98509 
       0.957225         3.86038         3.34493         3.94878 
       0.963368         3.80052         3.29805         3.89171 
       0.969511         3.74488         3.25208         3.84543 
       0.975621         3.68718         3.20725         3.78155 
       0.981748         3.65524         3.16315         3.73963 
       0.987916         3.60711         3.11962         3.70838 
        0.99406         3.54904         3.07707         3.66382 
        1.00019         3.51283         3.03542         3.62284 
        1.00632         3.46717         2.99458         3.57222 
        1.01246         3.42856         2.95444         3.52775 
        1.01859         3.38867         2.91511         3.48615 
        1.02471         3.34316         2.87656         3.44406 
        1.03085          3.3091         2.83857         3.39755 
        1.03698         3.26197         2.80136         3.35931 
        1.04314         3.22857         2.76467         3.32304 
        1.04929         3.18435         2.72873         3.28538 
        1.05541         3.15123         2.69358         3.25331 
        1.06154         3.11321         2.65897         3.21631 
        1.06769         3.08106         2.62492         3.18008 
        1.07382          3.0434         2.59159         3.14315 
        1.07993          2.9975         2.55891         3.10675 
        1.08607         2.97932         2.52668         3.07218 
        1.09222         2.93919         2.49497         3.03344 
        1.09836         2.91769         2.46385         3.00443 
        1.10449         2.88114          2.4333         2.97285 
        1.11063         2.84125         2.40324         2.93389 
        1.11677         2.80818         2.37371         2.90769 
         1.1229         2.77714         2.34473         2.87902 
        1.12903         2.74424         2.31621         2.84601 
        1.13518         2.72401         2.28815         2.81809 
        1.14131           2.682         2.26058         2.78611 
        1.14745         2.63956         2.23348         2.75036 
        1.15359         2.62788         2.20682         2.72829 
        1.15973         2.58644         2.18059         2.70065 
        1.16584         2.57766         2.15491         2.67131 
        1.17197         2.54329         2.12962         2.64291 
        1.17811         2.51568         2.10465         2.61831 
        1.18424         2.50057         2.08016         2.58679 
        1.19038         2.46611           2.056         2.56195 
        1.19652         2.43829         2.03223         2.54014 
        1.20267         2.41884         2.00884         2.50529 
        1.20881         2.38466         1.98583         2.48536 
        1.21495         2.36865         1.96322         2.46774 
        1.22108         2.34502         1.94097         2.43914 
         1.2272          2.3268         1.91912         2.40893 
        1.23334         2.29525         1.89756         2.38982 
        1.23949         2.26965         1.87628         2.37291 
        1.24562         2.25417         1.85539          2.3485 
        1.25174         2.22645         1.83486         2.31957 
        1.25789         2.20762         1.81457         2.29654 
        1.26402         2.17725         1.79463         2.27369 
        1.27014         2.15646         1.77504         2.25605 
        1.27628         2.14674         1.75569         2.23559 
        1.28244         2.11454         1.73659         2.21131 
        1.28858         2.09868          1.7178          2.1871 
        1.29471         2.07958         1.69934         2.16824 
        1.30084         2.05619         1.68117         2.15518 
        1.30697         2.04001         1.66323         2.13407 
        1.31312         2.00827         1.64554         2.11342 
        1.31925         1.99917         1.62816         2.09697 
        1.32537         1.98152         1.61105         2.07694 
        1.33151         1.96513         1.59413         2.05776 
        1.33765         1.94177         1.57747         2.03873 
        1.34378         1.91952         1.56108         2.02355 
        1.34992         1.91151         1.54491          2.0057 
        1.35606         1.88598         1.52894         1.98113 
         1.3622         1.87348         1.51322         1.96587 
        1.36833         1.85494         1.49777         1.95297 
        1.37445         1.83395         1.48254         1.93573 
        1.38059         1.81842         1.46747         1.91774 
        1.38675         1.81365         1.45259         1.89846 
        1.39288         1.78686         1.43797         1.88439 
        1.39901          1.7712         1.42356         1.86958 
        1.40515         1.75782         1.40932         1.85005 
         1.4113         1.74025         1.39527         1.83578 
        1.41742         1.72539         1.38148         1.82672 
        1.42355         1.71833         1.36785         1.80161 
         1.4297         1.69344         1.35436         1.79473 
        1.43585         1.68303         1.34106         1.78033 
        1.44198          1.6738           1.328         1.75606 
        1.44809         1.64919         1.31513         1.74986 
        1.45423         1.63742         1.30239         1.72865 
        1.46036         1.62418         1.28984         1.71612 
        1.46649         1.60889         1.27745         1.70713 
        1.47263         1.59322         1.26522         1.69195 
        1.47877         1.57886         1.25315         1.67518 
        1.48491         1.56644         1.24123         1.66495 
        1.49104         1.55429         1.22948         1.64907 
        1.49718         1.54449         1.21788         1.63894 
        1.50333         1.52857         1.20642         1.62144 
        1.50947         1.51832         1.19512         1.60776 
         1.5156         1.50513         1.18399         1.59841 
        1.52172          1.4916           1.173         1.58469 
        1.52787         1.47763         1.16213         1.57129 
          1.534         1.47052         1.15141         1.56023 
        1.54013          1.4514         1.14084         1.54798 
        1.54627         1.43999         1.13038         1.53484 
        1.55241         1.42894         1.12005         1.52285 
        1.55855         1.41743         1.10987         1.51202 
        1.56467         1.40867         1.09984         1.50175 
         1.5708         1.39184         1.08991         1.48752 
        1.57695          1.3867         1.08009         1.47699 
        1.58308         1.37453         1.07041         1.46982 
        1.58922         1.36362         1.06085         1.45716 
        1.59535          1.3529         1.05141         1.44479 
         1.6015          1.3422         1.04207          1.4329 
        1.60764          1.3329         1.03285         1.42401 
        1.61376         1.31991         1.02376         1.41655 
        1.61989         1.31112         1.01478          1.4048 
        1.62604         1.30047         1.00589         1.39453 
        1.63218         1.29387        0.997112         1.38526 
        1.63831         1.27894        0.988459         1.37448 
        1.64444         1.26941        0.979906         1.36286 
        1.65059         1.26125        0.971435         1.35278 
        1.65673           1.251        0.963073         1.34466 
        1.66285         1.23995        0.954835         1.33542 
        1.66898         1.23413         0.94669         1.32384 
        1.67512          1.2209        0.938626         1.31501 
        1.68127         1.21318        0.930649         1.30723 
         1.6874         1.20627        0.922783         1.29834 
        1.69353         1.19434        0.915013         1.28789 
        1.69967         1.18575        0.907315         1.27831 
        1.70581         1.17891        0.899709         1.27091 
        1.71193         1.16895        0.892221         1.26342 
        1.71806         1.16169        0.884802         1.25283 
        1.72421         1.15249        0.877453         1.24463 
        1.73035         1.14261        0.870197         1.23622 
        1.73649         1.13668        0.863025         1.22609 
        1.74262         1.12802        0.855941         1.21765 
        1.74876         1.11895        0.848931         1.21115 
        1.75489         1.11003        0.842016         1.20364 
        1.76101         1.10105         0.83518         1.19429 
        1.76715          1.0946        0.828411         1.18638 
        1.77329         1.08669        0.821709         1.17903 
        1.77943         1.07832         0.81508         1.17125 
        1.78557         1.07034        0.808534         1.16316 
        1.79171         1.06407        0.802059         1.15474 
        1.79785         1.05618        0.795654         1.14687 
        1.80399         1.04909        0.789321         1.13969 
        1.81012         1.04293        0.783066         1.13049 
        1.81625         1.03313        0.776882         1.12311 
        1.82239         1.02795        0.770756         1.11878 
        1.82853         1.01609        0.764699         1.11329 
        1.83466         1.01189        0.758714         1.10536 
        1.84078         1.00443        0.752799          1.0967 
        1.84692        0.999444        0.746939         1.08997 
        1.85306        0.991316        0.741134          1.0826 
         1.8592        0.985878          0.7354         1.07516 
        1.86533        0.978471         0.72973         1.06924 
        1.87147        0.971751        0.724114         1.06213 
