# k  (h/Mpc)    Pcb(k)  (Mpc/h)^3    Pcb_linear(k) (Mpc/h)^3    Pcb_NL(k) (Mpc/h)^3   ShotnoiseSubtracted = false
     0.00783031         11685.4         11844.8         11831.5 
       0.013688           15947         15830.5         15736.1 
       0.019231         17082.7           17098         16935.7 
      0.0249154           16409         16792.7         16593.9 
      0.0312784         15203.4         15447.9         15209.1 
      0.0375637         13707.3         13817.5         13567.1 
      0.0433917         12095.9         12436.8         12158.4 
      0.0492413         11130.4         11332.1         11048.8 
      0.0555754         10010.9         10452.7         10170.5 
      0.0619321         9665.34         9797.33         9505.52 
       0.067871          8865.4         9267.27         8979.25 
      0.0738098         8321.99         8720.17         8358.25 
      0.0800417         7588.91         8077.42          7727.1 
      0.0862327         7010.46         7378.04         7109.12 
      0.0921407         6469.11         6702.08         6450.73 
      0.0982031          5830.8         6060.06         5901.65 
       0.104506         5460.09         5498.09         5419.62 
       0.110769         5039.37         5067.13         4959.43 
       0.116806         4720.13         4762.18          4655.2 
       0.122832         4509.67         4535.74         4451.25 
       0.129052         4218.24         4342.73         4264.85 
       0.135211         4037.67         4153.96         4074.21 
       0.141259         3896.06         3946.71         3907.47 
       0.147318         3702.85         3711.33          3706.2 
       0.153489         3416.83         3453.39         3416.19 
       0.159709            3242         3195.45         3218.36 
       0.165845         3124.47         2963.84         3075.48 
       0.171974          2936.9         2769.28         2898.44 
       0.178125         2792.45         2615.17         2808.68 
       0.184229         2680.55         2497.96         2679.34 
        0.19034         2540.13         2404.93         2592.07 
       0.196428         2504.78         2322.81         2491.15 
       0.202534         2421.27         2239.03         2422.62 
       0.208729         2327.07         2145.06         2309.93 
       0.214876         2236.19         2041.63         2253.08 
       0.220989         2170.52         1932.73         2178.15 
       0.227147         2074.85            1824         2095.66 
        0.23329         1997.03         1723.61         2031.95 
       0.239377         1972.13         1637.03         1956.22 
       0.245482         1853.69         1564.72          1875.1 
       0.251667         1845.87          1504.7         1838.37 
       0.257832         1778.43         1454.28         1786.73 
       0.263955         1724.08         1408.74         1741.73 
       0.270079         1672.42         1363.42         1696.99 
        0.27624         1657.24         1315.42         1648.29 
       0.282372          1588.2         1264.53         1614.33 
        0.28843         1584.66         1212.35         1574.06 
       0.294538         1511.21         1160.08         1531.33 
       0.300721         1504.89         1109.96         1487.22 
        0.30691         1447.02         1064.54         1466.24 
       0.313033         1420.23         1025.04         1424.31 
       0.319153         1401.94         990.693         1388.25 
       0.325316         1355.56          960.04         1371.67 
        0.33145          1327.6         931.914          1326.8 
       0.337538         1309.11         904.774         1307.78 
       0.343633         1280.66         877.379         1293.69 
       0.349808         1242.18         848.952         1271.13 
       0.355968         1234.81         820.151         1250.07 
       0.362074         1222.37         791.848         1224.19 
       0.368217         1186.72         764.403         1193.78 
       0.374374         1144.81         738.677         1174.52 
       0.380519         1146.34         715.097         1152.94 
       0.386598         1119.24         693.871         1138.18 
       0.392688         1114.19         674.379         1114.52 
        0.39888         1084.15         655.825         1101.91 
       0.405048         1072.25         638.108         1087.95 
       0.411186         1057.06         620.776         1065.65 
       0.417313         1036.17         603.521         1051.08 
       0.423458          1020.7         586.315         1034.09 
       0.429607         1005.88         569.312         1014.76 
       0.435692         987.676         552.953         997.522 
       0.441815          982.87         537.228         994.672 
       0.447964         960.779         522.319         979.811 
       0.454126         951.647         508.289         955.263 
       0.460267         932.724         495.179         954.623 
       0.466387         920.972         482.814         936.648 
        0.47254         913.256         470.871         926.438 
       0.478662         905.987         459.327         914.634 
       0.484765          884.51         448.066         902.804 
       0.490885         878.581         436.958         887.681 
       0.497035         859.672         425.987         880.239 
       0.503198          855.33         415.281         870.027 
       0.509342         844.977         404.976          856.17 
       0.515458          841.66         395.128         852.188 
       0.521598         823.344         385.662         843.669 
       0.527764         805.708         376.587         834.493 
       0.533884         807.193         367.979         825.251 
           0.54         797.942         359.704         816.489 
       0.546137         791.719         351.653         806.887 
       0.552299         781.388          343.77         795.939 
       0.558452         776.511         336.089         790.142 
       0.564573         764.637         328.638         782.999 
       0.570708         758.016         321.359         775.529 
       0.576825         737.587         314.301         764.671 
       0.582926         741.486         307.473         758.401 
       0.589034         734.531         300.864         747.056 
       0.595184         726.876         294.448         742.023 
       0.601379         718.053         288.222         736.204 
       0.607522         708.612         282.253         726.594 
       0.613639         710.117         276.484         723.584 
       0.619772          692.44         270.855          721.98 
       0.625918         689.104         265.354         712.725 
       0.632068         681.232          259.99         707.628 
       0.638161         678.985         254.815         695.674 
         0.6443         665.721         249.741         693.101 
       0.650464         664.569         244.789         683.083 
       0.656582         661.698         240.011         678.391 
       0.662703         656.791         235.364         674.749 
       0.668861         645.165         230.818         671.143 
       0.675024         640.448         226.396         666.775 
       0.681124         637.299         222.141         655.768 
       0.687237         631.631         217.992         650.814 
       0.693381         624.688         213.933         645.356 
       0.699536         614.184         209.973         641.069 
       0.705665         614.839          206.13         635.095 
       0.711789         609.169         202.386         629.661 
       0.717957         603.444         198.707         627.874 
        0.72409         600.334         195.138         622.339 
       0.730186         591.971         191.679         617.048 
       0.736317         588.622         188.284          611.05 
       0.742472         585.976         184.961         606.341 
       0.748622         579.564         181.723         601.684 
        0.75476         571.075         178.572         602.059 
       0.760888          566.07         175.503         594.596 
       0.767043         565.784         172.496          588.41 
       0.773185         559.562         169.568         584.974 
       0.779291         554.854         166.726         579.904 
       0.785407         549.787         163.946         576.666 
       0.791564         544.068         161.213         574.639 
       0.797719         541.492         158.544          568.63 
       0.803834         537.234         155.953          565.77 
       0.809972         533.679         153.411         562.808 
       0.816124         532.996         150.921         554.752 
       0.822261         524.712         148.493          552.17 
       0.828378         522.016         146.126         548.694 
       0.834502         516.833          143.81         546.965 
       0.840667         512.292          141.53         542.825 
       0.846816         509.794         139.306          538.86 
       0.852925         504.565         137.145         535.534 
       0.859047         505.086         135.025         530.749 
       0.865192         498.951         132.944         527.318 
       0.871341         494.647         130.907          524.83 
       0.877463         493.012         128.922         521.401 
       0.883569         487.865         126.983         517.768 
       0.889708         485.337         125.075         513.461 
       0.895864         481.497         123.202         510.865 
       0.902008         478.562         121.372         507.873 
       0.908149         474.156          119.58         503.265 
       0.914301         470.383         117.823         499.842 
       0.920448         467.206         116.102         497.009 
       0.926574         460.618         114.423         493.538 
       0.932687         460.827         112.781         490.519 
       0.938823         455.258         111.165         489.353 
       0.944975         455.898         109.578         485.428 
       0.951105          449.26         108.028          480.97 
       0.957225         446.255         106.511         479.913 
       0.963368         442.356         105.018         476.624 
       0.969511          440.52         103.554         473.144 
       0.975621         437.027         102.127         470.325 
       0.981748         435.165         100.723         466.921 
       0.987916         431.911         99.3362         465.966 
        0.99406         424.837         97.9815         462.497 
        1.00019         424.174         96.6551         457.356 
        1.00632         421.712         95.3547         455.221 
        1.01246         418.206         94.0766         452.497 
        1.01859         418.068         92.8243         449.108 
        1.02471         412.385         91.5966         447.858 
        1.03085         409.946         90.3871         446.355 
        1.03698         408.658         89.2023         443.778 
        1.04314         404.614          88.034         440.725 
        1.04929         400.068         86.8895         437.132 
        1.05541         400.001         85.7702         434.274 
        1.06154         394.796         84.6681         431.719 
        1.06769         391.912          83.584         428.788 
        1.07382         390.098         82.5225         426.576 
        1.07993         387.585         81.4821         424.502 
        1.08607         386.439         80.4556         421.236 
        1.09222          382.72         79.4459         418.649 
        1.09836         380.114         78.4549         417.619 
        1.10449         376.169         77.4822         414.744 
        1.11063         372.888         76.5251         411.447 
        1.11677         372.681         75.5846         410.005 
         1.1229         370.517         74.6618         407.631 
        1.12903         366.767         73.7538         405.416 
        1.13518         363.294         72.8603         402.786 
        1.14131         362.126         71.9822         400.461 
        1.14745         359.063         71.1193         398.239 
        1.15359          356.95         70.2705         396.421 
        1.15973         354.506         69.4354         394.062 
        1.16584         352.041         68.6177         391.702 
        1.17197         350.819         67.8122         389.583 
        1.17811         347.562         67.0172         387.686 
        1.18424         344.212         66.2375         386.171 
        1.19038         342.307          65.468         383.788 
        1.19652         340.124         64.7112         381.651 
        1.20267         338.772         63.9665           378.7 
        1.20881         337.015         63.2338         377.018 
        1.21495         333.832         62.5138         374.546 
        1.22108         332.002         61.8052         372.322 
         1.2272         329.439         61.1095         369.904 
        1.23334         327.033         60.4229         367.765 
        1.23949         325.697         59.7454         366.621 
        1.24562          323.51         59.0803         364.795 
        1.25174         320.244         58.4263         362.779 
        1.25789         317.627         57.7804         360.907 
        1.26402         316.191         57.1455         359.251 
        1.27014         313.709         56.5217         356.373 
        1.27628         311.839         55.9055         355.631 
        1.28244         311.105         55.2973           354.2 
        1.28858         307.505         54.6991         351.605 
        1.29471         305.002         54.1111          348.82 
        1.30084         304.002         53.5325         347.291 
        1.30697         301.559         52.9614         346.071 
        1.31312         298.859          52.398         344.343 
        1.31925         298.591         51.8446         341.844 
        1.32537         296.943         51.2999         339.636 
        1.33151         293.421         50.7611         338.502 
        1.33765         291.652         50.2304         336.745 
        1.34378         290.414         49.7085         334.779 
        1.34992         288.178         49.1936         332.429 
        1.35606         287.115          48.685         330.772 
         1.3622         284.833         48.1846         329.443 
        1.36833         282.643         47.6925         328.304 
        1.37445         281.121         47.2076         325.528 
        1.38059         278.137          46.728         324.732 
        1.38675         277.333         46.2539         323.599 
        1.39288         275.092         45.7884         320.291 
        1.39901         274.106         45.3296          318.89 
        1.40515         271.938          44.876         317.188 
         1.4113         270.418         44.4289         315.235 
        1.41742         268.597         43.9897         314.041 
        1.42355         266.081         43.5556         312.221 
         1.4297         264.659         43.1261          310.66 
        1.43585         263.011         42.7027         309.871 
        1.44198          261.41         42.2866         307.518 
        1.44809         259.752         41.8769         306.581 
        1.45423         257.426         41.4711          303.94 
        1.46036         256.585         41.0715         302.545 
        1.46649         254.067         40.6771         301.541 
        1.47263         252.619         40.2876         299.756 
        1.47877         251.188         39.9034         297.873 
        1.48491          249.27         39.5237         296.333 
        1.49104         248.446         39.1497         294.809 
        1.49718         245.935         38.7803         293.855 
        1.50333         244.578         38.4152         292.786 
        1.50947         242.983         38.0555         291.267 
         1.5156         240.856          37.701         289.322 
        1.52172         240.166         37.3511         287.316 
        1.52787         238.207         37.0049         286.288 
          1.534         237.024         36.6636         285.117 
        1.54013         234.716          36.327         283.485 
        1.54627         234.038          35.994         282.131 
        1.55241         232.007         35.6651         280.992 
        1.55855         230.647         35.3409         279.623 
        1.56467         228.969         35.0216         277.769 
         1.5708         228.672         34.7054         276.208 
        1.57695         226.093         34.3927         275.125 
        1.58308          224.94         34.0845         273.693 
        1.58922         222.502           33.78         272.175 
        1.59535         221.227         33.4793          271.23 
         1.6015         220.839         33.1819         269.821 
        1.60764         218.897         32.8883         268.032 
        1.61376         217.207         32.5991         266.818 
        1.61989         215.921         32.3131         265.683 
        1.62604         214.644           32.03         264.362 
        1.63218         213.253         31.7504          263.26 
        1.63831         211.881         31.4749         262.157 
        1.64444         211.042         31.2026         260.536 
        1.65059         208.954         30.9328         259.371 
        1.65673         208.133         30.6666         258.237 
        1.66285         206.635         30.4042          256.77 
        1.66898         205.057         30.1449         255.217 
        1.67512          204.43         29.8881         254.273 
        1.68127         202.079         29.6341         253.014 
         1.6874         200.996         29.3836          251.74 
        1.69353         199.955         29.1362          251.03 
        1.69967         198.508         28.8911         249.502 
        1.70581         197.355         28.6489         248.176 
        1.71193         195.961         28.4105         247.184 
        1.71806         195.182         28.1742         245.674 
        1.72421         193.447         27.9402         244.677 
        1.73035         192.659         27.7092         243.488 
        1.73649         191.389         27.4808         242.038 
        1.74262         190.059         27.2552         241.451 
        1.74876         188.897          27.032          240.32 
        1.75489         187.291         26.8118         238.925 
        1.76101         186.336         26.5941         237.937 
        1.76715         185.435         26.3786         236.964 
        1.77329         184.417         26.1652         235.806 
        1.77943         183.214         25.9541         234.539 
        1.78557         181.864         25.7457         233.332 
        1.79171          180.59         25.5395          232.34 
        1.79785         179.213         25.3355         231.303 
        1.80399         178.308         25.1339          230.07 
        1.81012         177.117         24.9347         229.317 
        1.81625         176.338         24.7378         228.335 
        1.82239         174.895         24.5427          226.94 
        1.82853         174.261         24.3499         225.915 
        1.83466         172.769         24.1593           224.8 
        1.84078         171.919         23.9709          223.66 
        1.84692          170.39         23.7843         222.983 
        1.85306         169.791         23.5995         221.867 
         1.8592         168.427         23.4169         220.655 
        1.86533         167.496         23.2364         220.104 
        1.87147         166.219         23.0575          219.32 
