# k  (h/Mpc)    P(k)  (Mpc/h)^3    P_linear(k)  (Mpc/h)^3     P_NL(k)  ShotnoiseSubtracted = false
     0.00783031         8673.93         8783.44         8775.93 
       0.013688           11812         11741.4         11680.6 
       0.019231         12677.8         12682.3         12578.6 
      0.0249154         12219.4         12456.4         12336.7 
      0.0312784         11319.1           11459         11322.8 
      0.0375637         10197.5         10249.8         10107.9 
      0.0433917         9027.69         9225.62         9069.71 
      0.0492413         8297.08         8406.24         8248.04 
      0.0555754         7494.65         7753.94         7595.32 
      0.0619321         7210.56         7267.78         7103.05 
       0.067871          6644.2          6874.6         6710.95 
      0.0738098         6237.18         6468.76         6262.63 
      0.0800417         5702.31         5991.97         5791.88 
      0.0862327         5259.64         5473.17         5320.07 
      0.0921407          4839.4         4971.73         4827.87 
      0.0982031          4358.5         4495.47         4406.37 
       0.104506         4064.89          4078.6         4035.66 
       0.110769         3748.88          3758.9         3696.48 
       0.116806         3503.91         3532.69         3470.95 
       0.122832         3352.72         3364.72         3316.49 
       0.129052         3144.47         3221.54         3176.23 
       0.135211         3009.94          3081.5         3036.38 
       0.141259         2898.26         2927.76         2905.15 
       0.147318         2750.15         2753.15         2753.26 
       0.153489         2538.61          2561.8          2539.9 
       0.159709         2400.48         2370.46         2384.84 
       0.165845         2299.47         2198.65         2268.01 
       0.171974         2154.98         2054.32          2131.8 
       0.178125         2046.88         1939.99          2057.5 
       0.184229          1968.4         1853.04            1965 
        0.19034         1855.23         1784.03         1898.33 
       0.196428         1831.63         1723.12         1821.89 
       0.202534         1776.43         1660.96         1769.14 
       0.208729         1701.78         1591.26         1687.95 
       0.214876         1625.31         1514.53         1643.73 
       0.220989          1578.9         1433.74         1582.48 
       0.227147         1498.93         1353.09         1514.86 
        0.23329         1440.36         1278.62          1466.6 
       0.239377         1415.85         1214.39         1411.01 
       0.245482         1327.06         1160.75         1349.18 
       0.251667         1318.69         1116.23         1320.72 
       0.257832         1272.26         1078.82         1281.65 
       0.263955         1233.79         1045.04         1246.55 
       0.270079         1196.21         1011.42         1213.03 
        0.27624         1185.68         975.807         1176.11 
       0.282372         1135.17         938.058         1145.91 
        0.28843         1121.44         899.348         1112.12 
       0.294538         1068.36         860.573         1082.58 
       0.300721         1064.99         823.396         1052.27 
        0.30691          1019.2         789.706         1032.76 
       0.313033         1000.75         760.393         1000.87 
       0.319153          979.58         734.922         976.672 
       0.325316         949.137         712.182          962.53 
        0.33145         927.005         691.317         930.359 
       0.337538         916.332         671.185         913.644 
       0.343633         891.457         650.864         903.422 
       0.349808         863.936         629.773         886.117 
       0.355968         859.365         608.409         869.795 
       0.362074         846.679         587.413         849.914 
       0.368217          823.49         567.053         826.076 
       0.374374         791.567          547.97         811.718 
       0.380519         788.605         530.476          794.94 
       0.386598         771.374         514.732         784.358 
       0.392688         768.624         500.272         766.692 
        0.39888         746.513         486.508         756.638 
       0.405048         735.407         473.365         748.472 
       0.411186         723.626         460.507         730.055 
       0.417313         710.412         447.707         716.154 
       0.423458         699.658         434.945         705.737 
       0.429607         686.858          422.33         691.132 
       0.435692         672.751         410.195          679.53 
       0.441815         669.415          398.53         675.262 
       0.447964         655.282          387.47         663.556 
       0.454126         641.543          377.06         648.087 
       0.460267         632.074         367.337         645.807 
       0.466387         625.332         358.164         633.543 
        0.47254          614.33         349.305         626.559 
       0.478662         612.754          340.74         616.109 
       0.484765         596.282         332.388         605.177 
       0.490885         590.978         324.147         597.081 
       0.497035         579.903         316.008         591.447 
       0.503198         572.908         308.066         582.949 
       0.509342         567.756         300.421         575.815 
       0.515458         563.488         293.116         572.333 
       0.521598         552.396         286.094         563.201 
       0.527764         540.646         279.362         556.058 
       0.533884         539.748         272.977         549.879 
           0.54         532.813         266.838         543.013 
       0.546137         530.736         260.865         536.754 
       0.552299         521.132         255.017         529.734 
       0.558452         518.174          249.32         524.907 
       0.564573         509.708         243.792          520.44 
       0.570708           503.2         238.393         515.938 
       0.576825         492.862         233.156         507.068 
       0.582926         492.018         228.092         501.738 
       0.589034         487.096         223.188         495.223 
       0.595184         482.505          218.43         489.966 
       0.601379         477.459         213.811         486.736 
       0.607522         470.319         209.382         481.351 
       0.613639         469.392         205.104         477.441 
       0.619772         456.967         200.927         475.569 
       0.625918         456.236         196.846         469.762 
       0.632068          450.06         192.867         463.899 
       0.638161         448.326         189.028         459.062 
         0.6443         439.691         185.264         456.152 
       0.650464         437.472         181.591         448.785 
       0.656582         436.446         178.046         445.027 
       0.662703         432.665         174.599         443.675 
       0.668861         425.011         171.227         439.601 
       0.675024         421.558         167.947         435.533 
       0.681124          419.59          164.79         429.355 
       0.687237         415.037         161.712         425.743 
       0.693381         409.725         158.701         422.403 
       0.699536         405.633         155.763         419.704 
       0.705665         403.488         152.913         416.146 
       0.711789         399.522         150.135         412.301 
       0.717957         396.221         147.406         409.786 
        0.72409         392.701         144.759         406.767 
       0.730186         388.741         142.192         403.479 
       0.736317          385.52         139.674         399.089 
       0.742472         384.104         137.209         395.506 
       0.748622         380.107         134.807          392.26 
        0.75476         376.305         132.469         391.548 
       0.760888         371.829         130.193         386.814 
       0.767043         371.951         127.962         384.337 
       0.773185         366.835          125.79         381.337 
       0.779291         361.754         123.682         377.844 
       0.785407         360.328          121.62         375.492 
       0.791564         356.708         119.592         372.949 
       0.797719         354.223         117.612         370.141 
       0.803834         351.542          115.69         367.776 
       0.809972         349.107         113.804         365.054 
       0.816124         349.452         111.957         361.097 
       0.822261         343.341         110.156         359.105 
       0.828378         341.731           108.4         356.346 
       0.834502         340.143         106.682         354.676 
       0.840667         335.065         104.991         352.045 
       0.846816          334.03         103.341         349.731 
       0.852925         331.117         101.738          346.99 
       0.859047         329.888         100.165         344.661 
       0.865192          326.95         98.6217         342.526 
       0.871341         323.913           97.11          340.13 
       0.877463         321.735         95.6374         338.117 
       0.883569         319.467         94.1994         336.129 
       0.889708          316.93         92.7841         333.245 
       0.895864         313.137         91.3946         331.373 
       0.902008         312.775         90.0369         328.906 
       0.908149         310.806         88.7079         326.035 
       0.914301         307.017          87.404         324.716 
       0.920448         304.408         86.1278         321.537 
       0.926574         302.522         84.8819         319.721 
       0.932687         302.382         83.6637         317.051 
       0.938823         298.512         82.4652         316.681 
       0.944975         297.424         81.2878         314.873 
       0.951105         295.197          80.138         312.395 
       0.957225         292.451         79.0126         310.197 
       0.963368         289.007         77.9052         307.711 
       0.969511         287.572         76.8193         305.895 
       0.975621         285.327         75.7602         305.167 
       0.981748         285.607         74.7186         302.824 
       0.987916         282.223         73.6902         301.383 
        0.99406          279.17         72.6853         299.656 
        1.00019         279.158         71.7013         296.869 
        1.00632         276.729         70.7366         294.728 
        1.01246         274.337         69.7885         292.925 
        1.01859         273.964         68.8595          291.66 
        1.02471         270.962         67.9488          290.45 
        1.03085         268.161         67.0515          288.69 
        1.03698         267.309         66.1726         287.226 
        1.04314         265.237         65.3059         285.164 
        1.04929         263.059         64.4569          283.06 
        1.05541         262.193         63.6266         281.492 
        1.06154         259.639         62.8091         279.966 
        1.06769         258.814         62.0048         278.514 
        1.07382         257.049         61.2174         276.556 
        1.07993         255.013         60.4456         275.242 
        1.08607         254.047         59.6841         273.861 
        1.09222         252.097          58.935         272.078 
        1.09836         249.705         58.1999          271.19 
        1.10449         247.441         57.4783          269.25 
        1.11063         245.751         56.7683         267.553 
        1.11677         245.219         56.0707         265.999 
         1.1229         243.273         55.3861         264.857 
        1.12903         241.642         54.7125         263.541 
        1.13518          240.25         54.0497         261.806 
        1.14131         238.473         53.3983         260.402 
        1.14745         237.875         52.7582         258.957 
        1.15359          235.54         52.1285         257.442 
        1.15973         234.978          51.509         255.806 
        1.16584         232.196         50.9024         253.845 
        1.17197         231.805         50.3049         252.834 
        1.17811          229.83         49.7151         252.034 
        1.18424         228.384         49.1367         250.579 
        1.19038         227.551         48.5659         249.227 
        1.19652         225.875         48.0045         248.309 
        1.20267         224.747          47.452          246.27 
        1.20881         222.982         46.9085         245.607 
        1.21495          221.39         46.3744         243.462 
        1.22108         220.624         45.8488         242.645 
         1.2272         218.745         45.3326         240.595 
        1.23334         217.365         44.8233         239.803 
        1.23949         215.802         44.3207         239.192 
        1.24562         214.844         43.8273         237.356 
        1.25174         212.137         43.3422         236.569 
        1.25789          211.21          42.863         235.148 
        1.26402         210.319          42.392         233.551 
        1.27014         208.788         41.9293         233.051 
        1.27628         207.704         41.4721         232.135 
        1.28244         207.049          41.021         230.302 
        1.28858         205.222         40.5772         229.061 
        1.29471         203.216         40.1411         227.879 
        1.30084         202.182         39.7118         226.732 
        1.30697         200.934         39.2882         225.707 
        1.31312         199.935         38.8702          224.05 
        1.31925         198.977         38.4597         222.864 
        1.32537         197.779         38.0556         222.177 
        1.33151         196.057         37.6559         221.038 
        1.33765         195.114         37.2622         219.726 
        1.34378         193.909          36.875         218.537 
        1.34992         192.799         36.4931         217.402 
        1.35606         191.881         36.1158         216.027 
         1.3622         190.681         35.7446         215.082 
        1.36833         189.107         35.3796         214.099 
        1.37445         187.501         35.0198         212.652 
        1.38059         186.827          34.664         212.046 
        1.38675         185.552         34.3124         210.875 
        1.39288          184.58          33.967          209.35 
        1.39901         184.167         33.6267         208.814 
        1.40515          182.68         33.2902         207.984 
         1.4113         180.766         32.9586         206.695 
        1.41742         180.297         32.6327         205.745 
        1.42355         178.621         32.3107         205.164 
         1.4297         177.726         31.9921         203.836 
        1.43585         176.168          31.678         202.729 
        1.44198         175.717         31.3693         201.725 
        1.44809          174.72         31.0654         200.641 
        1.45423         173.081         30.7644         199.649 
        1.46036         172.529         30.4679         198.689 
        1.46649         171.433         30.1753         198.016 
        1.47263         170.528         29.8864         197.391 
        1.47877         169.396         29.6014         196.124 
        1.48491         167.981         29.3197         195.112 
        1.49104         167.372         29.0423         194.395 
        1.49718         165.531         28.7683         192.903 
        1.50333         164.934         28.4974         192.131 
        1.50947         164.069         28.2306         191.365 
         1.5156         163.038         27.9676         190.358 
        1.52172         161.948          27.708         189.546 
        1.52787         160.951         27.4512         188.538 
          1.534         160.317          27.198         187.528 
        1.54013         158.645         26.9483         186.774 
        1.54627         158.296         26.7013         186.015 
        1.55241          156.96         26.4573         185.054 
        1.55855          156.23         26.2168         183.968 
        1.56467         155.343           25.98         183.065 
         1.5708         154.262         25.7454         182.623 
        1.57695         153.229         25.5134         181.744 
        1.58308         152.661         25.2848         180.517 
        1.58922         151.828         25.0589         179.763 
        1.59535         150.491         24.8358         178.956 
         1.6015         149.994         24.6152         178.041 
        1.60764         148.825         24.3974         177.206 
        1.61376         147.964         24.1828         176.553 
        1.61989         147.042         23.9707         175.873 
        1.62604         146.265         23.7607         174.916 
        1.63218         145.369         23.5533         174.027 
        1.63831         144.366         23.3489         173.242 
        1.64444         143.619         23.1469         172.314 
        1.65059         142.914         22.9468         171.683 
        1.65673         141.772         22.7493         170.849 
        1.66285         141.389         22.5547          169.99 
        1.66898         140.362         22.3623         169.377 
        1.67512         139.574         22.1718         168.613 
        1.68127         138.519         21.9834          167.81 
         1.6874         137.127         21.7975         167.129 
        1.69353         136.787          21.614         166.492 
        1.69967         136.116         21.4322         165.492 
        1.70581         135.238         21.2525         164.666 
        1.71193         134.383         21.0756         164.004 
        1.71806         133.559         20.9004         163.038 
        1.72421         133.013         20.7268         162.374 
        1.73035         131.909         20.5554         161.721 
        1.73649         131.338          20.386         160.934 
        1.74262         130.571         20.2186         160.371 
        1.74876         129.956         20.0531         159.572 
        1.75489         128.654         19.8897         158.679 
        1.76101         128.292         19.7282         157.947 
        1.76715         127.178         19.5683         157.248 
        1.77329         126.775           19.41         156.546 
        1.77943         125.849         19.2534         155.876 
        1.78557         125.132         19.0988         155.266 
        1.79171         124.407         18.9459         154.706 
        1.79785          123.65         18.7946          154.05 
        1.80399         122.937          18.645         153.205 
        1.81012         122.275         18.4972         152.439 
        1.81625          121.44         18.3511         151.858 
        1.82239         121.088         18.2064         151.288 
        1.82853         120.441         18.0634         150.546 
        1.83466         119.449          17.922         149.757 
        1.84078         119.012         17.7823         149.103 
        1.84692         117.972         17.6438         148.646 
        1.85306          117.27         17.5067         147.959 
         1.8592         116.397         17.3713         147.264 
        1.86533         115.922         17.2373          146.79 
        1.87147         114.922         17.1047         145.891 
        1.87761         114.638         16.9734          145.09 
