# k  (h/Mpc)    P(k)  (Mpc/h)^3    P_linear(k)  (Mpc/h)^3     P_NL(k)  ShotnoiseSubtracted = false
     0.00783031         7568.75         7661.15         7655.34 
       0.013688         10297.1         10241.6         10191.6 
       0.019231         11060.5         11062.6         10977.5 
      0.0249154         10675.5         10865.6         10770.5 
      0.0312784         9887.63         9995.65         9890.58 
      0.0375637         8905.02         8940.86         8831.96 
      0.0433917         7893.86         8047.53         7928.72 
      0.0492413         7251.31         7332.81          7212.5 
      0.0555754         6561.48         6763.81         6642.81 
      0.0619321         6303.08         6339.74         6213.84 
       0.067871         5819.09         5996.77         5871.25 
      0.0738098         5462.93         5642.76         5484.46 
      0.0800417          4999.8         5226.86         5073.11 
      0.0862327          4608.8          4774.3          4656.9 
      0.0921407         4235.48         4336.89          4226.5 
      0.0982031         3813.97         3921.45         3853.75 
       0.104506         3550.65          3557.8         3525.85 
       0.110769         3273.86         3278.93          3231.2 
       0.116806         3057.81          3081.6         3034.43 
       0.122832         2927.46         2935.08         2898.51 
       0.129052         2749.11         2810.18         2775.58 
       0.135211         2631.07         2688.03         2653.97 
       0.141259         2531.33         2553.92         2537.03 
       0.147318         2400.63         2401.61          2403.3 
       0.153489         2216.58         2234.69         2218.21 
       0.159709         2092.53         2067.78         2079.88 
       0.165845         1999.63         1917.91         1973.84 
       0.171974         1871.27         1792.01         1853.45 
       0.178125         1776.97         1692.28         1785.61 
       0.184229         1709.48         1616.43         1706.12 
        0.19034         1609.19         1556.24         1647.34 
       0.196428          1588.7          1503.1          1580.5 
       0.202534          1542.6         1448.88         1533.73 
       0.208729         1476.14         1388.08          1464.1 
       0.214876         1406.43         1321.14         1424.14 
       0.220989         1366.53         1250.67         1368.76 
       0.227147         1293.63         1180.31         1307.68 
        0.23329         1242.07         1115.36         1264.68 
       0.239377          1218.2         1059.33         1216.31 
       0.245482         1141.01         1012.54         1162.05 
       0.251667         1132.47         973.701         1136.52 
       0.257832          1093.5         941.069         1102.41 
       0.263955         1060.44         911.603         1071.36 
       0.270079         1028.14         882.272          1041.8 
        0.27624         1018.47         851.209         1009.21 
       0.282372         975.208          818.28         981.636 
        0.28843         958.933         784.513         950.988 
       0.294538          913.92         750.689         925.591 
       0.300721         910.476         718.259         899.962 
        0.30691         870.261         688.871         881.261 
       0.313033         854.035         663.301         853.297 
       0.319153         832.996         641.082         833.021 
       0.325316         808.002         621.246         820.103 
        0.33145         788.136         603.044         792.536 
       0.337538         779.557         585.483         776.928 
       0.343633         757.083         567.757         767.755 
       0.349808         733.901         549.359         752.539 
       0.355968         729.314         530.723         738.047 
       0.362074         716.842         512.408         720.505 
       0.368217         697.671         494.648         699.496 
       0.374374         670.774         478.002         686.818 
       0.380519         666.381         462.741         672.045 
       0.386598         651.949         449.007         662.376 
       0.392688         649.122         436.394         647.742 
        0.39888         630.584         424.387          638.05 
       0.405048         620.234         412.923         631.358 
       0.411186         609.415         401.706         615.288 
       0.417313         598.902         390.541         602.201 
       0.423458         589.413         379.408         593.191 
       0.429607         577.724         368.404         580.963 
       0.435692         565.516         357.818          570.98 
       0.441815         562.454         347.643         566.803 
       0.447964         551.082         337.995         556.493 
       0.454126         536.408         328.914         543.577 
       0.460267         529.818         320.433         540.948 
       0.466387         524.107         312.431         530.642 
        0.47254         513.902         304.703         524.409 
       0.478662         512.658         297.232         515.125 
       0.484765         498.786         289.946         505.085 
       0.490885         493.693         282.757         498.902 
       0.497035         485.068         275.658         493.912 
       0.503198           477.4          268.73         486.439 
       0.509342         473.599         262.062         480.852 
       0.515458         469.303         255.689         477.619 
       0.521598         460.844         249.564         469.037 
       0.527764         451.554         243.691          462.56 
       0.533884         449.459         238.121         457.493 
           0.54         443.743         232.766         451.701 
       0.546137         442.076         227.556         446.676 
       0.552299          433.69         222.455          440.51 
       0.558452         430.446         217.485         436.026 
       0.564573           423.4         212.663         432.295 
       0.570708         417.269         207.953         428.233 
       0.576825         410.418         203.385         420.566 
       0.582926         408.196         198.967         415.964 
       0.589034         403.658          194.69         411.124 
       0.595184          400.02         190.539         405.736 
       0.601379         396.256          186.51         403.644 
       0.607522         389.673         182.647         399.126 
       0.613639         388.343         178.914         395.263 
       0.619772         378.533         175.272         392.742 
       0.625918         377.558         171.712         388.621 
       0.632068         372.482         168.241         382.928 
       0.638161         371.056         164.892         379.994 
         0.6443         364.212         161.608         376.843 
       0.650464         361.826         158.404         370.776 
       0.656582         360.776         155.312         367.696 
       0.662703         357.166         152.305         366.157 
       0.668861          351.19         149.364         362.399 
       0.675024         347.981         146.502         358.714 
       0.681124         346.703         143.748         354.403 
       0.687237         342.388         141.064          351.12 
       0.693381         337.762         138.437         348.177 
       0.699536         335.126         135.874         345.749 
       0.705665         333.287         133.388         343.314 
       0.711789         329.237         130.965         339.462 
       0.717957          326.88         128.584         337.142 
        0.72409         323.587         126.275         335.101 
       0.730186         320.124         124.036         332.241 
       0.736317         317.513          121.84         328.537 
       0.742472         316.167         119.689         325.592 
       0.748622         313.475         117.594         322.632 
        0.75476         310.622         115.555         321.457 
       0.760888         306.622         113.569         317.599 
       0.767043         306.099         111.623         315.849 
       0.773185         302.247         109.728         313.497 
       0.779291         297.522         107.889         310.514 
       0.785407         296.727          106.09         308.147 
       0.791564          293.96         104.322         306.094 
       0.797719         291.333         102.595         304.155 
       0.803834         289.514         100.918         301.659 
       0.809972         286.939          99.273         299.422 
       0.816124          287.38         97.6615         296.843 
       0.822261         282.449         96.0905         294.785 
       0.828378         280.877         94.5591         292.154 
       0.834502         280.307         93.0603         290.889 
       0.840667         275.599         91.5846         288.867 
       0.846816         274.768         90.1456         286.574 
       0.852925           272.5          88.747         284.261 
       0.859047         270.795         87.3755         282.455 
       0.865192           268.8          86.029         280.733 
       0.871341         266.015         84.7104         278.523 
       0.877463         264.449         83.4257         277.133 
       0.883569          262.27         82.1714         275.344 
       0.889708         260.309         80.9368          273.16 
       0.895864         257.224         79.7247         271.699 
       0.902008         256.864         78.5404         269.228 
       0.908149         255.267         77.3811         267.016 
       0.914301         252.321         76.2437         266.153 
       0.920448          250.25         75.1304         263.542 
       0.926574         249.091         74.0436          261.64 
       0.932687         248.293         72.9809         259.593 
       0.938823         245.467         71.9355         259.119 
       0.944975         244.008         70.9085         257.884 
       0.951105         242.652         69.9054         255.813 
       0.957225         239.932         68.9237         253.842 
       0.963368          237.47         67.9578         251.574 
       0.969511         236.359         67.0105         250.335 
       0.975621         234.609         66.0867         250.039 
       0.981748           234.7          65.178         247.771 
       0.987916         231.521         64.2809         246.662 
        0.99406          230.03         63.4043         245.239 
        1.00019         229.638          62.546         243.064 
        1.00632         227.362         61.7045         241.064 
        1.01246         225.801         60.8774         239.499 
        1.01859          224.59         60.0671         238.821 
        1.02471          223.01         59.2726         237.867 
        1.03085         220.584           58.49         236.191 
        1.03698         219.349         57.7233         234.766 
        1.04314         218.174         56.9672         233.382 
        1.04929         216.227         56.2266          231.79 
        1.05541         215.393         55.5023         230.541 
        1.06154         213.814         54.7892         229.397 
        1.06769         213.357         54.0876         228.185 
        1.07382         211.719         53.4007          226.65 
        1.07993         210.025         52.7275         225.358 
        1.08607         208.782         52.0632         224.532 
        1.09222         207.443         51.4098         223.175 
        1.09836         205.508         50.7685          222.01 
        1.10449         203.791         50.1391         220.448 
        1.11063         202.596         49.5197         218.957 
        1.11677         202.014         48.9112         217.938 
         1.1229          200.06          48.314         216.901 
        1.12903         199.083         47.7264         215.744 
        1.13518         198.349         47.1482         214.461 
        1.14131         196.496         46.5801         213.124 
        1.14745           195.9         46.0217         212.045 
        1.15359         194.158         45.4724          210.79 
        1.15973         193.777          44.932         209.588 
        1.16584         191.595         44.4029         208.198 
        1.17197         190.985         43.8816         207.016 
        1.17811         189.695         43.3672          206.59 
        1.18424         188.427         42.8626         205.213 
        1.19038         187.814         42.3647         204.217 
        1.19652         186.467         41.8749         203.386 
        1.20267         185.252          41.393         202.057 
        1.20881         183.976         40.9189         201.378 
        1.21495         182.856          40.453         199.543 
        1.22108         182.138         39.9945         199.192 
         1.2272         180.598         39.5442         197.592 
        1.23334         179.484            39.1         196.889 
        1.23949         177.645         38.6615         195.947 
        1.24562         177.255         38.2311         194.662 
        1.25174         175.062          37.808         193.899 
        1.25789         174.513           37.39          192.88 
        1.26402         173.734         36.9791         191.562 
        1.27014         172.464         36.5755         191.457 
        1.27628         171.701         36.1767         190.715 
        1.28244         170.844         35.7832         188.885 
        1.28858         169.762          35.396         187.927 
        1.29471         167.948         35.0156         187.306 
        1.30084         167.149         34.6411         186.286 
        1.30697          166.28         34.2716         185.281 
        1.31312         165.802          33.907         183.976 
        1.31925         164.347         33.5489         183.229 
        1.32537         163.777         33.1964         182.515 
        1.33151         162.036         32.8477         181.554 
        1.33765         161.583         32.5043         180.733 
        1.34378         160.339         32.1666         179.572 
        1.34992         159.817         31.8334         178.832 
        1.35606         158.677         31.5043         177.704 
         1.3622         157.738         31.1805         176.918 
        1.36833         156.695         30.8621         176.021 
        1.37445         155.412         30.5483         174.956 
        1.38059         155.252         30.2379         174.475 
        1.38675         153.881         29.9311         173.431 
        1.39288         153.317         29.6299         172.547 
        1.39901         152.592          29.333         171.916 
        1.40515         151.618         29.0395         171.115 
         1.4113         149.788         28.7502         170.268 
        1.41742         149.591         28.4659         169.648 
        1.42355         148.403         28.1851         168.899 
         1.4297         147.478         27.9071         167.874 
        1.43585         146.334         27.6331         167.026 
        1.44198         146.098         27.3639         166.262 
        1.44809         144.899         27.0987         165.388 
        1.45423         143.692         26.8362          164.46 
        1.46036         143.328         26.5776         163.738 
        1.46649         142.539         26.3224         163.219 
        1.47263         141.946         26.0703         162.609 
        1.47877         140.918         25.8217         161.593 
        1.48491          139.78         25.5759          160.92 
        1.49104         139.041          25.334          160.28 
        1.49718         137.893         25.0949          158.98 
        1.50333         137.256         24.8587         158.502 
        1.50947         136.383         24.6259         157.879 
         1.5156         135.924         24.3965         157.079 
        1.52172         134.845         24.1701           156.6 
        1.52787         134.371         23.9461         155.519 
          1.534         133.614         23.7252         154.813 
        1.54013         132.382         23.5074         154.177 
        1.54627         131.847         23.2919         153.499 
        1.55241         131.008         23.0791         152.892 
        1.55855         130.441         22.8693         151.936 
        1.56467         129.613         22.6627         151.173 
         1.5708         128.708         22.4581         150.756 
        1.57695         128.161         22.2557         150.056 
        1.58308         127.148         22.0563         149.147 
        1.58922         126.955         21.8592         148.486 
        1.59535         125.946         21.6646         147.877 
         1.6015         125.366         21.4722         147.198 
        1.60764         124.417         21.2822         146.588 
        1.61376         123.844          21.095         146.067 
        1.61989         123.252           20.91         145.351 
        1.62604         122.287         20.7268         144.543 
        1.63218         121.794         20.5459         143.907 
        1.63831         120.919         20.3676         143.439 
        1.64444         120.254         20.1913         142.756 
        1.65059          119.57         20.0168         141.935 
        1.65673         118.639         19.8445          141.37 
        1.66285         118.469         19.6747         140.868 
        1.66898         117.466         19.5069         140.192 
        1.67512         116.865         19.3407         139.629 
        1.68127         116.059         19.1764         138.942 
         1.6874         115.223         19.0143         138.216 
        1.69353         114.698         18.8542         137.673 
        1.69967         114.168         18.6956         137.053 
        1.70581         113.507         18.5389         136.369 
        1.71193         112.938         18.3845         135.785 
        1.71806          111.96         18.2317         135.376 
        1.72421         111.679         18.0803         134.737 
        1.73035         110.746         17.9307         134.001 
        1.73649         110.144          17.783         133.403 
        1.74262         109.644          17.637         132.967 
        1.74876         108.983         17.4926         132.332 
        1.75489          108.17         17.3501         131.606 
        1.76101         107.867         17.2092         130.979 
        1.76715         106.859         17.0697         130.399 
        1.77329         106.534         16.9316         129.953 
        1.77943         105.968          16.795         129.483 
        1.78557         105.382         16.6601         128.855 
        1.79171         104.696         16.5267         128.331 
        1.79785         104.118         16.3947         127.856 
        1.80399         103.573         16.2643         127.263 
        1.81012         103.038         16.1354         126.677 
        1.81625         102.279         16.0079          126.12 
        1.82239          101.98         15.8817         125.574 
        1.82853         101.514         15.7569         125.048 
        1.83466         100.603         15.6336         124.465 
        1.84078          100.35         15.5117         123.934 
        1.84692         99.5001         15.3909         123.615 
        1.85306         98.8291         15.2713         123.049 
         1.8592         98.2015         15.1532         122.416 
        1.86533         97.7862         15.0364         121.977 
        1.87147         96.9477         14.9206         121.148 
        1.87761         96.6537         14.8061         120.501 
