# k  (h/Mpc)    P(k)  (Mpc/h)^3    P_linear(k)  (Mpc/h)^3     P_NL(k)  ShotnoiseSubtracted = false
     0.00783031         11611.7         11770.1         11756.9 
       0.013688         15846.5         15730.7         15636.9 
       0.019231           16975         16990.2         16828.9 
      0.0249154         16305.5         16686.9         16489.2 
      0.0312784         15107.5         15350.4         15113.2 
      0.0375637         13620.9         13730.4         13481.5 
      0.0433917         12019.6         12358.3         12081.7 
      0.0492413         11060.2         11260.7         10979.1 
      0.0555754          9947.8         10386.8         10106.4 
      0.0619321         9604.39         9735.55         9445.58 
       0.067871          8809.5         9208.84         8922.63 
      0.0738098         8269.51         8665.18         8305.54 
      0.0800417         7541.05         8026.49         7678.37 
      0.0862327         6966.25         7331.52         7064.29 
      0.0921407         6428.31         6659.82         6410.05 
      0.0982031         5794.03         6021.84         5864.43 
       0.104506         5425.66         5463.42         5385.44 
       0.110769         5007.59         5035.18         4928.15 
       0.116806         4690.37         4732.15         4625.84 
       0.122832         4481.23         4507.14         4423.18 
       0.129052         4191.64         4315.35         4237.96 
       0.135211         4012.21         4127.76         4048.52 
       0.141259          3871.5         3921.83         3882.83 
       0.147318          3679.5         3687.93         3682.83 
       0.153489         3395.28         3431.61         3394.65 
       0.159709         3221.56          3175.3         3198.07 
       0.165845         3104.77         2945.15         3056.08 
       0.171974         2918.38         2751.82         2880.17 
       0.178125         2774.84         2598.67         2790.96 
       0.184229         2663.65          2482.2         2662.44 
        0.19034         2524.12         2389.76         2575.73 
       0.196428         2488.98         2308.16         2475.44 
       0.202534         2406.01          2224.9         2407.34 
       0.208729          2312.4         2131.54         2295.36 
       0.214876         2222.08         2028.75         2238.87 
       0.220989         2156.84         1920.54         2164.41 
       0.227147         2061.77          1812.5         2082.45 
        0.23329         1984.43         1712.74         2019.14 
       0.239377          1959.7         1626.71         1943.89 
       0.245482            1842         1554.85         1863.27 
       0.251667         1834.23         1495.22         1826.79 
       0.257832         1767.21         1445.11         1775.47 
       0.263955         1713.21         1399.86         1730.75 
       0.270079         1661.87         1354.82         1686.29 
        0.27624         1646.79         1307.12          1637.9 
       0.282372         1578.19         1256.55         1604.15 
        0.28843         1574.66          1204.7         1564.14 
       0.294538         1501.68         1152.76         1521.67 
       0.300721          1495.4         1102.96         1477.84 
        0.30691          1437.9         1057.83            1457 
       0.313033         1411.27         1018.57         1415.32 
       0.319153          1393.1         984.447          1379.5 
       0.325316         1347.02         953.987         1363.02 
        0.33145         1319.23         926.036         1318.43 
       0.337538         1300.86         899.069         1299.53 
       0.343633         1272.58         871.848         1285.53 
       0.349808         1234.35         843.596         1263.11 
       0.355968         1227.02         814.979         1242.18 
       0.362074         1214.66         786.855         1216.47 
       0.368217         1179.24         759.582         1186.25 
       0.374374         1137.59          734.02         1167.11 
       0.380519         1139.12         710.586         1145.67 
       0.386598         1112.18         689.496            1131 
       0.392688         1107.17         670.127         1107.49 
        0.39888         1077.32          651.69         1094.96 
       0.405048         1065.49         634.085         1081.09 
       0.411186          1050.4         616.861         1058.93 
       0.417313         1029.64         599.715         1044.45 
       0.423458         1014.26         582.619         1027.57 
       0.429607         999.536         565.721         1008.36 
       0.435692         981.448         549.466         991.231 
       0.441815         976.672          533.84           988.4 
       0.447964         954.721         519.026         973.634 
       0.454126         945.646         505.081         949.234 
       0.460267         926.842         492.057         948.605 
       0.466387         915.164         479.769         930.741 
        0.47254         907.497         467.903         920.597 
       0.478662         900.274          456.43         908.865 
       0.484765         878.933         445.241         897.113 
       0.490885         873.041         434.202         882.083 
       0.497035         854.251         423.301         874.688 
       0.503198         849.936         412.662         864.541 
       0.509342         839.649         402.422          850.77 
       0.515458         836.353         392.636         846.815 
       0.521598         818.153          383.23         838.349 
       0.527764         800.627         374.212         829.231 
       0.533884         802.103         365.659         820.047 
           0.54         792.911         357.436          811.34 
       0.546137         786.727         349.436         801.799 
       0.552299          776.46         341.602         790.919 
       0.558452         771.614          333.97          785.16 
       0.564573         759.815         326.565         778.062 
       0.570708         753.236         319.333         770.639 
       0.576825         732.936         312.319         759.849 
       0.582926         736.811         305.534          753.62 
       0.589034           729.9         298.966         742.344 
       0.595184         722.293         292.592         737.344 
       0.601379         713.525         286.405         731.562 
       0.607522         704.144         280.473         722.012 
       0.613639         705.639         274.741         719.022 
       0.619772         688.074         269.147         717.427 
       0.625918         684.758         263.681          708.23 
       0.632068         676.936          258.35         703.166 
       0.638161         674.704         253.208         691.287 
         0.6443         661.523         248.166          688.73 
       0.650464         660.379         243.245         678.775 
       0.656582         657.525         238.497         674.113 
       0.662703         652.649         233.879         670.494 
       0.668861         641.097         229.363         666.911 
       0.675024         636.409         224.968          662.57 
       0.681124          633.28          220.74         651.633 
       0.687237         627.648         216.617          646.71 
       0.693381         620.749         212.584         641.286 
       0.699536         610.312         208.649         637.026 
       0.705665         610.962          204.83          631.09 
       0.711789         605.328          201.11         625.691 
       0.717957         599.639         197.454         623.915 
        0.72409         596.549         193.908         618.415 
       0.730186         588.238          190.47         613.157 
       0.736317          584.91         187.097         607.197 
       0.742472         582.281         183.795         602.518 
       0.748622         575.909         180.577          597.89 
        0.75476         567.474         177.446         598.262 
       0.760888           562.5         174.396         590.846 
       0.767043         562.217         171.408           584.7 
       0.773185         556.033         168.499         581.285 
       0.779291         551.355         165.675         576.247 
       0.785407          546.32         162.912          573.03 
       0.791564         540.637         160.196         571.016 
       0.797719         538.078         157.544         565.045 
       0.803834         533.846          154.97         562.202 
       0.809972         530.314         152.444         559.259 
       0.816124         529.635         149.969         551.253 
       0.822261         521.403         147.557         548.688 
       0.828378         518.724         145.205         545.234 
       0.834502         513.574         142.903         543.516 
       0.840667         509.061         140.637         539.402 
       0.846816         506.579         138.428         535.462 
       0.852925         501.384          136.28         532.157 
       0.859047         501.901         134.174         527.402 
       0.865192         495.805         132.106         523.993 
       0.871341         491.528         130.081         521.521 
       0.877463         489.903         128.109         518.114 
       0.883569         484.788         126.182         514.503 
       0.889708         482.276         124.287         510.223 
       0.895864          478.46         122.425         507.644 
       0.902008         475.545         120.607          504.67 
       0.908149         471.166         118.826         500.092 
       0.914301         467.417          117.08          496.69 
       0.920448          464.26          115.37         493.875 
       0.926574         457.713         113.701         490.426 
       0.932687         457.921          112.07         487.426 
       0.938823         452.387         110.464         486.267 
       0.944975         453.023         108.887         482.367 
       0.951105         446.427         107.347         477.937 
       0.957225         443.441         105.839         476.886 
       0.963368         439.566         104.356         473.619 
       0.969511         437.742         102.901          470.16 
       0.975621         434.271         101.483         467.359 
       0.981748         432.421         100.087         463.976 
       0.987916         429.187         98.7098         463.027 
        0.99406         422.158         97.3637         459.581 
        1.00019         421.499         96.0456         454.472 
        1.00632         419.053         94.7534          452.35 
        1.01246         415.569         93.4834         449.644 
        1.01859         415.431          92.239         446.276 
        1.02471         409.785          91.019         445.034 
        1.03085         407.361         89.8172          443.54 
        1.03698         406.081         88.6398         440.979 
        1.04314         402.063         87.4789         437.946 
        1.04929         397.545         86.3416         434.376 
        1.05541         397.479         85.2294         431.535 
        1.06154         392.307         84.1342         428.997 
        1.06769          389.44         83.0569         426.085 
        1.07382         387.638         82.0021         423.886 
        1.07993         385.141         80.9683         421.825 
        1.08607         384.003         79.9482         418.579 
        1.09222         380.306         78.9449         416.009 
        1.09836         377.717         77.9602         414.985 
        1.10449         373.797         76.9936         412.128 
        1.11063         370.537         76.0425         408.852 
        1.11677         370.331          75.108          407.42 
         1.1229          368.18          74.191         405.061 
        1.12903         364.454         73.2887         402.859 
        1.13518         361.004         72.4008         400.246 
        1.14131         359.843         71.5283         397.936 
        1.14745         356.799         70.6709         395.728 
        1.15359         354.699         69.8274         393.921 
        1.15973         352.271         68.9975         391.577 
        1.16584         349.821          68.185         389.232 
        1.17197         348.607         67.3846         387.126 
        1.17811          345.37         66.5946         385.242 
        1.18424         342.041         65.8198         383.736 
        1.19038         340.149         65.0552         381.368 
        1.19652          337.98         64.3031         379.244 
        1.20267         336.636         63.5631         376.312 
        1.20881          334.89          62.835         374.641 
        1.21495         331.727         62.1196         372.184 
        1.22108         329.908         61.4155         369.974 
         1.2272         327.361         60.7241         367.572 
        1.23334         324.971         60.0419         365.446 
        1.23949         323.643         59.3687         364.309 
        1.24562          321.47         58.7077         362.494 
        1.25174         318.225         58.0579         360.491 
        1.25789         315.624          57.416         358.631 
        1.26402         314.197         56.7851         356.985 
        1.27014         311.731         56.1653         354.126 
        1.27628         309.873         55.5529         353.388 
        1.28244         309.143         54.9486         351.967 
        1.28858         305.566         54.3542         349.388 
        1.29471         303.078         53.7699         346.621 
        1.30084         302.085         53.1949         345.101 
        1.30697         299.657         52.6275         343.889 
        1.31312         296.974         52.0676         342.172 
        1.31925         296.708         51.5177         339.689 
        1.32537         295.071         50.9764         337.495 
        1.33151         291.571          50.441         336.367 
        1.33765         289.813         49.9137         334.621 
        1.34378         288.583          49.395         332.668 
        1.34992         286.361         48.8834         330.333 
        1.35606         285.304          48.378         328.686 
         1.3622         283.037         47.8808         327.366 
        1.36833         280.861         47.3918         326.234 
        1.37445         279.348         46.9099         323.476 
        1.38059         276.384         46.4333         322.684 
        1.38675         275.584         45.9623         321.559 
        1.39288         273.358         45.4997         318.271 
        1.39901         272.378         45.0437          316.88 
        1.40515         270.223          44.593         315.188 
         1.4113         268.712         44.1488         313.247 
        1.41742         266.903         43.7123         312.061 
        1.42355         264.403          43.281         310.252 
         1.4297          262.99         42.8542         308.701 
        1.43585         261.352         42.4334         307.917 
        1.44198         259.761         42.0199         305.579 
        1.44809         258.114         41.6128         304.648 
        1.45423         255.803         41.2096         302.024 
        1.46036         254.967         40.8125         300.637 
        1.46649         252.465         40.4206         299.639 
        1.47263         251.026         40.0335         297.866 
        1.47877         249.604         39.6518         295.995 
        1.48491         247.698         39.2744         294.464 
        1.49104         246.879         38.9028          292.95 
        1.49718         244.384         38.5358         292.002 
        1.50333         243.036         38.1729          290.94 
        1.50947         241.451         37.8156          289.43 
         1.5156         239.337         37.4633         287.497 
        1.52172         238.651         37.1156         285.504 
        1.52787         236.705         36.7716         284.483 
          1.534          235.53         36.4324         283.319 
        1.54013         233.236         36.0979         281.697 
        1.54627         232.562          35.767         280.352 
        1.55241         230.544         35.4402          279.22 
        1.55855         229.192          35.118          277.86 
        1.56467         227.525         34.8008         276.018 
         1.5708          227.23         34.4866         274.466 
        1.57695         224.668         34.1758          273.39 
        1.58308         223.521         33.8696         271.967 
        1.58922         221.099          33.567         270.459 
        1.59535         219.832         33.2682          269.52 
         1.6015         219.446         32.9727          268.12 
        1.60764         217.516         32.6809         266.342 
        1.61376         215.837         32.3935         265.136 
        1.61989         214.559         32.1094         264.008 
        1.62604          213.29          31.828         262.695 
        1.63218         211.908         31.5502           261.6 
        1.63831         210.545         31.2764         260.504 
        1.64444         209.711         31.0058         258.893 
        1.65059         207.637         30.7378         257.735 
        1.65673          206.82         30.4732         256.609 
        1.66285         205.332         30.2125         255.151 
        1.66898         203.764         29.9548         253.608 
        1.67512         203.141         29.6996         252.669 
        1.68127         200.805         29.4472         251.418 
         1.6874         199.728         29.1983         250.152 
        1.69353         198.694         28.9525         249.447 
        1.69967         197.256         28.7089         247.929 
        1.70581          196.11         28.4683         246.611 
        1.71193         194.725         28.2313         245.625 
        1.71806         193.952         27.9965         244.125 
        1.72421         192.227          27.764         243.134 
        1.73035         191.444         27.5344         241.952 
        1.73649         190.182         27.3075         240.512 
        1.74262         188.861         27.0833         239.928 
        1.74876         187.706         26.8616         238.805 
        1.75489          186.11         26.6427         237.418 
        1.76101         185.161         26.4264         236.437 
        1.76715         184.266         26.2123          235.47 
        1.77329         183.255         26.0002         234.319 
        1.77943         182.059         25.7904          233.06 
        1.78557         180.718         25.5833         231.861 
        1.79171         179.451         25.3784         230.875 
        1.79785         178.083         25.1758         229.844 
        1.80399         177.184         24.9754         228.619 
        1.81012         176.001         24.7775         227.871 
        1.81625         175.226         24.5818         226.896 
        1.82239         173.792         24.3879         225.509 
        1.82853         173.162         24.1963          224.49 
        1.83466         171.679         24.0069         223.382 
        1.84078         170.835         23.8198         222.249 
        1.84692         169.316         23.6343         221.577 
        1.85306          168.72         23.4507         220.468 
         1.8592         167.365         23.2692         219.264 
        1.86533         166.439         23.0898         218.716 
        1.87147         165.171         22.9121         217.937 
        1.87761         164.656         22.7363         216.769 
