# k  (h/Mpc)    P(k)  (Mpc/h)^3    P_linear(k)  (Mpc/h)^3     P_NL(k)  ShotnoiseSubtracted = false
     0.00783031         3443.03         3478.79         3477.09 
       0.013688         4662.23          4651.1         4633.31 
       0.019231         5025.09         5024.26         4994.85 
      0.0249154         4879.75            4935         4907.87 
      0.0312784         4515.37         4540.03         4516.04 
      0.0375637         4060.24         4061.03         4037.48 
      0.0433917         3620.19         3655.31         3631.57 
      0.0492413         3317.36          3330.7         3307.17 
      0.0555754         3024.55         3072.27         3047.97 
      0.0619321         2883.48         2879.67         2854.17 
       0.067871         2685.03         2723.89         2697.63 
      0.0738098         2521.93          2563.1         2529.58 
      0.0800417         2319.05         2374.19         2341.72 
      0.0862327         2131.43         2168.63         2144.28 
      0.0921407         1949.11         1969.95         1947.43 
      0.0982031         1755.53         1781.25         1768.54 
       0.104506         1620.17         1616.07         1611.43 
       0.110769         1493.03          1489.4         1480.69 
       0.116806         1392.43         1399.77         1391.11 
       0.122832         1334.67         1333.21         1327.05 
       0.129052         1261.53         1276.48         1270.44 
       0.135211          1205.9            1221          1215.4 
       0.141259         1155.94         1160.08         1157.92 
       0.147318          1094.1          1090.9         1093.97 
       0.153489         1011.95         1015.08         1013.05 
       0.159709          947.03         939.261         944.084 
       0.165845         895.914         871.183         887.075 
       0.171974         833.077         813.994         830.232 
       0.178125         790.478         768.695         792.804 
       0.184229         759.942         734.243         758.444 
        0.19034         716.656         706.899         730.879 
       0.196428         704.254         682.762         701.936 
       0.202534         685.739         658.134         679.161 
       0.208729         654.043         630.516         649.932 
       0.214876         618.909         600.112         627.229 
       0.220989         599.623         568.102         598.469 
       0.227147         561.679         536.143         567.654 
        0.23329         536.569         506.636          544.73 
       0.239377          519.89         481.187         522.279 
       0.245482         488.179         459.932         498.137 
       0.251667         480.698         442.291         484.257 
       0.257832         465.539         427.469         468.983 
       0.263955         450.647         414.084         454.586 
       0.270079         437.197         400.761         440.549 
        0.27624         430.007         386.651          425.22 
       0.282372         412.834         371.694         411.711 
        0.28843         398.245         356.355         396.818 
       0.294538         381.697         340.991         384.282 
       0.300721         375.951          326.26         372.666 
        0.30691         358.672         312.911         361.101 
       0.313033         349.493         301.296         348.603 
       0.319153         335.651         291.204         340.312 
       0.325316         328.528         282.193         333.154 
        0.33145         318.614         273.926         322.181 
       0.337538         314.145         265.949         313.684 
       0.343633         304.468         257.897         307.535 
       0.349808         295.788          249.54         300.234 
       0.355968         290.075         241.075          293.64 
       0.362074         282.196         232.755         285.211 
       0.368217         274.905         224.688          275.59 
       0.374374         266.626         217.127         269.683 
       0.380519         261.032         210.195         262.593 
       0.386598         254.711         203.956         256.836 
       0.392688         251.173         198.227         251.892 
        0.39888         244.798         192.773         245.395 
       0.405048         239.953         187.565         241.508 
       0.411186         234.898          182.47          236.57 
       0.417313         229.625         177.399          229.66 
       0.423458          225.06         172.342         225.193 
       0.429607         219.541         167.343          220.39 
       0.435692         213.128         162.535         216.094 
       0.441815          211.65         157.913         213.422 
       0.447964          208.27          153.53         208.335 
       0.454126         199.646         149.405         203.236 
       0.460267         197.353         145.553         200.852 
       0.466387         194.289         141.918         196.592 
        0.47254         191.027         138.408         193.411 
       0.478662         188.661         135.014         189.705 
       0.484765         184.079         131.705         185.326 
       0.490885         181.031         128.439         183.064 
       0.497035         178.648         125.214         180.569 
       0.503198         174.079         122.067         177.057 
       0.509342         171.111         119.038         174.481 
       0.515458         168.803         116.144         172.851 
       0.521598         166.901         113.361         168.708 
       0.527764         164.192         110.694         165.053 
       0.533884         161.331         108.164         162.959 
           0.54         158.977         105.731         160.732 
       0.546137         157.578         103.365         158.997 
       0.552299         155.307         101.048         155.754 
       0.558452         151.788           98.79         153.207 
       0.564573         149.075         96.5997         151.736 
       0.570708         147.632         94.4603         149.383 
       0.576825         145.205         92.3854         146.949 
       0.582926             143         90.3785         144.829 
       0.589034         140.142         88.4356         143.374 
       0.595184         138.831         86.5501         141.224 
       0.601379         137.598           84.72           139.9 
       0.607522         134.185         82.9652         137.072 
       0.613639          134.15         81.2698         135.724 
       0.619772         130.944          79.615         133.526 
       0.625918         129.997          77.998         132.636 
       0.632068         128.436         76.4214         130.257 
       0.638161         126.861         74.9002         129.247 
         0.6443         125.198         73.4087         127.138 
       0.650464         123.552         71.9532          125.05 
       0.656582         122.333         70.5487         124.274 
       0.662703         120.018         69.1827         122.249 
       0.668861         119.031         67.8467         121.127 
       0.675024         117.539         66.5468         119.473 
       0.681124         116.142          65.296         118.109 
       0.687237         114.246         64.0765         116.584 
       0.693381          113.14         62.8835         115.196 
       0.699536         111.648         61.7194         114.541 
       0.705665         112.186         60.5899         113.469 
       0.711789          109.21         59.4893         111.247 
       0.717957         108.671         58.4079         110.588 
        0.72409         107.082          57.359         109.975 
       0.730186         105.403          56.342         108.477 
       0.736317         105.217         55.3443         107.035 
       0.742472         103.764         54.3674         106.048 
       0.748622          103.09         53.4155         104.794 
        0.75476         101.875         52.4893         103.785 
       0.760888         100.599         51.5873         102.625 
       0.767043         99.5621         50.7035         102.074 
       0.773185         98.4845         49.8428         101.224 
       0.779291         97.8184         49.0074          100.18 
       0.785407         97.0346         48.1903         98.8815 
       0.791564          95.593         47.3869         97.9303 
       0.797719         94.4314         46.6024         97.2256 
       0.803834         94.1245         45.8408         96.0679 
       0.809972         92.5391         45.0936         95.3301 
       0.816124         91.7102         44.3616         94.6455 
       0.822261         91.2405          43.648         93.4566 
       0.828378         90.3237         42.9524         92.3077 
       0.834502         89.4041         42.2715         92.1801 
       0.840667          88.741         41.6013         91.2742 
       0.846816         87.7409         40.9476         90.3944 
       0.852925          86.877         40.3123         89.7813 
       0.859047          85.776         39.6893         88.6495 
       0.865192          85.587         39.0777         88.1107 
       0.871341         84.9721         38.4787         87.3016 
       0.877463         83.5129         37.8952         86.6906 
       0.883569         83.0724         37.3254         86.1197 
       0.889708         82.6562         36.7646         85.2355 
       0.895864         81.8132          36.214         84.6073 
       0.902008         81.2343         35.6761         83.9272 
       0.908149         80.5954         35.1495         83.2793 
       0.914301         79.8898         34.6328         82.8344 
       0.920448         79.0103         34.1271         81.9939 
       0.926574         78.6173         33.6335         81.0592 
       0.932687         77.9438         33.1507         80.7576 
       0.938823         76.8826         32.6759         79.9581 
       0.944975         76.7594         32.2094         79.2737 
       0.951105         75.9719         31.7537         78.9626 
       0.957225         75.1067         31.3078         78.3461 
       0.963368         74.7852          30.869         77.5306 
       0.969511          74.341         30.4388         77.0346 
       0.975621         73.7483         30.0191         76.8345 
       0.981748         72.9471         29.6064         76.0789 
       0.987916         72.6093         29.1989         75.5877 
        0.99406         72.2202         28.8007         75.1034 
        1.00019         71.1499         28.4108         74.5604 
        1.00632         71.0081         28.0286          74.087 
        1.01246         70.2853         27.6529         73.4773 
        1.01859          69.608         27.2848         72.9551 
        1.02471         69.7468         26.9239         72.5715 
        1.03085         68.9289         26.5684         72.0223 
        1.03698         68.1947         26.2201           71.48 
        1.04314         67.5561         25.8767         70.9129 
        1.04929         67.4082         25.5403         70.6698 
        1.05541         66.7219         25.2113         70.3737 
        1.06154         66.4966         24.8873         69.6551 
        1.06769         65.8937         24.5687         69.2686 
        1.07382         65.5128         24.2567         68.8804 
        1.07993         65.3006         23.9508         68.2867 
        1.08607         64.5999         23.6491         67.8507 
        1.09222         64.3651         23.3523         67.4906 
        1.09836         63.7568          23.061         67.0995 
        1.10449         63.4174         22.7751         66.5435 
        1.11063         62.5886         22.4938         66.1725 
        1.11677         62.3993         22.2173         65.7945 
         1.1229         62.2077         21.9461         65.4171 
        1.12903         61.3559         21.6792         65.0077 
        1.13518         61.2397         21.4165         64.5284 
        1.14131         61.0843         21.1585         64.2676 
        1.14745         60.3535         20.9048         63.8481 
        1.15359         60.0898         20.6553         63.6751 
        1.15973         59.4767         20.4098         63.1749 
        1.16584         59.0929         20.1695         62.7584 
        1.17197         58.9958         19.9327         62.3301 
        1.17811         58.4552          19.699         61.8479 
        1.18424         57.9429         19.4698         61.5452 
        1.19038         57.9157         19.2437         61.4456 
        1.19652         57.5085         19.0212         60.8668 
        1.20267         57.0812         18.8023         60.7301 
        1.20881         56.6849         18.5869         60.2924 
        1.21495         56.2959         18.3753         60.0702 
        1.22108         55.9191          18.167         59.5982 
         1.2272         55.3801         17.9625          59.384 
        1.23334         55.2172         17.7607         59.0489 
        1.23949         54.9539         17.5616         58.6029 
        1.24562          54.692         17.3661         58.3221 
        1.25174          54.362         17.1738         58.0863 
        1.25789         54.0757          16.984         57.6913 
        1.26402          53.727         16.7973         57.3777 
        1.27014         53.2426          16.614         57.0948 
        1.27628         53.0168         16.4328         56.7573 
        1.28244         52.6513         16.2541         56.6048 
        1.28858         52.4358         16.0782         56.2355 
        1.29471         52.1676         15.9054         55.9739 
        1.30084         51.8243         15.7353          55.594 
        1.30697         51.4145         15.5675         55.2535 
        1.31312          51.042         15.4019         55.1014 
        1.31925         50.9098         15.2392         54.7887 
        1.32537         50.6582         15.0791         54.5244 
        1.33151           50.31         14.9207         54.2657 
        1.33765         50.2001         14.7647         54.0191 
        1.34378         49.9645         14.6113         53.7132 
        1.34992         49.1749           14.46         53.4531 
        1.35606         49.1015         14.3105         53.2966 
         1.3622         48.8034         14.1634         53.0274 
        1.36833         48.6054         14.0187         52.7417 
        1.37445         48.5038         13.8762         52.4338 
        1.38059         48.2833         13.7352         52.2516 
        1.38675          47.869         13.5959         52.0071 
        1.39288         47.6463          13.459         51.7995 
        1.39901         47.2387         13.3242         51.5463 
        1.40515         47.0245         13.1909         51.2286 
         1.4113         46.9333         13.0594          51.014 
        1.41742         46.3771         12.9303         50.8851 
        1.42355          46.395         12.8027         50.4475 
         1.4297         46.0091         12.6765          50.218 
        1.43585         45.9372          12.552         50.1009 
        1.44198         45.5333         12.4297         49.8563 
        1.44809         45.3498         12.3093         49.5522 
        1.45423         45.1774           12.19         49.2964 
        1.46036          44.943         12.0726         49.0831 
        1.46649         44.6702         11.9566         48.8917 
        1.47263         44.4305         11.8421         48.7233 
        1.47877         44.2065         11.7292         48.5493 
        1.48491         43.9648         11.6176         48.1885 
        1.49104         43.8097         11.5077          48.033 
        1.49718         43.4285         11.3991         47.7987 
        1.50333         43.2733         11.2918         47.6593 
        1.50947         43.0358          11.186          47.511 
         1.5156          42.797         11.0818         47.2586 
        1.52172         42.4947          10.979         46.9853 
        1.52787         42.4994         10.8772         46.7769 
          1.534          42.164         10.7769         46.6258 
        1.54013           41.88         10.6779         46.3629 
        1.54627         41.8292         10.5801         46.1243 
        1.55241         41.5542         10.4834         45.9987 
        1.55855         41.3424         10.3881         45.8511 
        1.56467         41.1071         10.2943         45.6154 
         1.5708         40.9307         10.2013         45.4441 
        1.57695         40.5979         10.1094         45.2216 
        1.58308         40.6623         10.0188         44.9704 
        1.58922         40.3549          9.9293          44.885 
        1.59535         40.0402         9.84092         44.7528 
         1.6015         39.9171          9.7535         44.4802 
        1.60764         39.7982         9.66719         44.2568 
        1.61376         39.5859         9.58217         44.1232 
        1.61989         39.2081         9.49812         43.8826 
        1.62604         39.1389          9.4149         43.8064 
        1.63218         38.8384         9.33273         43.6973 
        1.63831         38.7574         9.25174         43.4201 
        1.64444         38.5721         9.17168         43.2104 
        1.65059         38.2796          9.0924         43.0737 
        1.65673         38.1999         9.01414         42.9075 
        1.66285         38.0061         8.93703         42.7435 
        1.66898          37.753          8.8608         42.6183 
        1.67512         37.6303         8.78532          42.435 
        1.68127         37.3369         8.71065         42.2307 
         1.6874         37.2649         8.63703         42.0312 
        1.69353         37.1239          8.5643         41.8398 
        1.69967         36.8774         8.49225         41.6852 
        1.70581         36.6642         8.42107         41.5922 
        1.71193         36.4349         8.35097         41.4641 
        1.71806         36.3907         8.28153          41.189 
        1.72421         36.1608         8.21275         41.0179 
        1.73035         36.0596         8.14484         40.9119 
        1.73649         35.8092         8.07771         40.7637 
        1.74262         35.6332          8.0114         40.5608 
        1.74876         35.5006         7.94579         40.4077 
        1.75489         35.2702         7.88106         40.2798 
        1.76101         35.1504         7.81708         40.1257 
        1.76715         34.9902         7.75373         39.9632 
        1.77329         34.8692           7.691            39.8 
        1.77943         34.6973         7.62895         39.6658 
        1.78557          34.492         7.56768         39.5587 
        1.79171         34.3402         7.50708         39.3905 
        1.79785         34.2034         7.44713         39.2345 
        1.80399         34.0612         7.38785         39.1505 
        1.81012         33.9241         7.32931         38.9224 
        1.81625         33.7431         7.27143         38.7053 
        1.82239         33.6014         7.21409         38.6121 
        1.82853         33.3235          7.1574         38.5078 
        1.83466         33.2127         7.10138          38.381 
        1.84078         32.9876         7.04602         38.2611 
        1.84692         32.9673         6.99117          38.161 
        1.85306         32.6993         6.93683         37.9798 
         1.8592         32.6302         6.88316          37.782 
        1.86533         32.4192          6.8301         37.6757 
        1.87147         32.3213         6.77754         37.5598 
        1.87761         32.2656         6.72551         37.4056 
