# k  (h/Mpc)    Pcb(k)  (Mpc/h)^3    Pcb_linear(k) (Mpc/h)^3    Pcb_NL(k) (Mpc/h)^3   ShotnoiseSubtracted = false
     0.00783031         4141.98         4186.39         4184.23 
       0.013688          5613.9         5597.03          5574.7 
       0.019231         6046.98            6046         6008.84 
      0.0249154         5865.42         5938.54         5902.75 
      0.0312784          5428.7         5463.22         5429.67 
      0.0375637         4883.05          4886.8          4853.3 
      0.0433917         4349.12         4398.58         4363.96 
      0.0492413         3987.27         4007.95         3973.43 
      0.0555754          3630.3         3696.97         3661.59 
      0.0619321         3466.28          3465.2         3428.14 
       0.067871         3222.49         3277.75         3239.96 
      0.0738098         3026.39         3084.26         3036.21 
      0.0800417         2780.52         2856.94         2810.32 
      0.0862327         2557.01         2609.58         2574.44 
      0.0921407         2340.34          2370.5         2337.77 
      0.0982031         2107.55         2143.43         2124.54 
       0.104506         1948.39         1944.67         1937.15 
       0.110769         1795.61         1792.24         1779.07 
       0.116806         1674.71         1684.38         1671.35 
       0.122832         1605.19         1604.29         1594.78 
       0.129052         1515.24         1536.03         1526.78 
       0.135211         1448.75         1469.26         1460.59 
       0.141259         1389.75         1395.96         1392.26 
       0.147318         1315.85          1312.7         1316.14 
       0.153489         1216.56         1221.47         1217.91 
       0.159709         1140.52         1130.24         1136.27 
       0.165845         1080.96         1048.32          1069.7 
       0.171974         1006.18           979.5         1001.63 
       0.178125          954.95         924.993         958.106 
       0.184229         918.355         883.535         916.523 
        0.19034         865.044         850.631         883.439 
       0.196428         851.269         821.585         848.043 
       0.202534         828.761         791.951         821.005 
       0.208729         790.771         758.717         785.334 
       0.214876         748.818         722.131         759.261 
       0.220989         726.246         683.613         725.396 
       0.227147         681.376         645.155         688.806 
        0.23329         651.683         609.649         662.196 
       0.239377         633.048         579.024         635.433 
       0.245482         593.618         553.447         606.079 
       0.251667         585.608          532.22         589.996 
       0.257832         567.053         514.384         571.548 
       0.263955         549.129         498.279         554.211 
       0.270079           532.7         482.247         537.385 
        0.27624         524.879         465.268         518.952 
       0.282372         503.632         447.269          502.81 
        0.28843          487.25         428.812         484.937 
       0.294538          466.51         410.324         470.294 
       0.300721         460.907         392.598         456.585 
        0.30691         439.742         376.534         443.246 
       0.313033         429.272          362.56         428.099 
       0.319153         413.299         350.413         418.076 
       0.325316         403.634         339.571         409.801 
        0.33145         391.881         329.622         396.155 
       0.337538         386.933         320.023          386.11 
       0.343633         374.983         310.333         379.291 
       0.349808         364.199         300.278         370.632 
       0.355968         358.206         290.091         362.623 
       0.362074         349.075         280.081         352.613 
       0.368217         340.122         270.373         341.057 
       0.374374          329.41         261.274         333.941 
       0.380519         323.273         252.933         325.525 
       0.386598         315.703         245.426         318.809 
       0.392688         311.936         238.531         312.704 
        0.39888         303.932         231.969         305.115 
       0.405048             298         225.702         300.876 
       0.411186         291.697         219.572         294.231 
       0.417313         285.928         213.468         285.954 
       0.423458         280.448         207.382          280.62 
       0.429607         273.783         201.368         274.913 
       0.435692         266.214         195.582         269.673 
       0.441815          264.52          190.02         266.671 
       0.447964          260.14         184.747         260.637 
       0.454126         249.581         179.784         254.307 
       0.460267         246.937         175.147         251.703 
       0.466387         243.606         170.774         246.555 
        0.47254         239.178          166.55         242.683 
       0.478662         236.743         162.466         238.144 
       0.484765         230.931         158.483         232.701 
       0.490885         227.398         154.554         229.955 
       0.497035         224.356         150.674         227.044 
       0.503198         218.689         146.887         222.976 
       0.509342         215.675         143.242         219.898 
       0.515458         212.862         139.759         217.984 
       0.521598         210.434         136.411         213.045 
       0.527764         207.026         133.201          208.73 
       0.533884         203.608         130.156         206.239 
           0.54         200.842         127.229          203.53 
       0.546137         199.375         124.381         201.397 
       0.552299         196.273         121.593         197.485 
       0.558452         192.428         118.877         194.503 
       0.564573         189.017         116.241         192.762 
       0.570708         186.878         113.667          189.91 
       0.576825         184.207          111.17         186.716 
       0.582926          181.63         108.755         184.213 
       0.589034         178.357         106.417         182.464 
       0.595184         176.773         104.148         179.717 
       0.601379         175.288         101.946          178.42 
       0.607522         171.078         99.8342         175.081 
       0.613639         170.943          97.794         173.386 
       0.619772         166.988         95.8029         170.667 
       0.625918         165.616         93.8571         169.549 
       0.632068         163.783         91.9598         166.643 
       0.638161         162.163         90.1293         165.589 
         0.6443         159.987         88.3347         163.081 
       0.650464         158.086         86.5831         160.298 
       0.656582         156.533         84.8931         159.375 
       0.662703         153.747         83.2494          157.04 
       0.668861         152.435         81.6417         155.609 
       0.675024         150.627         80.0775         153.532 
       0.681124         149.247         78.5724          152.05 
       0.687237         146.705         77.1049         150.107 
       0.693381         145.129         75.6693         148.428 
       0.699536         143.645         74.2685         147.517 
       0.705665         144.282         72.9093         146.408 
       0.711789         140.471          71.585         143.621 
       0.717957         139.924         70.2837         142.716 
        0.72409         137.929         69.0215         142.104 
       0.730186         135.704         67.7978         140.297 
       0.736317         135.524         66.5972         138.483 
       0.742472         134.001         65.4217         137.265 
       0.748622         133.124         64.2763          135.74 
        0.75476         131.675         63.1618         134.422 
       0.760888         130.014         62.0763         132.894 
       0.767043         128.729         61.0128         132.277 
       0.773185         127.452         59.9771         131.344 
       0.779291         126.384         58.9719         129.995 
       0.785407         125.516         57.9886         128.346 
       0.791564         123.835         57.0219         127.297 
       0.797719         122.396         56.0779          126.42 
       0.803834         121.927         55.1614         124.844 
       0.809972         119.922         54.2623          123.98 
       0.816124         119.348         53.3815         123.266 
       0.822261          118.44         52.5228         121.842 
       0.828378         117.267         51.6857         120.307 
       0.834502         116.326         50.8665         120.118 
       0.840667         115.317         50.0599         119.255 
       0.846816         114.212         49.2733         117.963 
       0.852925         112.955         48.5088         117.029 
       0.859047         111.672         47.7592         115.785 
       0.865192         111.479         47.0232         115.198 
       0.871341         110.494         46.3024         114.044 
       0.877463         108.948         45.6002          113.44 
       0.883569         108.324         44.9146         112.578 
       0.889708         107.761         44.2398          111.62 
       0.895864         106.706         43.5773         110.861 
       0.902008         106.003         42.9299         109.907 
       0.908149         105.225         42.2963         109.065 
       0.914301         104.087         41.6745         108.558 
       0.920448         103.338         41.0661         107.564 
       0.926574         102.724          40.472         106.261 
       0.932687         101.981         39.8911         105.853 
       0.938823         100.605         39.3197         104.942 
       0.944975         100.386         38.7583         104.186 
       0.951105         99.3596         38.2101         103.638 
       0.957225         98.1946         37.6735         103.007 
       0.963368         97.8502         37.1455         101.831 
       0.969511         97.2894         36.6277         101.251 
       0.975621         96.6539         36.1228         101.253 
       0.981748         95.6869         35.6261         100.107 
       0.987916         95.1307         35.1358         99.6414 
        0.99406         94.6743         34.6566         98.8964 
        1.00019         93.3174         34.1874         98.1789 
        1.00632         93.1248         33.7275         97.6308 
        1.01246         92.1355         33.2754         96.8108 
        1.01859          91.213         32.8325          96.192 
        1.02471         91.5689         32.3982         95.7769 
        1.03085          90.488         31.9704         95.0338 
        1.03698         89.6036         31.5514         94.3213 
        1.04314         88.7573         31.1381         93.7406 
        1.04929         88.5225         30.7333         93.4379 
        1.05541          87.757         30.3374         92.9916 
        1.06154         87.3861         29.9476         92.2066 
        1.06769         86.6308         29.5641         91.7227 
        1.07382          86.237         29.1887         91.1248 
        1.07993         85.8972         28.8207         90.4589 
        1.08607         85.0466         28.4576         89.8734 
        1.09222         84.6761         28.1004         89.2345 
        1.09836          84.006         27.7499         88.8242 
        1.10449         83.4743         27.4059         88.2176 
        1.11063         82.6112         27.0673         87.5627 
        1.11677         82.2227         26.7347         87.1172 
         1.1229         81.9241         26.4083         86.8353 
        1.12903         80.8204         26.0871         86.1998 
        1.13518         80.8568         25.7711         85.6865 
        1.14131         80.4911         25.4605         85.2673 
        1.14745         79.4336         25.1553         84.7358 
        1.15359          79.175         24.8551          84.534 
        1.15973         78.5328         24.5597         83.8588 
        1.16584         78.0172         24.2705         83.3366 
        1.17197         77.6663         23.9855         82.8552 
        1.17811         77.1674         23.7044         82.2224 
        1.18424         76.4448         23.4286         81.7936 
        1.19038         76.3421         23.1564         81.6926 
        1.19652         75.8871         22.8887          80.925 
        1.20267         75.2906         22.6253         80.7622 
        1.20881         74.7792         22.3661         80.1605 
        1.21495         74.2769         22.1115         79.8206 
        1.22108         73.7991         21.8609         79.3529 
         1.2272         73.2138         21.6148         79.0372 
        1.23334         72.9269         21.3719         78.5583 
        1.23949         72.6403         21.1323          78.027 
        1.24562         72.2691          20.897         77.6539 
        1.25174         71.7974         20.6657         77.3835 
        1.25789         71.4051         20.4372         76.8925 
        1.26402         70.8873         20.2127         76.4335 
        1.27014          70.299          19.992         76.0842 
        1.27628         70.0771         19.7741         75.6971 
        1.28244          69.461          19.559         75.3392 
        1.28858          69.188         19.3474         74.9675 
        1.29471         68.9505         19.1394         74.6742 
        1.30084         68.4598         18.9347         74.0574 
        1.30697         67.8794         18.7328         73.6672 
        1.31312         67.4832         18.5335         73.5563 
        1.31925         67.3253         18.3377         73.0947 
        1.32537         66.8981         18.1451         72.6796 
        1.33151         66.4823         17.9545         72.3874 
        1.33765         66.2902         17.7668         72.0587 
        1.34378          65.918         17.5822         71.6472 
        1.34992         65.0499         17.4001         71.3225 
        1.35606         64.8612         17.2202         71.1084 
         1.3622         64.4268         17.0432         70.7117 
        1.36833         64.2979         16.8691         70.2764 
        1.37445         64.0244         16.6976         70.0041 
        1.38059          63.682         16.5279         69.8512 
        1.38675         63.2679         16.3603         69.3529 
        1.39288         62.8691         16.1956         69.1602 
        1.39901         62.4614         16.0333         68.7967 
        1.40515         62.1781         15.8729         68.3908 
         1.4113         61.9873         15.7148         68.1541 
        1.41742         61.3455         15.5594         67.9739 
        1.42355         61.3051         15.4059         67.4162 
         1.4297         60.7785          15.254         67.1025 
        1.43585         60.6582         15.1042           66.93 
        1.44198         60.2671          14.957         66.6909 
        1.44809         59.8649         14.8121         66.1327 
        1.45423         59.7054         14.6686         65.8788 
        1.46036         59.2899         14.5272         65.6488 
        1.46649         59.0073         14.3877         65.4071 
        1.47263          58.704         14.2499         65.1683 
        1.47877         58.4412         14.1141         64.8213 
        1.48491         58.1005         13.9797         64.4279 
        1.49104         57.7835         13.8475         64.1409 
        1.49718         57.3585         13.7168         63.8588 
        1.50333         57.1507         13.5877         63.6916 
        1.50947         56.7721         13.4605          63.476 
         1.5156          56.498         13.3351         63.1745 
        1.52172         56.2324         13.2113         62.8721 
        1.52787         56.1222         13.0889         62.5688 
          1.534          55.712         12.9681         62.3528 
        1.54013         55.3504         12.8491          62.037 
        1.54627         55.2876         12.7313         61.7051 
        1.55241         54.9074          12.615         61.4895 
        1.55855         54.5407         12.5003         61.2784 
        1.56467          54.179         12.3873         60.9513 
         1.5708         54.0366         12.2755         60.7837 
        1.57695         53.6812         12.1649         60.5595 
        1.58308         53.6452         12.0559         60.1848 
        1.58922         53.3004         11.9482         60.0003 
        1.59535         52.9387         11.8418         59.8182 
         1.6015         52.7007         11.7366         59.4955 
        1.60764         52.5525         11.6328         59.2198 
        1.61376         52.3041         11.5305         59.0315 
        1.61989         51.7437         11.4293         58.6824 
        1.62604         51.6548         11.3292         58.4878 
        1.63218         51.3313         11.2303          58.341 
        1.63831         51.1267         11.1329         58.0584 
        1.64444         50.9577         11.0365         57.7602 
        1.65059         50.4694         10.9411         57.5735 
        1.65673         50.3471         10.8469         57.3107 
        1.66285         50.1674         10.7542         57.0839 
        1.66898         49.7885         10.6624         56.9961 
        1.67512         49.5656         10.5716         56.7746 
        1.68127         49.2412         10.4818         56.4336 
         1.6874         49.1757         10.3932          56.121 
        1.69353         48.8495         10.3056         55.9409 
        1.69967         48.6899         10.2189         55.7616 
        1.70581         48.4276         10.1333         55.6518 
        1.71193         48.0785         10.0489         55.4703 
        1.71806         47.8928         9.96538         55.0085 
        1.72421         47.5995         9.88261         54.7601 
        1.73035         47.4633         9.80089         54.7017 
        1.73649         47.2155         9.72011         54.5655 
        1.74262         46.9281         9.64032         54.1804 
        1.74876         46.8686         9.56138         53.9573 
        1.75489          46.453         9.48349         53.8229 
        1.76101          46.274          9.4065         53.6041 
        1.76715         46.0383         9.33026         53.4094 
        1.77329         45.8354         9.25478         53.2161 
        1.77943          45.669         9.18011         53.0147 
        1.78557         45.4315         9.10639         52.8175 
        1.79171         45.1521         9.03346         52.5917 
        1.79785         44.9722         8.96132         52.4187 
        1.80399         44.7538            8.89         52.3098 
        1.81012         44.5844         8.81955         51.9537 
        1.81625         44.2985          8.7499         51.6425 
        1.82239         44.1423          8.6809         51.5493 
        1.82853         43.7732         8.61268         51.4199 
        1.83466           43.62         8.54527         51.2182 
        1.84078         43.3324         8.47866         51.0244 
        1.84692         43.2476         8.41265         50.9175 
        1.85306         42.9525         8.34727         50.7113 
         1.8592         42.8182         8.28269         50.4604 
        1.86533         42.5084         8.21883         50.3157 
        1.87147         42.4006         8.15558         50.1313 
