# k  (h/Mpc)    P(k)  (Mpc/h)^3    P_linear(k)  (Mpc/h)^3     P_NL(k)  ShotnoiseSubtracted = false
     0.00783031         10163.8         10297.5         10287.3 
       0.013688         13856.9         13764.3         13687.5 
       0.019231         14857.6         14866.8         14735.3 
      0.0249154         14295.1         14601.7         14444.7 
      0.0312784         13243.5         13432.4         13248.3 
      0.0375637         11936.1         12014.9         11822.2 
      0.0433917           10549         10814.3         10601.1 
      0.0492413          9701.5         9853.82         9637.05 
      0.0555754         8743.67         9089.16          8872.6 
      0.0619321         8427.99         8519.27         8294.88 
       0.067871         7747.33         8058.38         7836.27 
      0.0738098         7272.46         7582.65         7303.27 
      0.0800417         6639.91         7023.76         6752.89 
      0.0862327         6129.29         6415.61         6207.94 
      0.0921407         5648.11         5827.83         5633.12 
      0.0982031         5088.59         5269.55         5147.75 
       0.104506         4756.12          4780.9         4721.15 
       0.110769         4387.96         4406.15         4321.95 
       0.116806         4105.49         4140.98         4057.53 
       0.122832         3925.35         3944.09         3878.48 
       0.129052         3676.08         3776.25         3715.18 
       0.135211         3519.04          3612.1          3550.4 
       0.141259          3392.2         3431.89            3401 
       0.147318         3221.41         3227.22         3224.75 
       0.153489         2972.89         3002.92         2973.34 
       0.159709         2816.44         2778.63         2796.73 
       0.165845          2706.4         2577.23         2666.56 
       0.171974         2540.56         2408.05         2509.81 
       0.178125         2414.25         2274.04         2427.59 
       0.184229         2319.79         2172.12         2317.05 
        0.19034         2191.76         2091.22         2240.05 
       0.196428         2162.95         2019.82         2151.18 
       0.202534         2094.26         1946.96         2090.59 
       0.208729         2009.53         1865.26          1993.7 
       0.214876         1925.36         1775.31         1943.51 
       0.220989         1869.56         1680.62         1875.13 
       0.227147         1781.46         1586.07         1799.71 
        0.23329         1713.32         1498.78         1744.07 
       0.239377         1688.45         1423.49         1678.56 
       0.245482         1584.65         1360.62         1606.95 
       0.251667         1576.63         1308.43         1574.48 
       0.257832         1519.83         1264.58         1529.01 
       0.263955         1473.67         1224.98          1488.8 
       0.270079         1429.06         1185.57         1449.86 
        0.27624         1416.69         1143.83         1407.15 
       0.282372         1356.68         1099.58         1374.49 
        0.28843         1347.69          1054.2         1337.22 
       0.294538         1284.16         1008.75         1301.44 
       0.300721         1279.88         965.175         1264.35 
        0.30691         1227.53         925.684          1244.1 
       0.313033          1205.4         891.324         1207.17 
       0.319153         1185.15         861.467         1177.28 
       0.325316         1146.99         834.811          1161.8 
        0.33145         1121.97         810.353         1123.35 
       0.337538         1107.72         786.755         1105.42 
       0.343633         1080.57         762.934         1093.45 
       0.349808         1047.44         738.212         1073.44 
       0.355968         1041.95          713.17         1054.75 
       0.362074          1029.3         688.558         1031.86 
       0.368217         1000.17         664.692         1004.59 
       0.374374         962.638         642.324          987.91 
       0.380519         961.906         621.817         968.585 
       0.386598         940.163         603.362         956.293 
       0.392688         936.766         586.412         935.134 
        0.39888         910.316         570.278         924.148 
       0.405048         898.615         554.873         913.384 
       0.411186         885.462         539.801         892.694 
       0.417313         868.334         524.797         878.231 
       0.423458         855.494         509.837         865.147 
       0.429607         841.581         495.049         847.778 
       0.435692         825.139         480.825         833.667 
       0.441815         821.241         467.151         829.806 
       0.447964          803.16         454.187         816.364 
       0.454126         791.718         441.984         796.723 
       0.460267         777.517         430.588         795.167 
       0.466387         768.824         419.835          780.15 
        0.47254         758.466         409.451         771.788 
       0.478662          754.89         399.411         760.429 
       0.484765         735.574          389.62          748.85 
       0.490885         729.988          379.96          737.49 
       0.497035         715.247         370.421         730.953 
       0.503198          709.62         361.111         721.456 
       0.509342         702.086          352.15         711.296 
       0.515458         698.107         343.587          707.63 
       0.521598         683.372         335.356         698.564 
       0.527764         668.455         327.464         690.409 
       0.533884         669.055          319.98         682.667 
           0.54         660.576         312.784         674.661 
       0.546137         657.228         305.783         666.665 
       0.552299         646.678         298.928         657.912 
       0.558452         643.436          292.25         652.669 
       0.564573         633.207          285.77         647.051 
       0.570708         626.645         279.441         641.429 
       0.576825         610.883         273.303          631.35 
       0.582926         612.602         267.366         625.319 
       0.589034         606.904         261.618         616.312 
       0.595184         600.662          256.04         611.455 
       0.601379         593.784         250.626         606.768 
       0.607522         585.719         245.435         599.514 
       0.613639         586.022          240.42         596.025 
       0.619772         570.446         235.524         594.657 
       0.625918         569.154         230.741         586.769 
       0.632068         561.821         226.077         581.235 
       0.638161         559.823         221.576         572.992 
         0.6443         548.738         217.164         570.442 
       0.650464         546.927         212.858         561.461 
       0.656582         545.352         208.704          557.14 
       0.662703         541.082         204.663         555.102 
       0.668861         531.305          200.71         551.127 
       0.675024         527.543         196.865         546.669 
       0.681124         524.782         193.165         538.098 
       0.687237         519.787         189.557         533.806 
       0.693381         513.675         186.027         529.706 
       0.699536         506.589         182.584         526.334 
       0.705665         505.456         179.242         521.416 
       0.711789         500.903         175.987         517.074 
       0.717957         496.345         172.787         514.705 
        0.72409         492.991         169.684         510.362 
       0.730186         487.224         166.676         506.296 
       0.736317         483.663         163.724         500.996 
       0.742472         481.851         160.834         496.731 
       0.748622          476.31         158.019          492.95 
        0.75476         470.452         155.279         492.894 
       0.760888         465.534          152.61         486.774 
       0.767043         466.152         149.996         482.801 
       0.773185         459.904         147.449         479.392 
       0.779291         455.006         144.978          475.21 
       0.785407         452.007         142.561         472.602 
       0.791564         447.175         140.184         469.914 
       0.797719         444.787         137.863         465.531 
       0.803834         441.213          135.61         463.221 
       0.809972         438.559           133.4         460.194 
       0.816124         438.444         131.234         453.971 
       0.822261         431.204         129.123         451.983 
       0.828378          429.17         127.066         448.911 
       0.834502         425.712         125.051         447.046 
       0.840667         420.775         123.069         443.672 
       0.846816         419.244         121.135          440.75 
       0.852925         415.005         119.255         437.735 
       0.859047         414.814         117.412         434.397 
       0.865192         410.331         115.603         431.534 
       0.871341          406.95         113.831         429.081 
       0.877463         404.531         112.105         426.235 
       0.883569         401.391         110.419          423.65 
       0.889708         398.498          108.76         420.048 
       0.895864         394.419         107.132         417.768 
       0.902008             393          105.54          415.14 
       0.908149         390.235         103.982         411.347 
       0.914301         385.885         102.454         409.088 
       0.920448         382.956         100.958         405.767 
       0.926574          379.06         99.4975         403.423 
       0.932687          379.46         98.0694         400.388 
       0.938823         374.399         96.6647         399.878 
       0.944975         374.313         95.2846         396.893 
       0.951105         369.951         93.9367         393.531 
       0.957225         367.227         92.6175         391.794 
       0.963368         363.261         91.3195         389.019 
       0.969511         361.488         90.0466         386.255 
       0.975621         358.661         88.8052         384.675 
       0.981748         358.323         87.5842         381.953 
       0.987916         355.042         86.3787         380.539 
        0.99406         349.673         85.2007         378.074 
        1.00019         349.591         84.0473         374.116 
        1.00632         347.214         82.9166         372.146 
        1.01246         344.093         81.8052         369.844 
        1.01859         344.227         80.7162         367.427 
        1.02471         339.622         79.6487         366.198 
        1.03085         336.792          78.597         364.589 
        1.03698         336.004         77.5667          362.65 
        1.04314         332.789         76.5507         359.939 
        1.04929         329.925         75.5556         357.241 
        1.05541         329.183         74.5823         355.087 
        1.06154         324.947         73.6239         353.066 
        1.06769          323.43         72.6812         350.943 
        1.07382         321.677         71.7582         348.736 
        1.07993          319.38         70.8535         347.237 
        1.08607         318.492         69.9609         344.741 
        1.09222         315.585         69.0829         342.557 
        1.09836         312.986         68.2212         341.725 
        1.10449          309.89         67.3753         339.311 
        1.11063         307.578          66.543          337.08 
        1.11677         306.935         65.7253          335.26 
         1.1229         305.078         64.9229         333.819 
        1.12903         302.257         64.1333         332.051 
        1.13518         300.032         63.3563         329.782 
        1.14131          298.35         62.5928         328.126 
        1.14745         297.129         61.8424         326.201 
        1.15359         294.422         61.1044         324.403 
        1.15973         293.182         60.3782         322.545 
        1.16584         290.377         59.6672         320.049 
        1.17197         289.809         58.9667         318.879 
        1.17811         287.027         58.2754         317.574 
        1.18424         284.818         57.5974          316.09 
        1.19038         283.531         56.9283         314.262 
        1.19652         281.251         56.2702         312.724 
        1.20267         280.488         55.6226         309.973 
        1.20881         278.354         54.9855         309.108 
        1.21495         275.921         54.3594         306.775 
        1.22108         274.656         53.7433         304.952 
         1.2272          272.73         53.1383         302.723 
        1.23334         270.685         52.5413         301.436 
        1.23949         269.509         51.9522         300.825 
        1.24562         267.742         51.3738           298.9 
        1.25174         264.739         50.8051          297.59 
        1.25789         263.047         50.2435         295.894 
        1.26402         262.054         49.6913         294.239 
        1.27014         260.026          49.149          292.64 
        1.27628         258.533         48.6131         291.712 
        1.28244         257.697         48.0843         290.115 
        1.28858         255.168         47.5641         288.261 
        1.29471         252.822         47.0528         286.026 
        1.30084         251.823         46.5496         284.796 
        1.30697         250.013         46.0531         283.855 
        1.31312         248.041         45.5632         282.068 
        1.31925         247.915          45.082         280.077 
        1.32537         246.212         44.6083         278.885 
        1.33151         243.786         44.1398         277.718 
        1.33765         242.148         43.6783         275.968 
        1.34378         241.183         43.2244         274.711 
        1.34992         239.592         42.7768         272.817 
        1.35606         239.009         42.3345         271.277 
         1.3622         237.024         41.8994         270.118 
        1.36833         234.858         41.4715         269.182 
        1.37445         233.312         41.0498         266.956 
        1.38059         231.463         40.6327         266.256 
        1.38675         230.642         40.2205         265.111 
        1.39288         228.529         39.8157          262.49 
        1.39901         228.251         39.4167         261.827 
        1.40515          226.28         39.0224         260.695 
         1.4113         224.469         38.6336         258.877 
        1.41742          223.63         38.2516         257.657 
        1.42355          221.28         37.8742         256.629 
         1.4297         220.259         37.5007         255.282 
        1.43585         218.641         37.1325         254.185 
        1.44198         217.361         36.7707         252.567 
        1.44809         216.541         36.4144         251.463 
        1.45423         214.403         36.0616         249.765 
        1.46036         213.861         35.7141         248.553 
        1.46649         211.878         35.3711         247.855 
        1.47263         210.414         35.0324         246.913 
        1.47877         209.468         34.6984         245.113 
        1.48491         207.845         34.3681         243.828 
        1.49104          206.96          34.043         242.844 
        1.49718         204.769         33.7218         241.474 
        1.50333         203.908         33.4043         240.547 
        1.50947         202.784         33.0915         239.547 
         1.5156         201.045         32.7833          238.04 
        1.52172         200.045          32.479         236.448 
        1.52787         198.572          32.178         235.632 
          1.534         197.897         31.8812         234.436 
        1.54013         195.983         31.5884         233.265 
        1.54627         195.459         31.2989         232.327 
        1.55241         193.531         31.0129         231.122 
        1.55855          192.45          30.731         229.796 
        1.56467         191.247         30.4534         228.656 
         1.5708         190.656         30.1784         227.694 
        1.57695         188.558         29.9065         226.649 
        1.58308         188.108         29.6385         225.483 
        1.58922         186.392         29.3737         224.346 
        1.59535         185.082         29.1123         223.303 
         1.6015         184.602         28.8536         222.027 
        1.60764         183.026         28.5983         220.796 
        1.61376         181.398         28.3468          219.99 
        1.61989         180.627         28.0982         219.124 
        1.62604         179.693          27.852         218.071 
        1.63218         178.443         27.6089         217.062 
        1.63831         177.419         27.3693         215.986 
        1.64444         176.365         27.1325         214.747 
        1.65059         174.996         26.8979         213.977 
        1.65673         174.089         26.6664         212.891 
        1.66285         173.141         26.4383         211.641 
        1.66898         172.047         26.2128         210.685 
        1.67512         171.375         25.9895         209.759 
        1.68127         169.454         25.7686         208.862 
         1.6874         168.282         25.5508         208.081 
        1.69353         167.788         25.3357         207.284 
        1.69967         166.513         25.1225         205.981 
        1.70581         165.479         24.9119         204.904 
        1.71193         164.226         24.7046         204.014 
        1.71806         163.642         24.4991           202.7 
        1.72421         162.398         24.2957         201.985 
        1.73035         161.502         24.0948         201.164 
        1.73649         160.773         23.8962         200.006 
        1.74262         159.333            23.7         199.403 
        1.74876         158.724         23.5059         198.534 
        1.75489         157.236         23.3144         197.459 
        1.76101         156.425         23.1252         196.541 
        1.76715         155.784         22.9377         195.632 
        1.77329         154.993         22.7522         194.598 
        1.77943         153.679         22.5686         193.572 
        1.78557         152.761         22.3874         192.723 
        1.79171          151.79         22.2081          192.01 
        1.79785         150.773         22.0307         191.186 
        1.80399         149.958         21.8554         190.133 
        1.81012         148.947         21.6822         189.298 
        1.81625         148.228          21.511         188.597 
        1.82239         147.246         21.3413         187.787 
        1.82853           146.6         21.1736         186.868 
        1.83466         145.541         21.0079         185.834 
        1.84078          144.74         20.8441         184.903 
        1.84692         143.518         20.6819         184.303 
        1.85306         143.016         20.5211         183.439 
         1.8592         141.696         20.3624         182.536 
        1.86533         140.896         20.2054         182.035 
        1.87147         140.017         20.0499         181.291 
        1.87761         139.604          19.896         180.314 
