# k  (h/Mpc)    Pcb(k)  (Mpc/h)^3    Pcb_linear(k) (Mpc/h)^3    Pcb_NL(k) (Mpc/h)^3   ShotnoiseSubtracted = false
     0.00783031         7973.18          8071.6         8065.23 
       0.013688         10850.7         10790.2         10736.5 
       0.019231         11652.3           11655         11563.6 
      0.0249154         11241.5         11447.4         11344.2 
      0.0312784         10412.4         10530.9         10415.6 
      0.0375637          9378.6         9419.64         9299.87 
      0.0433917         8310.09         8478.46         8347.45 
      0.0492413         7634.93         7725.46          7592.7 
      0.0555754         6904.68         7125.98          6992.6 
      0.0619321         6636.13         6679.21         6540.51 
       0.067871         6122.74         6317.87         6179.76 
      0.0738098         5747.88         5944.91          5770.8 
      0.0800417         5258.74         5506.73         5337.66 
      0.0862327         4848.49         5029.94         4900.75 
      0.0921407          4457.5         4569.11         4447.64 
      0.0982031         4014.06         4131.42         4056.67 
       0.104506         3739.15         3748.31         3712.76 
       0.110769         3447.91          3454.5         3401.88 
       0.116806         3221.07         3246.61          3194.6 
       0.122832         3083.23         3092.24          3051.8 
       0.129052         2894.16         2960.65         2922.49 
       0.135211         2770.07         2831.96         2794.25 
       0.141259         2665.77         2690.67         2671.88 
       0.147318         2528.58          2530.2         2531.43 
       0.153489         2334.49         2354.35         2336.06 
       0.159709         2205.06          2178.5         2191.38 
       0.165845         2108.83          2020.6         2081.09 
       0.171974         1974.41         1887.96         1954.79 
       0.178125         1875.04         1782.89         1884.37 
       0.184229         1803.66         1702.98         1800.21 
        0.19034         1698.41         1639.56          1738.5 
       0.196428         1676.86         1583.58          1668.1 
       0.202534         1627.61         1526.46         1619.09 
       0.208729         1558.03          1462.4         1545.31 
       0.214876         1485.58         1391.88         1503.73 
       0.220989         1443.39         1317.64         1446.05 
       0.227147         1367.64         1243.51          1382.4 
        0.23329         1313.49         1175.08         1337.44 
       0.239377         1289.22         1116.05         1286.45 
       0.245482         1207.77         1066.75         1229.37 
       0.251667         1199.22         1025.83         1202.74 
       0.257832         1157.62         991.457          1166.8 
       0.263955         1122.64         960.414         1134.23 
       0.270079         1088.43         929.514          1103.2 
        0.27624         1078.46         896.788            1069 
       0.282372         1032.57         862.095         1040.33 
        0.28843         1016.91          826.52         1008.42 
       0.294538         968.989         790.884         981.573 
       0.300721          965.61         756.718         954.317 
        0.30691         923.288         725.756         935.196 
       0.313033         906.275          698.82         905.777 
       0.319153         884.995         675.408         884.134 
       0.325316         858.101          654.51         870.716 
        0.33145         837.367         635.335         841.499 
       0.337538         828.112         616.832         825.405 
       0.343633         804.656         598.156         815.862 
       0.349808          779.92         578.775         799.874 
       0.355968         775.372          559.14         784.686 
       0.362074          762.72         539.845         766.274 
       0.368217          742.17         521.134         744.193 
       0.374374         713.416         503.595          730.89 
       0.380519         709.427         487.519         715.371 
       0.386598          694.04         473.048         705.368 
       0.392688         691.263          459.76         689.645 
        0.39888         671.441         447.111         679.792 
       0.405048         660.741         435.032         672.624 
       0.411186         649.539         423.216         655.634 
       0.417313          638.13         411.452         642.163 
       0.423458         628.183         399.722         632.678 
       0.429607         616.028          388.13         619.592 
       0.435692         603.144         376.977         609.038 
       0.441815         599.976         366.257         604.774 
       0.447964         587.666         356.092         593.946 
       0.454126         573.092         346.527         580.168 
       0.460267         565.625          337.59         577.615 
       0.466387         559.565          329.16         566.624 
        0.47254         548.937         321.018         560.129 
       0.478662         547.672         313.147         550.365 
       0.484765         532.833          305.47         539.933 
       0.490885         527.633         297.897         533.147 
       0.497035         518.188         290.418         527.916 
       0.503198         510.636         283.119         520.043 
       0.509342         506.431         276.094         513.988 
       0.515458         502.099         269.379         510.639 
       0.521598         492.753         262.926         501.768 
       0.527764         482.616         256.739         495.044 
       0.533884         480.885         250.871         489.598 
           0.54         474.744         245.229         483.411 
       0.546137         472.972          239.74         477.966 
       0.552299         464.093         234.366          471.52 
       0.558452         460.941          229.13         466.891 
       0.564573         453.391          224.05         462.904 
       0.570708         447.056         219.088         458.702 
       0.576825          439.13         214.276         450.575 
       0.582926         437.266         209.621         445.698 
       0.589034         432.585         205.115         440.315 
       0.595184         428.647         200.741         434.889 
       0.601379         424.466         196.496         432.431 
       0.607522         417.655         192.427          427.66 
       0.613639         416.381         188.494         423.713 
       0.619772         405.686         184.656         421.389 
       0.625918         404.819         180.906         416.713 
       0.632068         399.342         177.249         410.879 
       0.638161         397.807         173.721         407.387 
         0.6443         390.353         170.262         404.275 
       0.650464         387.989         166.886         397.756 
       0.656582         386.977         163.628         394.422 
       0.662703         383.306          160.46         392.986 
       0.668861         376.742         157.361         389.058 
       0.675024         373.426         154.346         385.228 
       0.681124         371.931         151.445         380.292 
       0.687237          367.52         148.617           376.9 
       0.693381         362.624          145.85         373.815 
       0.699536         359.579          143.15         371.291 
       0.705665         357.535          140.53         368.489 
       0.711789         353.522         137.977         364.631 
       0.717957          350.86         135.469         362.211 
        0.72409         347.444         133.036         359.851 
       0.730186         343.868         130.678         356.847 
       0.736317         341.003         128.363         352.901 
       0.742472         339.629         126.098         349.721 
       0.748622         336.539          123.89         346.652 
        0.75476         333.399         121.742         345.613 
       0.760888         329.206          119.65         341.456 
       0.767043         328.882           117.6         339.492 
       0.773185         324.588         115.603         336.895 
       0.779291         319.663         113.666         333.719 
       0.785407          318.71         111.771         331.356 
       0.791564         315.674         109.908         329.118 
       0.797719         313.069         108.088         326.924 
       0.803834         310.959         106.321         324.448 
       0.809972         308.415         104.588         322.023 
       0.816124         308.863         102.891         319.027 
       0.822261         303.485         101.236         316.969 
       0.828378          301.91         99.6222         314.289 
       0.834502         301.072         98.0431         312.868 
       0.840667         296.146         96.4884         310.625 
       0.846816         295.271         94.9723         308.337 
       0.852925         292.822         93.4988         305.851 
       0.859047         291.213          92.054         303.886 
       0.865192         288.918         90.6353         302.027 
       0.871341         286.021         89.2461         299.732 
       0.877463         284.245         87.8927         298.142 
       0.883569         282.031         86.5712         296.295 
       0.889708         279.863         85.2705          293.86 
       0.895864         276.501         83.9935          292.26 
       0.902008         276.204         82.7457         289.767 
       0.908149         274.469         81.5244         287.335 
       0.914301          271.23          80.326         286.347 
       0.920448         268.936         79.1532           283.5 
       0.926574         267.613         78.0082         281.635 
       0.932687         267.022         76.8886         279.367 
       0.938823         263.861         75.7872          278.93 
       0.944975         262.458         74.7052         277.543 
       0.951105         260.884         73.6484         275.344 
       0.957225         258.109         72.6141         273.233 
       0.963368         255.282         71.5965         270.879 
       0.969511          254.07         70.5985         269.471 
       0.975621         252.114         69.6252         269.033 
       0.981748         252.337         68.6679         266.736 
       0.987916         249.032         67.7228         265.496 
        0.99406         247.088         66.7992         263.992 
        1.00019         246.841         65.8949         261.623 
        1.00632         244.448         65.0084         259.515 
        1.01246          242.63         64.1371         257.875 
        1.01859         241.678         63.2833         257.051 
        1.02471         239.648         62.4463         255.992 
        1.03085         237.039         61.6217         254.249 
        1.03698         235.929          60.814         252.826 
        1.04314         234.506         60.0175         251.215 
        1.04929         232.439         59.2372         249.427 
        1.05541         231.595         58.4741          248.08 
        1.06154         229.764         57.7228         246.812 
        1.06769         229.194         56.9836         245.537 
        1.07382         227.459           56.26         243.844 
        1.07993         225.637         55.5507         242.527 
        1.08607         224.486         54.8509         241.569 
        1.09222         222.958         54.1625         240.068 
        1.09836         220.837         53.4869         238.979 
        1.10449         218.927         52.8237         237.273 
        1.11063         217.575         52.1712         235.712 
        1.11677         217.021         51.5301         234.518 
         1.1229         215.033         50.9009         233.423 
        1.12903          213.89         50.2819         232.226 
        1.13518          212.93         49.6727         230.792 
        1.14131         211.083         49.0741         229.419 
        1.14745         210.499         48.4858         228.226 
        1.15359         208.546         47.9072         226.878 
        1.15973         208.132         47.3378         225.497 
        1.16584         205.704         46.7804         223.927 
        1.17197         205.173         46.2312         222.775 
        1.17811         203.681         45.6892          222.26 
        1.18424         202.349         45.1576         220.819 
        1.19038         201.705          44.633         219.708 
        1.19652         200.227         44.1171         218.888 
        1.20267         199.007         43.6094         217.332 
        1.20881         197.565         43.1098         216.642 
        1.21495         196.327          42.619         214.673 
        1.22108         195.616         42.1359         214.234 
         1.2272         193.895         41.6616         212.449 
        1.23334         192.722         41.1935         211.723 
        1.23949         190.924         40.7316          210.88 
        1.24562         190.355         40.2782         209.376 
        1.25174          187.93         39.8323         208.627 
        1.25789           187.3          39.392         207.463 
        1.26402         186.474         38.9591         206.027 
        1.27014         185.127         38.5339         205.838 
        1.27628         184.277         38.1137         205.028 
        1.28244         183.471         37.6991          203.17 
        1.28858         182.162         37.2913         202.123 
        1.29471          180.24         36.8904         201.353 
        1.30084         179.354         36.4959         200.291 
        1.30697         178.387         36.1066         199.244 
        1.31312         177.766         35.7225         197.793 
        1.31925         176.392         35.3453         196.944 
        1.32537         175.635         34.9739         196.241 
        1.33151         173.899         34.6065         195.199 
        1.33765         173.348         34.2448         194.231 
        1.34378         172.061         33.8889         193.026 
        1.34992         171.322         33.5379         192.187 
        1.35606         170.231         33.1912         190.962 
         1.3622         169.248           32.85         190.115 
        1.36833         168.044         32.5145         189.174 
        1.37445         166.622         32.1839         188.005 
        1.38059         166.364         31.8569         187.478 
        1.38675         164.966         31.5338          186.38 
        1.39288         164.344         31.2164         185.301 
        1.39901         163.673         30.9036         184.701 
        1.40515         162.525         30.5944         183.887 
         1.4113         160.634         30.2896         182.899 
        1.41742         160.334         29.9901          182.19 
        1.42355         159.022         29.6942         181.511 
         1.4297         158.083         29.4014         180.354 
        1.43585         156.776         29.1127         179.405 
        1.44198          156.54          28.829         178.564 
        1.44809         155.348         28.5497         177.627 
        1.45423         153.991         28.2731         176.684 
        1.46036         153.568         28.0007         175.878 
        1.46649         152.685         27.7318         175.292 
        1.47263         152.043         27.4662         174.672 
        1.47877         150.919         27.2043         173.602 
        1.48491         149.687         26.9454         172.797 
        1.49104         148.972         26.6904         172.138 
        1.49718         147.585         26.4386         170.737 
        1.50333         146.966         26.1897         170.165 
        1.50947         146.102         25.9445         169.497 
         1.5156         145.474         25.7028         168.635 
        1.52172         144.375         25.4642          168.08 
        1.52787         143.741         25.2282          166.99 
          1.534         142.989         24.9955         166.182 
        1.54013         141.606          24.766         165.514 
        1.54627         141.152          24.539         164.798 
        1.55241         140.152         24.3148         164.077 
        1.55855         139.538         24.0938         163.084 
        1.56467         138.689         23.8761         162.261 
         1.5708         137.694         23.6605         161.851 
        1.57695         137.005         23.4473         161.091 
        1.58308         136.131         23.2373         160.041 
        1.58922         135.778         23.0296          159.35 
        1.59535         134.621         22.8246         158.688 
         1.6015         134.046         22.6219         157.942 
        1.60764         133.032         22.4217         157.253 
        1.61376         132.413         22.2245         156.677 
        1.61989         131.696         22.0296         155.974 
        1.62604         130.784         21.8365         155.097 
        1.63218         130.118          21.646         154.374 
        1.63831         129.209         21.4581          153.82 
        1.64444         128.504         21.2725         153.049 
        1.65059         127.851         21.0886         152.286 
        1.65673         126.809          20.907         151.627 
        1.66285         126.643         20.7282         151.014 
        1.66898         125.566         20.5514         150.373 
        1.67512         124.924         20.3763         149.729 
        1.68127         124.032         20.2031         148.986 
         1.6874         122.982         20.0324         148.273 
        1.69353         122.498         19.8637         147.708 
        1.69967          121.99         19.6966         146.957 
        1.70581          121.22         19.5315         146.225 
        1.71193          120.58         19.3689         145.621 
        1.71806         119.619         19.2079         145.027 
        1.72421         119.281         19.0483          144.37 
        1.73035         118.265         18.8908         143.655 
        1.73649         117.622         18.7351         142.994 
        1.74262         117.109         18.5813         142.509 
        1.74876         116.411         18.4292         141.808 
        1.75489         115.439          18.279         141.017 
        1.76101         115.144         18.1306         140.353 
        1.76715         114.021         17.9837         139.747 
        1.77329         113.707         17.8382         139.231 
        1.77943         113.043         17.6943         138.708 
        1.78557         112.411         17.5522         138.098 
        1.79171           111.7         17.4116         137.549 
        1.79785         111.061         17.2726             137 
        1.80399         110.469         17.1351         136.339 
        1.81012         109.895         16.9993          135.68 
        1.81625         109.095         16.8651         135.097 
        1.82239         108.823         16.7321         134.543 
        1.82853         108.269         16.6006          133.94 
        1.83466         107.313         16.4707         133.294 
        1.84078         107.055         16.3423         132.735 
        1.84692         106.092          16.215         132.363 
        1.85306         105.364          16.089         131.741 
         1.8592           104.7         15.9645          131.09 
        1.86533         104.281         15.8415         130.646 
        1.87147         103.341         15.7196         129.758 
