# k  (h/Mpc)    P(k)  (Mpc/h)^3    P_linear(k)  (Mpc/h)^3     P_NL(k)  ShotnoiseSubtracted = false
     0.00783031          7922.9         8020.71         8014.37 
       0.013688         10782.3         10722.2         10668.8 
       0.019231         11578.8         11581.5         11490.7 
      0.0249154         11170.6         11375.2         11272.6 
      0.0312784         10346.7         10464.5         10349.9 
      0.0375637         9319.46         9360.24         9241.22 
      0.0433917         8257.68            8425         8294.81 
      0.0492413         7586.79         7676.74         7544.82 
      0.0555754         6861.14         7081.05         6948.51 
      0.0619321         6594.29         6637.09         6499.27 
       0.067871         6084.14         6278.03         6140.79 
      0.0738098         5711.63         5907.42         5734.41 
      0.0800417         5225.58            5472            5304 
      0.0862327         4817.91         4998.22         4869.84 
      0.0921407         4429.39          4540.3          4419.6 
      0.0982031         3988.75         4105.37         4031.09 
       0.104506         3715.57         3724.67         3689.34 
       0.110769         3426.17         3432.72         3380.43 
       0.116806         3200.76         3226.13         3174.46 
       0.122832         3063.78         3072.74         3032.56 
       0.129052         2875.91         2941.98         2904.06 
       0.135211          2752.6          2814.1         2776.63 
       0.141259         2648.96          2673.7         2655.03 
       0.147318         2512.64         2514.25         2515.47 
       0.153489         2319.77          2339.5         2321.32 
       0.159709         2191.16         2164.76         2177.56 
       0.165845         2095.53         2007.86         2067.97 
       0.171974         1961.96         1876.05         1942.46 
       0.178125         1863.21         1771.65         1872.48 
       0.184229         1792.28         1692.25         1788.86 
        0.19034          1687.7         1629.22         1727.54 
       0.196428         1666.28         1573.59         1657.58 
       0.202534         1617.35         1516.83         1608.88 
       0.208729          1548.2         1453.18         1535.57 
       0.214876         1476.22         1383.11         1494.24 
       0.220989         1434.29         1309.33         1436.93 
       0.227147         1359.01         1235.67         1373.68 
        0.23329         1305.21         1167.67         1329.01 
       0.239377         1281.09         1109.01         1278.34 
       0.245482         1200.15         1060.03         1221.62 
       0.251667         1191.66         1019.37         1195.16 
       0.257832         1150.32         985.205         1159.44 
       0.263955         1115.57         954.358         1127.07 
       0.270079         1081.56         923.651         1096.24 
        0.27624         1071.66         891.131         1062.26 
       0.282372         1026.06         856.658         1033.77 
        0.28843          1010.5         821.307         1002.06 
       0.294538         962.879         785.897         975.383 
       0.300721         959.521         751.946         948.299 
        0.30691         917.466         721.179         929.299 
       0.313033          900.56          694.41         900.061 
       0.319153         879.414         671.149          878.56 
       0.325316          852.69         650.383         865.226 
        0.33145         832.086         631.327         836.192 
       0.337538          822.89         612.943         820.201 
       0.343633         799.582         594.385         810.719 
       0.349808         775.002         575.124         794.828 
       0.355968         770.483         555.614         779.738 
       0.362074          757.91          536.44         761.441 
       0.368217          737.49         517.847         739.499 
       0.374374         708.917          500.42         726.283 
       0.380519         704.954         484.444         710.858 
       0.386598         689.663         470.066         700.921 
       0.392688         686.904         456.861         685.297 
        0.39888         667.207         444.291         675.505 
       0.405048         656.574         432.289         668.383 
       0.411186         645.444         420.547         651.499 
       0.417313         634.106         408.857         638.114 
       0.423458         624.222         397.202          628.69 
       0.429607         612.143         385.682         615.684 
       0.435692          599.34           374.6         605.197 
       0.441815         596.192         363.947         600.961 
       0.447964          583.96         353.847         590.202 
       0.454126         569.479          344.34         576.507 
       0.460267         562.059         335.462         573.974 
       0.466387         556.036         327.084         563.051 
        0.47254         545.476         318.994         556.597 
       0.478662         544.218         311.172         546.894 
       0.484765         529.473         303.545         536.529 
       0.490885         524.305         296.019         529.784 
       0.497035          514.92         288.586         524.587 
       0.503198         507.416         281.334         516.764 
       0.509342         503.237         274.352         510.747 
       0.515458         498.933         267.681         507.419 
       0.521598         489.646         261.268         498.604 
       0.527764         479.573          255.12         491.922 
       0.533884         477.853         249.289         486.511 
           0.54          471.75         243.683         480.363 
       0.546137         469.989         238.229         474.953 
       0.552299         461.167         232.888         468.547 
       0.558452         458.035         227.685         463.947 
       0.564573         450.532         222.637         459.985 
       0.570708         444.237         217.706          455.81 
       0.576825         436.361         212.924         447.734 
       0.582926         434.509         208.299         442.887 
       0.589034         429.857         203.821         437.537 
       0.595184         425.944         199.475         432.147 
       0.601379          421.79         195.257         429.704 
       0.607522         415.021         191.213         424.963 
       0.613639         413.755         187.306         421.042 
       0.619772         403.128         183.492         418.732 
       0.625918         402.266         179.765         414.085 
       0.632068         396.823         176.131         408.288 
       0.638161         395.298         172.625         404.818 
         0.6443         387.892         169.188         401.725 
       0.650464         385.542         165.833         395.248 
       0.656582         384.537         162.596         391.935 
       0.662703         380.889         159.448         390.508 
       0.668861         374.366         156.369         386.605 
       0.675024         371.071         153.373         382.798 
       0.681124         369.586          150.49         377.894 
       0.687237         365.202         147.679         374.523 
       0.693381         360.338          144.93         371.458 
       0.699536         357.312         142.247          368.95 
       0.705665         355.281         139.644         366.166 
       0.711789         351.293         137.107         362.331 
       0.717957         348.647         134.615         359.927 
        0.72409         345.253         132.197         357.582 
       0.730186           341.7         129.854         354.597 
       0.736317         338.853         127.554         350.676 
       0.742472         337.487         125.303         347.516 
       0.748622         334.417         123.109         344.466 
        0.75476         331.297         120.974         343.434 
       0.760888          327.13         118.895         339.302 
       0.767043         326.808         116.858         337.351 
       0.773185         322.541         114.875         334.771 
       0.779291         317.647         112.949         331.615 
       0.785407           316.7         111.066         329.267 
       0.791564         313.683         109.214         327.043 
       0.797719         311.095         107.406         324.862 
       0.803834         308.998         105.651         322.402 
       0.809972          306.47         103.929         319.993 
       0.816124         306.915         102.242         317.015 
       0.822261         301.571         100.597          314.97 
       0.828378         300.006          98.994         312.307 
       0.834502         299.174         97.4248         310.895 
       0.840667         294.279           95.88         308.666 
       0.846816          293.41         94.3734         306.393 
       0.852925         290.976         92.9092         303.922 
       0.859047         289.377         91.4735          301.97 
       0.865192         287.096         90.0638         300.122 
       0.871341         284.217         88.6833         297.842 
       0.877463         282.452         87.3384         296.262 
       0.883569         280.253         86.0253         294.427 
       0.889708         278.099         84.7328         292.007 
       0.895864         274.757         83.4638         290.417 
       0.902008         274.462         82.2239          287.94 
       0.908149         272.738         81.0103         285.523 
       0.914301          269.52         79.8195         284.542 
       0.920448          267.24         78.6541         281.713 
       0.926574         265.926         77.5163         279.859 
       0.932687         265.338         76.4037         277.605 
       0.938823         262.197         75.3093         277.172 
       0.944975         260.802         74.2341         275.793 
       0.951105         259.239          73.184         273.608 
       0.957225         256.482         72.1563          271.51 
       0.963368         253.672          71.145          269.17 
       0.969511         252.468         70.1533         267.772 
       0.975621         250.524         69.1861         267.337 
       0.981748         250.745         68.2349         265.054 
       0.987916         247.462         67.2957         263.822 
        0.99406          245.53          66.378         262.327 
        1.00019         245.284         65.4794         259.974 
        1.00632         242.907         64.5985         257.878 
        1.01246           241.1         63.7326         256.249 
        1.01859         240.154         62.8842          255.43 
        1.02471         238.136         62.0525         254.378 
        1.03085         235.544         61.2332         252.645 
        1.03698         234.441         60.4305         251.232 
        1.04314         233.027          59.639         249.631 
        1.04929         230.973         58.8637         247.854 
        1.05541         230.135         58.1054         246.516 
        1.06154         228.315         57.3588         245.255 
        1.06769         227.749         56.6243         243.989 
        1.07382         226.025         55.9052         242.307 
        1.07993         224.214         55.2004         240.997 
        1.08607          223.07          54.505         240.046 
        1.09222         221.552         53.8209         238.554 
        1.09836         219.445         53.1496         237.472 
        1.10449         217.547         52.4906         235.776 
        1.11063         216.203         51.8422         234.226 
        1.11677         215.653         51.2051         233.039 
         1.1229         213.677           50.58         231.952 
        1.12903         212.541         49.9648         230.762 
        1.13518         211.587         49.3595         229.337 
        1.14131         209.752         48.7647         227.972 
        1.14745         209.172         48.1801         226.787 
        1.15359         207.231         47.6051         225.447 
        1.15973          206.82         47.0393         224.075 
        1.16584         204.407         46.4854         222.515 
        1.17197         203.879         45.9396          221.37 
        1.17811         202.396         45.4011         220.859 
        1.18424         201.073         44.8729         219.427 
        1.19038         200.433         44.3516         218.322 
        1.19652         198.964         43.8389         217.508 
        1.20267         197.752         43.3344         215.961 
        1.20881         196.319          42.838         215.276 
        1.21495         195.089         42.3502         213.319 
        1.22108         194.382         41.8702         212.883 
         1.2272         192.672         41.3989         211.109 
        1.23334         191.506         40.9338         210.388 
        1.23949          189.72         40.4748         209.551 
        1.24562         189.155         40.0242         208.056 
        1.25174         186.745         39.5812         207.312 
        1.25789         186.119         39.1436         206.155 
        1.26402         185.298         38.7134         204.728 
        1.27014          183.96         38.2909          204.54 
        1.27628         183.115         37.8734         203.735 
        1.28244         182.314         37.4614         201.889 
        1.28858         181.013         37.0561         200.848 
        1.29471         179.103         36.6578         200.084 
        1.30084         178.223         36.2658         199.028 
        1.30697         177.262          35.879         197.987 
        1.31312         176.645         35.4973         196.546 
        1.31925          175.28         35.1224         195.702 
        1.32537         174.528         34.7533         195.003 
        1.33151         172.803         34.3883         193.969 
        1.33765         172.255         34.0288         193.006 
        1.34378         170.976         33.6752         191.809 
        1.34992         170.242         33.3264         190.975 
        1.35606         169.158         32.9819         189.758 
         1.3622         168.181         32.6429         188.916 
        1.36833         166.984         32.3095         187.982 
        1.37445         165.571          31.981         186.819 
        1.38059         165.315         31.6561         186.295 
        1.38675         163.925         31.3349         185.205 
        1.39288         163.308         31.0196         184.133 
        1.39901         162.641         30.7087         183.536 
        1.40515           161.5         30.4015         182.728 
         1.4113         159.621         30.0986         181.746 
        1.41742         159.323          29.801         181.041 
        1.42355          158.02         29.5069         180.366 
         1.4297         157.086          29.216         179.216 
        1.43585         155.787         28.9291         178.274 
        1.44198         155.552         28.6472         177.438 
        1.44809         154.369         28.3697         176.507 
        1.45423          153.02         28.0948          175.57 
        1.46036           152.6         27.8241         174.769 
        1.46649         151.722         27.5569         174.186 
        1.47263         151.084          27.293         173.571 
        1.47877         149.967         27.0327         172.508 
        1.48491         148.743         26.7755         171.707 
        1.49104         148.033         26.5221         171.052 
        1.49718         146.655         26.2719          169.66 
        1.50333          146.04         26.0245         169.092 
        1.50947          145.18         25.7809         168.428 
         1.5156         144.557         25.5407         167.572 
        1.52172         143.465         25.3037          167.02 
        1.52787         142.834         25.0692         165.937 
          1.534         142.087         24.8379         165.134 
        1.54013         140.713         24.6099          164.47 
        1.54627         140.261         24.3843         163.759 
        1.55241         139.268         24.1615         163.043 
        1.55855         138.658         23.9418         162.056 
        1.56467         137.814         23.7256         161.237 
         1.5708         136.826         23.5113         160.831 
        1.57695         136.141         23.2995         160.075 
        1.58308         135.272         23.0907         159.032 
        1.58922         134.922         22.8844         158.345 
        1.59535         133.772         22.6807         157.687 
         1.6015           133.2         22.4792         156.946 
        1.60764         132.193         22.2803         156.261 
        1.61376         131.578         22.0844         155.689 
        1.61989         130.866         21.8907         154.991 
        1.62604          129.96         21.6988         154.119 
        1.63218         129.297         21.5095         153.401 
        1.63831         128.394         21.3228          152.85 
        1.64444         127.694         21.1383         152.084 
        1.65059         127.045         20.9556         151.325 
        1.65673         126.009         20.7752         150.671 
        1.66285         125.844         20.5975         150.061 
        1.66898         124.774         20.4218         149.425 
        1.67512         124.137         20.2478         148.785 
        1.68127          123.25         20.0757         148.047 
         1.6874         122.207         19.9061         147.338 
        1.69353         121.726         19.7385         146.776 
        1.69967          121.22         19.5724         146.031 
        1.70581         120.456         19.4083         145.303 
        1.71193          119.82         19.2468         144.703 
        1.71806         118.865         19.0867         144.112 
        1.72421         118.529         18.9282          143.46 
        1.73035          117.52         18.7717          142.75 
        1.73649          116.88          18.617         142.093 
        1.74262          116.37         18.4642         141.611 
        1.74876         115.676          18.313         140.914 
        1.75489         114.711         18.1638         140.128 
        1.76101         114.418         18.0163         139.468 
        1.76715         113.302         17.8703         138.866 
        1.77329          112.99         17.7257         138.353 
        1.77943          112.33         17.5827         137.833 
        1.78557         111.702         17.4415         137.228 
        1.79171         110.996         17.3018         136.681 
        1.79785         110.361         17.1637         136.136 
        1.80399         109.772         17.0271         135.479 
        1.81012         109.202         16.8921         134.825 
        1.81625         108.407         16.7587         134.245 
        1.82239         108.137         16.6266         133.695 
        1.82853         107.586         16.4959         133.096 
        1.83466         106.636         16.3668         132.454 
        1.84078          106.38         16.2392         131.898 
        1.84692         105.423         16.1128         131.528 
        1.85306         104.699         15.9876         130.911 
         1.8592          104.04         15.8639         130.263 
        1.86533         103.623         15.7416         129.822 
        1.87147         102.689         15.6204          128.94 
        1.87761         102.409         15.5005         128.236 
