# k  (h/Mpc)    Pcb(k)  (Mpc/h)^3    Pcb_linear(k) (Mpc/h)^3    Pcb_NL(k) (Mpc/h)^3   ShotnoiseSubtracted = false
     0.00783031         6907.94         6990.35         6985.44 
       0.013688         9391.81          9345.1         9301.22 
       0.019231         10093.4         10094.3         10019.9 
      0.0249154         9751.05         9914.58         9833.35 
      0.0312784         9030.52         9120.85         9033.03 
      0.0375637         8131.29          8158.4         8067.75 
      0.0433917         7214.33         7343.27         7244.99 
      0.0492413          6624.8          6691.1         6591.76 
      0.0555754         6001.54          6171.9         6071.75 
      0.0619321         5759.09         5784.94         5680.61 
       0.067871          5323.7         5471.99         5367.68 
      0.0738098         4998.11         5148.97         5017.29 
      0.0800417         4577.68         4769.46         4641.54 
      0.0862327         4217.91         4356.51         4258.99 
      0.0921407         3873.18         3957.38         3865.69 
      0.0982031          3487.5         3578.29          3522.5 
       0.104506          3242.7         3246.47         3220.61 
       0.110769         2989.54            2992         2952.58 
       0.116806         2791.14         2811.94            2773 
       0.122832         2673.02         2678.24         2648.25 
       0.129052         2512.43         2564.27         2535.76 
       0.135211         2404.17          2452.8         2424.97 
       0.141259         2311.78         2330.43         2316.79 
       0.147318         2191.65         2191.45         2193.95 
       0.153489         2024.05         2039.14         2025.79 
       0.159709         1908.54         1886.84         1897.69 
       0.165845         1820.92         1750.08         1798.34 
       0.171974         1702.29         1635.19         1687.62 
       0.178125         1616.34          1544.2          1623.8 
       0.184229         1555.13         1474.98         1551.95 
        0.19034         1463.19         1420.05         1497.95 
       0.196428         1444.24         1371.56         1437.02 
       0.202534          1403.3         1322.09         1393.88 
       0.208729         1341.95         1266.61         1331.11 
       0.214876         1276.69         1205.53         1293.62 
       0.220989         1240.46         1141.23         1241.91 
       0.227147         1172.11         1077.03         1184.99 
        0.23329         1124.73         1017.75         1145.04 
       0.239377         1101.35         966.629         1100.93 
       0.245482         1031.27         923.931         1051.32 
       0.251667         1022.64         888.493         1027.51 
       0.257832         988.048         858.718         996.411 
       0.263955         958.074         831.832         967.883 
       0.270079         928.969         805.069         940.686 
        0.27624         919.635         776.724         910.685 
       0.282372         880.791         746.676          884.96 
        0.28843         863.305         715.863         856.413 
       0.294538         823.243         684.999         833.293 
       0.300721         819.477         655.407         810.278 
        0.30691         782.803          628.59         792.186 
       0.313033         767.759         605.261         766.639 
       0.319153         746.992         584.983         748.587 
       0.325316         725.252         566.882         736.469 
        0.33145         706.785         550.275         711.653 
       0.337538         699.231         534.249         696.805 
       0.343633         678.469         518.073          688.12 
       0.349808         657.925         501.288         674.169 
       0.355968         653.015         484.281         660.819 
       0.362074         640.794         467.569         644.692 
       0.368217         623.889         451.364         625.475 
       0.374374         600.307         436.173         613.806 
       0.380519         595.118         422.249         600.257 
       0.386598         582.225         409.716         591.025 
       0.392688         579.157         398.206         578.289 
        0.39888         562.828          387.25         568.731 
       0.405048         553.099         376.789         562.731 
       0.411186         542.879         366.555         548.348 
       0.417313         533.785         356.366          535.88 
       0.423458         525.026         346.206         527.574 
       0.429607         514.126         336.166         516.835 
       0.435692         502.951         326.507         507.772 
       0.441815         500.064         317.222         503.749 
       0.447964         490.276         308.418          494.26 
       0.454126         475.466         300.133         482.742 
       0.460267         470.193         292.392         479.953 
       0.466387         465.048         285.091         470.778 
        0.47254         455.714         278.039         464.916 
       0.478662           454.3         271.223         456.517 
       0.484765          442.15         264.573         447.163 
       0.490885         437.211         258.014         441.921 
       0.497035         429.973         251.536         437.322 
       0.503198         422.117         245.214         430.539 
       0.509342         418.858          239.13         425.622 
       0.515458         414.615         233.314         422.594 
       0.521598         407.706         227.725         414.559 
       0.527764         399.873         222.366          408.44 
       0.533884         397.071         217.284         403.985 
           0.54         392.061         212.397          398.87 
       0.546137         390.492         207.643         394.544 
       0.552299         383.051         202.989         388.762 
       0.558452         379.535         198.454         384.501 
       0.564573         373.338         194.053         381.206 
       0.570708         367.647         189.756         377.293 
       0.576825         362.468         185.588         370.452 
       0.582926         359.718         181.556         366.318 
       0.589034         355.346         177.654         362.374 
       0.595184         352.191         173.865         357.127 
       0.601379          349.09         170.189         355.611 
       0.607522         342.868         166.664         351.369 
       0.613639         341.583         163.258          347.74 
       0.619772         333.227         159.934         344.824 
       0.625918         331.959         156.686         341.631 
       0.632068          327.63         153.518         336.261 
       0.638161          326.35         150.463         334.155 
         0.6443         320.531         147.467         330.942 
       0.650464         318.136         144.543         325.609 
       0.656582         316.903         141.721         323.003 
       0.662703         313.334         138.977         321.143 
       0.668861          308.44         136.293         317.767 
       0.675024         305.418         133.682         314.308 
       0.681124         304.413         131.169         311.054 
       0.687237         300.191          128.72         307.903 
       0.693381          296.11         126.323         305.196 
       0.699536         294.058         123.984         302.929 
       0.705665          292.78         121.715         301.094 
       0.711789         288.515         119.505         297.203 
       0.717957         286.686         117.332         295.082 
        0.72409         283.612         115.225         293.579 
       0.730186         280.193         113.182          290.92 
       0.736317          278.15         111.178         287.625 
       0.742472         276.839         109.215         285.088 
       0.748622         274.737         107.303         282.315 
        0.75476         272.306         105.443         280.877 
       0.760888         268.673         103.631         277.534 
       0.767043         267.779         101.855         276.099 
       0.773185         264.705         100.126         274.206 
       0.779291         260.487         98.4481         271.568 
       0.785407         259.821         96.8067         269.147 
       0.791564         257.448         95.1929         267.421 
       0.797719         254.812         93.6169         265.834 
       0.803834         253.488          92.087         263.295 
       0.809972         250.839          90.586         261.408 
       0.816124           251.2         89.1155         259.481 
       0.822261         247.131         87.6819         257.439 
       0.828378         245.493         86.2846         254.865 
       0.834502         245.228         84.9169         253.898 
       0.840667         241.084         83.5704         252.295 
       0.846816         240.224         82.2572         249.949 
       0.852925         238.195          80.981         247.955 
       0.859047         236.391         79.7296         246.365 
       0.865192         234.899         78.5009         244.896 
       0.871341         232.357         77.2976         242.821 
       0.877463         231.079         76.1254          241.75 
       0.883569         228.989         74.9809         240.022 
       0.889708         227.419         73.8543         238.297 
       0.895864         224.868         72.7483         237.033 
       0.902008         224.262         71.6676         234.651 
       0.908149         222.927         70.6097         232.806 
       0.914301         220.434         69.5718         232.096 
       0.920448         218.821          68.556         229.965 
       0.926574         217.813         67.5643         227.954 
       0.932687         216.652         66.5946         226.283 
       0.938823         214.335         65.6407         225.708 
       0.944975         212.922         64.7035         224.662 
       0.951105         211.766         63.7882         222.805 
       0.957225          209.22         62.8924         221.169 
       0.963368         207.457          62.011         219.036 
       0.969511         206.517         61.1467         218.042 
       0.975621         205.179         60.3036         218.026 
       0.981748         204.876         59.4745          215.79 
       0.987916         202.024         58.6559         214.913 
        0.99406         201.173          57.856         213.562 
        1.00019         200.428         57.0728         211.705 
        1.00632         198.526          56.305         210.023 
        1.01246         197.291         55.5503         208.571 
        1.01859         195.685         54.8108         208.032 
        1.02471         194.894         54.0859         207.265 
        1.03085         192.863         53.3717         205.754 
        1.03698         191.381         52.6721         204.283 
        1.04314         190.473         51.9822         203.284 
        1.04929         188.882         51.3064         202.092 
        1.05541         188.024         50.6455         200.978 
        1.06154         186.714         49.9948         200.019 
        1.06769         186.414         49.3546         198.895 
        1.07382         185.061         48.7278         197.629 
        1.07993         183.609         48.1135         196.414 
        1.08607         182.231         47.5073         195.685 
        1.09222         181.163         46.9111         194.529 
        1.09836         179.592          46.326           193.3 
        1.10449         178.257         45.7516         192.025 
        1.11063         177.277         45.1864         190.657 
        1.11677         176.629         44.6311         189.886 
         1.1229         174.806         44.0862         189.002 
        1.12903         173.952         43.5501         187.872 
        1.13518         173.622         43.0225         186.854 
        1.14131         171.818          42.504          185.61 
        1.14745         171.138         41.9945         184.707 
        1.15359          169.78         41.4933         183.603 
        1.15973         169.425         41.0001          182.76 
        1.16584         167.695         40.5173         181.627 
        1.17197         166.963         40.0417         180.484 
        1.17811          165.95         39.5723         180.065 
        1.18424         164.776         39.1118         178.895 
        1.19038         164.134         38.6575         178.092 
        1.19652         163.093         38.2106          177.15 
        1.20267         161.908         37.7709         176.158 
        1.20881         160.913         37.3382         175.522 
        1.21495         159.896         36.9131         173.977 
        1.22108         159.135         36.4947         173.647 
         1.2272          158.02         36.0839         172.412 
        1.23334         156.975         35.6785         171.739 
        1.23949         155.189         35.2784         170.683 
        1.24562         155.068         34.8857         169.815 
        1.25174         153.366         34.4995         168.997 
        1.25789         152.838         34.1181         168.214 
        1.26402         152.182         33.7432         167.139 
        1.27014         150.951         33.3749         167.076 
        1.27628          150.35          33.011         166.429 
        1.28244         149.442         32.6519         164.705 
        1.28858         148.624         32.2987          163.89 
        1.29471         147.161         31.9515          163.46 
        1.30084         146.465         31.6098         162.494 
        1.30697         145.681         31.2726         161.616 
        1.31312         145.355         30.9399         160.625 
        1.31925         144.003         30.6132         159.947 
        1.32537         143.605         30.2915         159.226 
        1.33151         141.963         29.9734         158.455 
        1.33765         141.509           29.66         157.812 
        1.34378         140.432         29.3518         156.784 
        1.34992         140.229         29.0478         156.174 
        1.35606         139.121         28.7475         155.222 
         1.3622          138.16          28.452         154.574 
        1.36833         137.423         28.1614         153.727 
        1.37445         136.363         27.8751         152.814 
        1.38059          136.17         27.5919          152.43 
        1.38675         135.014          27.312         151.464 
        1.39288         134.381         27.0371         150.896 
        1.39901         133.733         26.7662         150.212 
        1.40515         133.042         26.4984         149.474 
         1.4113         131.391         26.2344         148.855 
        1.41742         131.329          25.975          148.29 
        1.42355         130.262         25.7187         147.415 
         1.4297         129.476         25.4651         146.642 
        1.43585         128.611          25.215         145.995 
        1.44198         128.264         24.9693         145.391 
        1.44809          127.18         24.7274         144.547 
        1.45423         126.267         24.4878         143.713 
        1.46036         125.878         24.2519         143.139 
        1.46649         125.265          24.019         142.724 
        1.47263         124.714          23.789         142.142 
        1.47877         123.913         23.5621         141.177 
        1.48491         122.941         23.3379         140.764 
        1.49104         122.225         23.1171         140.104 
        1.49718          121.47          22.899         139.057 
        1.50333          120.78         22.6834         138.677 
        1.50947           119.9          22.471         138.116 
         1.5156         119.719         22.2617         137.437 
        1.52172         118.641          22.055         137.021 
        1.52787         118.423         21.8506          136.05 
          1.534         117.715         21.6491         135.507 
        1.54013         116.684         21.4503         134.907 
        1.54627          116.05         21.2537          134.31 
        1.55241         115.422         21.0595         133.866 
        1.55855         114.961         20.8681         132.973 
        1.56467         114.172         20.6795          132.33 
         1.5708         113.411         20.4928         131.922 
        1.57695         113.085         20.3082         131.328 
        1.58308         111.944         20.1262          130.67 
        1.58922          111.86         19.9464         130.081 
        1.59535         111.136         19.7688          129.53 
         1.6015         110.546         19.5932         128.928 
        1.60764         109.805         19.4199         128.463 
        1.61376         109.193         19.2491         128.063 
        1.61989         108.749         19.0802         127.337 
        1.62604         107.799          18.913         126.646 
        1.63218         107.595          18.748         126.142 
        1.63831         106.813         18.5853         125.779 
        1.64444         106.233         18.4245         125.229 
        1.65059         105.446         18.2652         124.362 
        1.65673         104.784          18.108         123.946 
        1.66285         104.509         17.9531         123.594 
        1.66898         103.772         17.7999         122.869 
        1.67512         103.122         17.6483         122.474 
        1.68127         102.508         17.4983         121.904 
         1.6874         101.957         17.3504         121.158 
        1.69353         101.447         17.2043         120.644 
        1.69967         100.856         17.0596         120.252 
        1.70581          100.37         16.9166         119.669 
        1.71193         99.9106         16.7758         119.108 
        1.71806         99.0002         16.6363         118.946 
        1.72421         98.7957         16.4981         118.332 
        1.73035         98.0191         16.3617         117.618 
        1.73649           97.53         16.2268         117.173 
        1.74262         97.0276         16.0936         116.779 
        1.74876         96.4898         15.9618         116.234 
        1.75489         95.8601         15.8318         115.655 
        1.76101         95.5042         15.7033         115.125 
        1.76715         94.8059          15.576         114.541 
        1.77329         94.3915           15.45         114.166 
        1.77943         93.9683         15.3254         113.766 
        1.78557         93.4518         15.2023         113.102 
        1.79171         92.8447         15.0805         112.649 
        1.79785         92.4172         14.9601         112.311 
        1.80399         91.8259          14.841         111.799 
        1.81012         91.4468         14.7234          111.35 
        1.81625         90.7638         14.6071          110.87 
        1.82239         90.3463          14.492         110.356 
        1.82853         90.0202         14.3781         109.984 
        1.83466         89.2837         14.2655         109.481 
        1.84078         88.8873         14.1543         108.953 
        1.84692         88.3861         14.0441         108.744 
        1.85306         87.8426          13.935         108.287 
         1.8592         87.1869         13.8272         107.679 
        1.86533          86.797         13.7206         107.272 
        1.87147         86.1876          13.615         106.604 
