# k  (h/Mpc)    Pcb(k)  (Mpc/h)^3    Pcb_linear(k) (Mpc/h)^3    Pcb_NL(k) (Mpc/h)^3   ShotnoiseSubtracted = false
     0.00783031         10597.6         10738.3         10727.4 
       0.013688         14452.1         14353.1         14271.6 
       0.019231         15492.1         15502.7           15363 
      0.0249154         14899.2         15226.2         15058.2 
      0.0312784         13803.6         14006.9         13808.6 
      0.0375637           12442         12528.6         12321.1 
      0.0433917         10991.8         11276.7         11046.7 
      0.0492413         10110.2         10275.2         10041.2 
      0.0555754         9107.16          9477.8         9244.28 
      0.0619321         8782.13         8883.54         8641.69 
       0.067871         8068.31         8402.94         8163.74 
      0.0738098         7573.73         7906.87         7606.08 
      0.0800417          6912.8         7324.07         7032.55 
      0.0862327          6382.4         6689.92         6466.33 
      0.0921407         5883.45         6077.01         5867.53 
      0.0982031         5301.17         5494.86         5363.54 
       0.104506         4957.26         4985.31          4920.7 
       0.110769         4573.97         4594.55         4504.12 
       0.116806         4280.68         4318.04         4228.37 
       0.122832         4092.08         4112.72         4042.14 
       0.129052         3830.98         3937.71         3872.16 
       0.135211         3667.29         3766.54          3700.1 
       0.141259         3536.02         3578.63         3545.45 
       0.147318         3358.67          3365.2         3362.04 
       0.153489         3099.44         3131.31         3099.64 
       0.159709         2937.55         2897.43         2916.72 
       0.165845          2824.9         2687.43         2782.61 
       0.171974         2652.76            2511          2619.9 
       0.178125         2521.21         2371.27         2535.33 
       0.184229            2422         2264.99         2419.53 
        0.19034         2289.94         2180.64         2339.54 
       0.196428         2259.45         2106.18         2247.12 
       0.202534         2186.79         2030.21         2184.24 
       0.208729         2099.17         1945.01         2082.85 
       0.214876         2012.78         1851.22         2030.79 
       0.220989         1954.25         1752.47         1960.35 
       0.227147         1863.73         1653.89         1882.69 
        0.23329         1792.81         1562.86         1824.79 
       0.239377         1767.77         1484.36         1756.38 
       0.245482          1659.7         1418.79         1681.98 
       0.251667          1651.7         1364.37         1648.29 
       0.257832         1591.94         1318.65            1601 
       0.263955         1543.53         1277.36         1559.35 
       0.270079          1496.9         1236.26         1518.78 
        0.27624         1483.85         1192.74         1474.36 
       0.282372          1421.2         1146.59         1441.09 
        0.28843          1413.5         1099.28         1402.83 
       0.294538         1347.07         1051.88         1365.18 
       0.300721         1342.35         1006.44         1326.13 
        0.30691         1288.25         965.263         1305.59 
       0.313033         1264.92         929.438         1267.22 
       0.319153         1244.97         898.299         1235.65 
       0.325316         1204.58         870.504          1219.8 
        0.33145         1178.69         845.001         1179.54 
       0.337538         1163.36         820.392         1161.22 
       0.343633         1135.65         795.553         1148.69 
       0.349808         1100.97         769.777         1127.92 
       0.355968         1095.06         743.661         1108.53 
       0.362074         1082.38         717.998         1084.76 
       0.368217         1051.51         693.113         1056.54 
       0.374374         1012.57         669.786         1039.15 
       0.380519         1012.41         648.405         1019.12 
       0.386598          989.27         629.159         1006.22 
       0.392688         985.536         611.485         984.219 
        0.39888         957.969         594.661          972.83 
       0.405048         946.113         578.597         961.253 
       0.411186         932.466         562.881         940.005 
       0.417313         914.275         547.235           925.4 
       0.423458         900.742         531.633          911.38 
       0.429607         886.509         516.216         893.348 
       0.435692         869.493         501.383         878.439 
       0.441815         865.373         487.125         874.757 
       0.447964         846.182         473.606         860.852 
       0.454126         835.296         460.884         839.926 
       0.460267           819.8         448.997         838.579 
       0.466387         810.401         437.786         822.761 
        0.47254         800.476         426.957         813.932 
       0.478662         796.095         416.489         802.371 
       0.484765         776.073         406.278         790.638 
       0.490885         770.378         396.206         778.304 
       0.497035         754.553         386.258         771.497 
       0.503198         749.246         376.551         761.752 
       0.509342         740.999         367.207          750.65 
       0.515458         737.144         358.277         746.909 
       0.521598         721.403         349.694         737.911 
       0.527764         705.683         341.466          729.45 
       0.533884         706.575         333.661         721.282 
           0.54         697.754         326.157         713.011 
       0.546137         693.853         318.857         704.541 
       0.552299         683.173         311.709         695.214 
       0.558452         679.635         304.745         689.827 
       0.564573          668.94         297.988         683.838 
       0.570708         662.346         291.389         677.786 
       0.576825         645.198         284.988         667.425 
       0.582926         647.555         278.797         661.258 
       0.589034         641.564         272.805         651.581 
       0.595184          634.88         266.987         646.731 
       0.601379         627.483         261.342         641.705 
       0.607522         619.062         255.929         633.851 
       0.613639         619.721         250.699          630.48 
       0.619772         603.425         245.594         629.114 
       0.625918          601.74         240.606         620.767 
       0.632068         594.181         235.743         615.329 
       0.638161          592.13          231.05         606.105 
         0.6443         580.385         226.449         603.584 
       0.650464         578.709         221.959         594.222 
       0.656582         576.869         217.627          589.79 
       0.662703         572.428         213.413         587.402 
       0.668861          562.11         209.292         583.491 
       0.675024         558.167         205.282         578.975 
       0.681124         555.245         201.423         569.765 
       0.687237         550.088         197.661         565.267 
       0.693381         543.729         193.981         560.869 
       0.699536         535.762          190.39         557.255 
       0.705665          535.05         186.906         552.026 
       0.711789         530.207         183.511         547.421 
       0.717957         525.337         180.175         545.161 
        0.72409          522.05         176.939         540.476 
       0.730186         515.636         173.802         536.131 
       0.736317         512.047         170.725         530.603 
       0.742472         510.052         167.711         526.177 
       0.748622          504.22         164.775         522.191 
        0.75476         497.693         161.918         522.284 
       0.760888         492.671         159.135         515.757 
       0.767043          493.22         156.409         511.275 
       0.773185         486.855         153.754         507.829 
       0.779291             482         151.177          503.42 
       0.785407         478.489         148.656         500.675 
       0.791564          473.37         146.178         498.073 
       0.797719         470.945         143.758         493.238 
       0.803834         467.187         141.409         490.849 
       0.809972         464.342         139.104         487.797 
       0.816124         464.093         136.846         481.002 
       0.822261         456.569         134.644         478.927 
       0.828378         454.358         132.498          475.74 
       0.834502         450.409         130.398         473.885 
       0.840667         445.538          128.33         470.294 
       0.846816         443.818         126.314         467.113 
       0.852925         439.256         124.354         464.032 
       0.859047         439.288         122.433         460.352 
       0.865192         434.378         120.546         457.294 
       0.871341         430.794         118.698         454.836 
       0.877463         428.488         116.898         451.795 
       0.883569          424.91          115.14         448.977 
       0.889708         422.026          113.41         445.193 
       0.895864         417.977         111.712         442.827 
       0.902008         416.161         110.053         440.099 
       0.908149         413.053         108.428         436.069 
       0.914301         408.723         106.834         433.515 
       0.920448         405.721         105.274         430.256 
       0.926574         401.178         103.752         427.636 
       0.932687         401.575         102.262         424.592 
       0.938823         396.302         100.798         423.964 
       0.944975         396.468         99.3585         420.668 
       0.951105         391.446          97.953         417.023 
       0.957225         388.692         96.5774         415.465 
       0.963368         384.688         95.2239         412.576 
       0.969511         382.899         93.8967         409.583 
       0.975621         379.864         92.6021         407.703 
       0.981748         379.216         91.3289         404.809 
       0.987916         375.953         90.0719         403.485 
        0.99406         370.064         88.8436         400.776 
        1.00019         369.851         87.6408         396.472 
        1.00632          367.44         86.4617         394.501 
        1.01246         364.232         85.3028         392.058 
        1.01859         364.341         84.1673         389.358 
        1.02471         359.399         83.0541         388.146 
        1.03085         356.634         81.9574         386.558 
        1.03698          355.75         80.8831         384.444 
        1.04314         352.315         79.8237         381.619 
        1.04929         349.073          78.786         378.718 
        1.05541         348.431         77.7711         376.388 
        1.06154         343.861         76.7718         374.234 
        1.06769         342.073         75.7887         371.894 
        1.07382         340.295         74.8263         369.661 
        1.07993          337.93         73.8829         368.041 
        1.08607         336.993         72.9521         365.291 
        1.09222         333.869         72.0366         363.015 
        1.09836         331.252          71.138         362.127 
        1.10449           327.9          70.256         359.563 
        1.11063         325.382         69.3882         357.112 
        1.11677         324.773         68.5354         355.343 
         1.1229         322.869         67.6987         353.707 
        1.12903         319.767         66.8754         351.817 
        1.13518         317.262         66.0652         349.432 
        1.14131         315.667          65.269         347.625 
        1.14745         314.037         64.4866         345.613 
        1.15359           311.4         63.7169         343.763 
        1.15973         309.879         62.9597         341.817 
        1.16584         307.156         62.2183         339.296 
        1.17197         306.465         61.4879         337.921 
        1.17811          303.53         60.7671         336.493 
        1.18424         301.012           60.06         334.995 
        1.19038         299.607         59.3623         333.031 
        1.19652         297.223         58.6761         331.313 
        1.20267         296.435         58.0008         328.459 
        1.20881         294.326         57.3364         327.429 
        1.21495         291.671         56.6836         325.048 
        1.22108         290.256         56.0412          323.05 
         1.2272         288.258         55.4103         320.778 
        1.23334         286.051         54.7878         319.289 
        1.23949         284.879         54.1734         318.575 
        1.24562         282.929         53.5703          316.68 
        1.25174         279.839         52.9774         315.167 
        1.25789         277.957         52.3917         313.426 
        1.26402         276.864         51.8159         311.778 
        1.27014         274.662         51.2504         309.843 
        1.27628         273.103         50.6916         308.951 
        1.28244         272.202         50.1401         307.418 
        1.28858         269.455         49.5977          305.36 
        1.29471         267.008         49.0646          302.89 
        1.30084         266.046         48.5399         301.634 
        1.30697          264.09         48.0221         300.659 
        1.31312         261.882         47.5113         298.868 
        1.31925         261.815         47.0095          296.71 
        1.32537         260.084         46.5155         295.257 
        1.33151         257.379          46.027         294.095 
        1.33765         255.656         45.5458         292.319 
        1.34378         254.655         45.0725          290.94 
        1.34992         252.912         44.6057         288.883 
        1.35606         252.312         44.1446         287.301 
         1.3622         250.183         43.6908         286.087 
        1.36833         247.957         43.2446          285.14 
        1.37445         246.446         42.8049         282.716 
        1.38059         244.288           42.37         282.003 
        1.38675         243.563         41.9402         280.879 
        1.39288         241.262         41.5181         277.995 
        1.39901         240.835          41.102         277.206 
        1.40515          238.82         40.6908          275.94 
         1.4113         237.049         40.2854         274.039 
        1.41742         236.008         39.8871         272.812 
        1.42355         233.576         39.4935         271.566 
         1.4297         232.464         39.1041         270.196 
        1.43585         230.839         38.7201         269.172 
        1.44198         229.436         38.3429         267.334 
        1.44809         228.502         37.9713           266.3 
        1.45423         226.266         37.6034         264.326 
        1.46036         225.655         37.2411         263.052 
        1.46649         223.493         36.8835         262.314 
        1.47263         221.982         36.5303         261.188 
        1.47877         220.976         36.1819         259.309 
        1.48491         219.274         35.8376         257.961 
        1.49104         218.335         35.4985         256.857 
        1.49718         216.088         35.1636         255.563 
        1.50333          215.12         34.8325         254.618 
        1.50947         213.852         34.5064         253.518 
         1.5156         211.984          34.185         251.871 
        1.52172         211.041         33.8677         250.109 
        1.52787         209.477         33.5538          249.29 
          1.534         208.658         33.2443         248.088 
        1.54013         206.692          32.939         246.774 
        1.54627         206.123         32.6371         245.745 
        1.55241         204.086         32.3389         244.538 
        1.55855         202.942         32.0449         243.165 
        1.56467         201.631         31.7554         241.892 
         1.5708         201.168         31.4687         240.763 
        1.57695         198.871         31.1851           239.7 
        1.58308         198.249         30.9057         238.519 
        1.58922         196.359         30.6296         237.248 
        1.59535         195.049          30.357         236.199 
         1.6015         194.587         30.0873         234.861 
        1.60764         192.913         29.8211         233.492 
        1.61376         191.172         29.5588         232.608 
        1.61989         190.367         29.2995         231.658 
        1.62604         189.338         29.0428         230.551 
        1.63218         188.034         28.7893         229.536 
        1.63831         186.965         28.5395         228.448 
        1.64444         185.848         28.2925          227.11 
        1.65059         184.289          28.048         226.231 
        1.65673         183.441         27.8065         225.107 
        1.66285         182.388         27.5687         223.787 
        1.66898         181.137         27.3335         222.685 
        1.67512         180.552         27.1007         221.733 
        1.68127         178.403         26.8704         220.756 
         1.6874         177.322         26.6432         219.877 
        1.69353         176.669         26.4189         219.091 
        1.69967         175.319         26.1966         217.731 
        1.70581         174.236         25.9771         216.578 
        1.71193         172.919         25.7608         215.638 
        1.71806         172.306         25.5466         214.275 
        1.72421         170.905         25.3345          213.51 
        1.73035         170.093         25.1249         212.598 
        1.73649         169.196         24.9179         211.344 
        1.74262         167.737         24.7133         210.741 
        1.74876          167.06         24.5109          209.83 
        1.75489          165.52         24.3113          208.68 
        1.76101         164.601         24.1139         207.717 
        1.76715         163.965         23.9185         206.782 
        1.77329         163.099          23.725           205.7 
        1.77943         161.816         23.5336         204.598 
        1.78557          160.78         23.3446         203.665 
        1.79171         159.731         23.1576         202.875 
        1.79785         158.617         22.9727         201.989 
        1.80399         157.734         22.7898         200.903 
        1.81012         156.672         22.6092         200.084 
        1.81625         155.983         22.4307         199.316 
        1.82239         154.818         22.2538         198.372 
        1.82853         154.196         22.0789         197.414 
        1.83466         153.051         21.9061         196.344 
        1.84078         152.224         21.7353         195.352 
        1.84692         150.877         21.5661         194.722 
        1.85306         150.391         21.3985         193.784 
         1.8592         149.037          21.233         192.803 
        1.86533          148.18         21.0693         192.307 
        1.87147         147.205         20.9071         191.578 
