# k  (h/Mpc)    Pcb(k)  (Mpc/h)^3    Pcb_linear(k) (Mpc/h)^3    Pcb_NL(k) (Mpc/h)^3   ShotnoiseSubtracted = false
     0.00783031         10963.8         11110.7           11099 
       0.013688         14955.2         14850.4         14764.7 
       0.019231         16027.6         16039.7         15892.5 
      0.0249154         15407.8         15753.5         15575.4 
      0.0312784         14275.2         14491.9         14280.4 
      0.0375637         12868.2         12962.5         12740.9 
      0.0433917         11363.9         11667.2         11421.4 
      0.0492413           10454           10631         10380.9 
      0.0555754         9411.97         9805.99         9556.53 
      0.0619321         9079.85         9191.15         8932.93 
       0.067871         8337.22          8693.9          8438.7 
      0.0738098         7826.15         8180.65         7859.82 
      0.0800417         7140.99         7577.67         7266.86 
      0.0862327         6594.31         6921.56         6683.09 
      0.0921407         6080.93         6287.42         6064.17 
      0.0982031         5479.69         5685.12          5544.9 
       0.104506         5126.65         5157.93         5088.75 
       0.110769         4730.72         4753.63         4657.47 
       0.116806         4428.59         4467.55         4372.14 
       0.122832         4232.68         4255.12         4179.94 
       0.129052         3961.38         4074.05          4004.4 
       0.135211         3792.05         3896.96         3826.11 
       0.141259         3657.25         3702.54          3667.3 
       0.147318         3474.52         3481.72         3477.88 
       0.153489         3206.25         3239.73         3206.17 
       0.159709         3039.98         2997.75         3018.18 
       0.165845         2925.55         2780.48         2881.05 
       0.171974         2748.22         2597.95         2713.47 
       0.178125          2612.3         2453.37         2627.12 
       0.184229         2508.89         2343.41         2506.78 
        0.19034         2373.83         2256.14         2424.33 
       0.196428         2341.79          2179.1            2329 
       0.202534         2265.54          2100.5         2264.21 
       0.208729         2175.65         2012.35            2159 
       0.214876         2087.67         1915.32         2105.37 
       0.220989         2026.75         1813.15         2033.37 
       0.227147         1934.46         1711.15         1954.02 
        0.23329          1861.2         1616.98          1894.2 
       0.239377         1836.19         1535.75         1823.33 
       0.245482         1724.57         1467.91         1746.63 
       0.251667         1716.65         1411.61         1711.94 
       0.257832          1654.3          1364.3         1663.15 
       0.263955         1603.92         1321.59         1620.34 
       0.270079         1555.59         1279.07         1578.39 
        0.27624         1541.88         1234.03         1532.53 
       0.282372         1477.03         1186.29         1498.95 
        0.28843         1470.71         1137.34         1459.97 
       0.294538         1401.85          1088.3         1420.66 
       0.300721         1396.66         1041.29          1379.9 
        0.30691         1341.22         998.684         1359.21 
       0.313033         1316.78         961.618         1319.63 
       0.319153         1297.33         929.401         1286.58 
       0.325316         1254.94         900.644         1270.47 
        0.33145         1228.36         874.258         1228.65 
       0.337538            1212         848.797         1210.09 
       0.343633         1183.98         823.098         1197.04 
       0.349808         1147.99          796.43         1175.66 
       0.355968         1141.64          769.41          1155.7 
       0.362074         1129.03         742.858         1131.22 
       0.368217         1096.58         717.111         1102.25 
       0.374374         1056.55         692.976         1084.25 
       0.380519         1056.98         670.855         1063.66 
       0.386598         1032.54         650.943         1050.18 
       0.392688         1028.43         632.657         1027.55 
        0.39888         999.974         615.251         1015.79 
       0.405048         988.071          598.63         1003.44 
       0.411186         973.964          582.37         981.807 
       0.417313         954.846         566.182         967.185 
       0.423458         940.678         550.041         952.243 
       0.429607          926.23          534.09         933.718 
       0.435692         908.785         518.743         918.065 
       0.441815         904.451         503.991         914.626 
       0.447964         884.274         490.004         900.374 
       0.454126         874.003         476.842         878.253 
       0.460267         857.328         464.543         877.141 
       0.466387         847.209         452.943         860.608 
        0.47254         837.908          441.74          851.34 
       0.478662         832.647         430.909         839.678 
       0.484765         812.093         420.345         827.891 
       0.490885         806.321         409.925         814.635 
       0.497035         789.484         399.632         807.606 
       0.503198          784.52         389.588         797.693 
       0.509342         775.586         379.921         785.685 
       0.515458         771.905         370.682         781.881 
       0.521598         755.267         361.802         773.034 
       0.527764         738.877         353.288         764.325 
       0.533884         740.012         345.213         755.787 
           0.54         730.971          337.45          747.33 
       0.546137          726.42         329.897         738.456 
       0.552299         715.767         322.502         728.592 
       0.558452         711.866         315.296         723.086 
       0.564573         700.776         308.306         716.737 
       0.570708         694.188         301.478         710.249 
       0.576825         675.838         294.856         699.697 
       0.582926         678.774          288.45         693.468 
       0.589034         672.495          282.25         683.201 
       0.595184         665.441         276.231         678.342 
       0.601379          657.57          270.39         673.031 
       0.607522          648.82          264.79         664.602 
       0.613639          649.81         259.379         661.369 
       0.619772         632.972         254.098         659.963 
       0.625918         630.807         248.937         651.262 
       0.632068         623.114         243.905         645.955 
       0.638161         621.016          239.05         635.801 
         0.6443         608.716          234.29         633.297 
       0.650464         607.205         229.644         623.659 
       0.656582         605.062         225.162         619.151 
       0.662703         600.473         220.802         616.377 
       0.668861         589.698         216.538         612.565 
       0.675024         585.548          212.39         608.061 
       0.681124         582.511         208.398         598.259 
       0.687237         577.211         204.505         593.593 
       0.693381         570.646         200.698          588.88 
       0.699536         561.832         196.982         585.041 
       0.705665         561.578         193.377          579.55 
       0.711789         556.454         189.865         574.682 
       0.717957         551.303         186.413          572.57 
        0.72409         548.097         183.066         567.584 
       0.730186         541.044          179.82         562.956 
       0.736317         537.492         176.636         557.253 
       0.742472         535.302         173.518         552.712 
       0.748622         529.251          170.48         548.524 
        0.75476         522.075         167.524         548.743 
       0.760888          517.01         164.645         541.866 
       0.767043         517.384         161.824         536.855 
       0.773185         511.019         159.077         533.411 
       0.779291         506.222         156.411         528.792 
       0.785407         502.202         153.803         525.904 
       0.791564         496.856         151.239         523.454 
       0.797719         494.392         148.735         518.205 
       0.803834         490.475         146.305         515.705 
       0.809972          487.42          143.92         512.671 
       0.816124         487.032         141.584         505.393 
       0.822261         479.267         139.306         503.197 
       0.828378         476.889         137.086         499.913 
       0.834502         472.493         134.913         498.097 
       0.840667         467.731         132.774         494.312 
       0.846816         465.795         130.687         490.875 
       0.852925         460.973          128.66         487.736 
       0.859047         461.198         126.672         483.708 
       0.865192         455.888          124.72         480.494 
       0.871341         452.076         122.808         478.044 
       0.877463         449.967         120.945         474.847 
       0.883569         445.902         119.127         471.784 
       0.889708         443.099         117.337         467.836 
       0.895864         439.122          115.58         465.402 
       0.902008         436.922         113.863         462.585 
       0.908149         433.429         112.182         458.352 
       0.914301         429.221         110.533         455.507 
       0.920448         426.167         108.919         452.367 
       0.926574         420.965         107.344         449.464 
       0.932687         421.317         105.803         446.441 
       0.938823         415.914         104.288         445.665 
       0.944975         416.291         102.799          442.11 
       0.951105         410.665         101.345         438.198 
       0.957225         407.871         99.9213         436.828 
       0.963368         403.878          98.521         433.825 
       0.969511         402.097         97.1477         430.644 
       0.975621         398.883         95.8083         428.455 
       0.981748          397.86         94.4911         425.394 
       0.987916         394.628         93.1905         424.188 
        0.99406         388.302         91.9197         421.237 
        1.00019         387.939         90.6753         416.627 
        1.00632         385.503         89.4554         414.635 
        1.01246         382.225         88.2563          412.08 
        1.01859         382.272         87.0815         409.133 
        1.02471         377.052         85.9298         407.934 
        1.03085         374.395         84.7951          406.37 
        1.03698         373.393         83.6836         404.094 
        1.04314          369.77         82.5875          401.19 
        1.04929         366.112         81.5139         398.076 
        1.05541         365.615         80.4639         395.579 
        1.06154         360.798         79.4299         393.299 
        1.06769         358.688         78.4128         390.753 
        1.07382         356.903         77.4171         388.522 
        1.07993         354.485          76.441         386.769 
        1.08607         353.483          75.478         383.814 
        1.09222         350.174         74.5308         381.453 
        1.09836         347.563         73.6011          380.51 
        1.10449         343.988         72.6885         377.821 
        1.11063         341.246         71.7906         375.123 
        1.11677         340.729         70.9084         373.447 
         1.1229         338.753         70.0427          371.59 
        1.12903         335.419         69.1908         369.594 
        1.13518          332.61         68.3526         367.117 
        1.14131         331.151         67.5289         365.147 
        1.14745         329.056         66.7193          363.07 
        1.15359         326.565         65.9231         361.205 
        1.15973         324.734         65.1396         359.152 
        1.16584         322.121         64.3725         356.662 
        1.17197         321.284         63.6168         355.049 
        1.17811         318.229          62.871         353.491 
        1.18424         315.411         62.1395         351.991 
        1.19038         313.881         61.4177         349.894 
        1.19652         311.487         60.7077          348.02 
        1.20267         310.589          60.009         345.112 
        1.20881         308.573         59.3216         343.887 
        1.21495         305.723         58.6462         341.471 
        1.22108         304.165         57.9815         339.361 
         1.2272         302.046         57.3288          337.05 
        1.23334         299.728         56.6847          335.35 
        1.23949         298.533         56.0491         334.511 
        1.24562         296.453         55.4251         332.657 
        1.25174         293.304         54.8116         330.952 
        1.25789         291.221         54.2057         329.178 
        1.26402         290.011           53.61          327.54 
        1.27014          287.67         53.0248         325.279 
        1.27628         286.041         52.4467         324.439 
        1.28244         285.129         51.8762         322.967 
        1.28858         282.136          51.315         320.719 
        1.29471         279.631         50.7634          318.08 
        1.30084         278.695         50.2205         316.777 
        1.30697         276.585         49.6848         315.748 
        1.31312         274.188         49.1563         313.971 
        1.31925         274.102         48.6371         311.682 
        1.32537         272.385         48.1261          309.96 
        1.33151         269.411         47.6206         308.811 
        1.33765         267.647         47.1228         307.043 
        1.34378          266.58         46.6331         305.504 
        1.34992         264.676         46.1501         303.324 
        1.35606         263.989          45.673         301.713 
         1.3622         261.775         45.2036         300.456 
        1.36833         259.537         44.7419         299.475 
        1.37445         258.053          44.287         296.896 
        1.38059         255.601          43.837          296.17 
        1.38675         254.919         43.3923         295.064 
        1.39288          252.56         42.9556         291.983 
        1.39901         251.948         42.5251         291.025 
        1.40515         249.897         42.0997         289.619 
         1.4113         248.196         41.6802         287.677 
        1.41742         246.918         41.2682         286.462 
        1.42355         244.441         40.8609         285.006 
         1.4297         243.229          40.458           283.6 
        1.43585          241.61         40.0608         282.663 
        1.44198         240.137         39.6704         280.621 
        1.44809         239.023         39.2861         279.658 
        1.45423         236.723         38.9054          277.43 
        1.46036         236.027         38.5305         276.106 
        1.46649         233.729         38.1605         275.306 
        1.47263         232.218         37.7951         273.974 
        1.47877         231.109         37.4347         272.065 
        1.48491         229.333         37.0784          270.66 
        1.49104         228.406         36.7276         269.424 
        1.49718          226.09         36.3811         268.229 
        1.50333         225.008         36.0385         267.265 
        1.50947         223.604         35.7011         266.046 
         1.5156         221.631         35.3686         264.279 
        1.52172         220.775         35.0403         262.399 
        1.52787         219.118         34.7155         261.546 
          1.534         218.144         34.3953         260.356 
        1.54013         216.103         34.0795         258.913 
        1.54627         215.503         33.7671         257.782 
        1.55241         213.419         33.4586           256.6 
        1.55855         212.211         33.1544          255.21 
        1.56467         210.798         32.8549         253.772 
         1.5708          210.43         32.5583         252.492 
        1.57695         208.003         32.2649         251.424 
        1.58308         207.188         31.9758          250.19 
        1.58922         205.124         31.6901         248.807 
        1.59535         203.807          31.408         247.785 
         1.6015         203.396          31.129          246.41 
        1.60764          201.63         30.8536         244.898 
        1.61376         199.859         30.5822         243.923 
        1.61989         198.935          30.314           242.9 
        1.62604         197.829         30.0484         241.734 
        1.63218         196.494         29.7861         240.709 
        1.63831         195.336         29.5276          239.62 
        1.64444         194.262         29.2721         238.189 
        1.65059         192.521         29.0191         237.206 
        1.65673         191.717         28.7693         236.067 
        1.66285          190.54         28.5232         234.694 
        1.66898         189.139         28.2799         233.444 
        1.67512         188.597          28.039         232.484 
        1.68127         186.314         27.8007         231.416 
         1.6874         185.283         27.5657         230.419 
        1.69353         184.475         27.3336         229.663 
        1.69967         183.071         27.1037          228.25 
        1.70581         181.965         26.8765         227.033 
        1.71193         180.621         26.6528         226.066 
        1.71806         179.955         26.4311          224.66 
        1.72421         178.414         26.2116          223.83 
        1.73035         177.658         25.9949         222.828 
        1.73649         176.601         25.7806         221.499 
        1.74262         175.183          25.569         220.898 
        1.74876         174.401         25.3596         219.929 
        1.75489         172.801          25.153         218.701 
        1.76101         171.838         24.9488         217.715 
        1.76715          171.15         24.7466          216.77 
        1.77329         170.224         24.5464         215.658 
        1.77943             169         24.3484         214.494 
        1.78557         167.849         24.1528         213.475 
        1.79171         166.725         23.9594         212.612 
        1.79785           165.5         23.7681         211.671 
        1.80399         164.585         23.5789         210.549 
        1.81012         163.488         23.3921         209.759 
        1.81625         162.811         23.2073         208.919 
        1.82239         161.495         23.0243         207.826 
        1.82853         160.886         22.8434         206.837 
        1.83466         159.647         22.6646         205.748 
        1.84078         158.818         22.4879          204.71 
        1.84692          157.36         22.3128         204.064 
        1.85306         156.873         22.1394         203.056 
         1.8592         155.511         21.9681         201.996 
        1.86533         154.613         21.7988         201.503 
        1.87147         153.525          21.631         200.776 
