# k  (h/Mpc)    Pcb(k)  (Mpc/h)^3    Pcb_linear(k) (Mpc/h)^3    Pcb_NL(k) (Mpc/h)^3   ShotnoiseSubtracted = false
     0.00783031         52.1518         52.5464         52.4989 
       0.013688          70.001         70.3052         70.0871 
       0.019231          75.857         75.9676         75.6374 
      0.0249154         74.3834         74.6294          74.403 
      0.0312784         68.5968         68.6633         68.5729 
      0.0375637         61.4716         61.4225         61.3831 
      0.0433917         55.3022         55.2881         55.2925 
      0.0492413         50.4288         50.3795         50.3922 
      0.0555754         46.4655         46.4714         46.4702 
      0.0619321         43.6186         43.5586         43.5471 
       0.067871         41.1745         41.2027         41.1715 
      0.0738098         38.7236         38.7708         38.7232 
      0.0800417         35.8446         35.9136         35.8712 
      0.0862327         32.7713         32.8044         32.7767 
      0.0921407         29.7905         29.7992         29.7856 
      0.0982031         26.9286         26.9448         26.9471 
       0.104506         24.4786         24.4463         24.4587 
       0.110769         22.5558         22.5302         22.5388 
       0.116806          21.158         21.1744         21.1746 
       0.122832         20.1726         20.1676         20.1656 
       0.129052         19.2833         19.3094         19.3019 
       0.135211         18.4307         18.4701         18.4591 
       0.141259         17.5283         17.5486         17.5401 
       0.147318         16.5036         16.5021         16.5003 
       0.153489         15.3446         15.3552         15.3527 
       0.159709         14.2018         14.2084         14.2146 
       0.165845         13.2063         13.1786         13.1963 
       0.171974         12.3092         12.3135         12.3311 
       0.178125         11.6279         11.6282         11.6522 
       0.184229          11.117         11.1071         11.1304 
        0.19034          10.675         10.6934         10.7146 
       0.196428         10.3215         10.3283         10.3427 
       0.202534         9.97039         9.95573         9.97063 
       0.208729         9.53596         9.53795          9.5522 
       0.214876         9.06116         9.07803         9.09972 
       0.220989         8.60978         8.59382         8.61932 
       0.227147         8.09812         8.11037         8.13692 
        0.23329         7.65439         7.66402         7.69755 
       0.239377         7.27362         7.27904         7.31674 
       0.245482         6.94787         6.95751         6.99216 
       0.251667         6.69539         6.69065         6.72846 
       0.257832         6.46245         6.46643         6.50322 
       0.263955         6.26282         6.26397         6.29843 
       0.270079         6.06259         6.06243         6.09504 
        0.27624         5.86059         5.84899         5.87966 
       0.282372         5.63282         5.62272         5.65603 
        0.28843         5.39047         5.39069         5.42546 
       0.294538         5.16104         5.15828         5.19561 
       0.300721         4.94847         4.93544         4.97624 
        0.30691         4.73663          4.7335         4.77526 
       0.313033         4.56341         4.55782         4.59912 
       0.319153         4.39391         4.40512         4.44932 
       0.325316         4.28133         4.26882         4.31451 
        0.33145          4.1524         4.14376         4.18658 
       0.337538         4.02923         4.02308         4.06436 
       0.343633         3.90364         3.90127         3.94219 
       0.349808          3.7813         3.77487         3.81728 
       0.355968         3.65508         3.64681         3.69464 
       0.362074         3.52714         3.52096         3.56687 
       0.368217         3.40644         3.39893         3.44136 
       0.374374         3.28424         3.28454         3.33077 
       0.380519         3.18754         3.17969         3.22464 
       0.386598         3.09535         3.08531         3.13196 
       0.392688         3.01163         2.99864         3.04501 
        0.39888          2.9259         2.91614          2.9619 
       0.405048         2.84791         2.83736         2.88067 
       0.411186         2.77252         2.76029         2.80807 
       0.417313         2.69118         2.68356         2.72939 
       0.423458         2.61942         2.60706         2.65374 
       0.429607         2.53932         2.53145         2.57675 
       0.435692         2.46677         2.45872         2.50604 
       0.441815         2.39814         2.38879         2.43895 
       0.447964         2.33778          2.3225         2.37118 
       0.454126           2.269         2.26012          2.3081 
       0.460267         2.20923         2.20182         2.25105 
       0.466387         2.15326         2.14684         2.19402 
        0.47254         2.10152         2.09374         2.14135 
       0.478662         2.05176         2.04241         2.08912 
       0.484765         1.99973         1.99233         2.03959 
       0.490885         1.95099         1.94294          1.9934 
       0.497035         1.90852         1.89416         1.94494 
       0.503198         1.85767         1.84655         1.89348 
       0.509342         1.81427         1.80073          1.8491 
       0.515458          1.7674         1.75694         1.80752 
       0.521598         1.72608         1.71485          1.7618 
       0.527764         1.68292          1.6745          1.7214 
       0.533884         1.64929         1.63623         1.68347 
           0.54         1.61116         1.59943         1.64582 
       0.546137         1.57713         1.56363         1.61098 
       0.552299         1.54086         1.52858         1.57295 
       0.558452         1.50421         1.49443         1.53953 
       0.564573         1.47273          1.4613         1.50989 
       0.570708         1.44083         1.42893         1.47655 
       0.576825         1.40816         1.39755         1.44435 
       0.582926         1.38039         1.36719         1.41479 
       0.589034         1.34548          1.3378         1.38676 
       0.595184         1.31832         1.30927         1.35393 
       0.601379         1.29122         1.28159         1.32938 
       0.607522          1.2668         1.25504         1.30212 
       0.613639         1.24379         1.22939         1.27585 
       0.619772         1.21459         1.20436         1.25228 
       0.625918         1.19096          1.1799         1.22607 
       0.632068         1.16894         1.15605          1.2016 
       0.638161         1.14445         1.13304         1.17835 
         0.6443         1.12181         1.11048         1.15503 
       0.650464         1.09796         1.08846         1.13479 
       0.656582         1.07823         1.06721         1.11284 
       0.662703         1.05798         1.04655         1.09159 
       0.668861         1.04002         1.02634         1.07274 
       0.675024         1.01831         1.00668         1.05193 
       0.681124        0.997019        0.987755         1.03238 
       0.687237         0.98121        0.969307         1.01234 
       0.693381        0.963797         0.95126        0.993238 
       0.699536        0.942329         0.93365        0.976184 
       0.705665        0.926155        0.916564        0.961713 
       0.711789        0.911149        0.899915        0.944364 
       0.717957        0.893341        0.883556        0.926562 
        0.72409        0.878493        0.867689        0.910724 
       0.730186        0.862098        0.852305        0.894104 
       0.736317        0.849362        0.837212         0.87869 
       0.742472        0.833846        0.822434        0.866281 
       0.748622        0.818789        0.808035        0.851713 
        0.75476        0.803452        0.794024        0.835765 
       0.760888        0.789244        0.780378        0.822504 
       0.767043        0.779675        0.767009        0.809507 
       0.773185        0.764445        0.753989        0.796973 
       0.779291        0.751666        0.741352        0.784027 
       0.785407        0.739746        0.728991        0.770982 
       0.791564        0.727695        0.716839        0.758803 
       0.797719        0.716632        0.704971        0.745309 
       0.803834         0.70512         0.69345        0.734337 
       0.809972        0.693178        0.682147        0.724116 
       0.816124        0.681749        0.671073        0.711489 
       0.822261        0.670163        0.660278        0.700447 
       0.828378        0.660853        0.649756        0.689812 
       0.834502        0.651125        0.639456        0.678681 
       0.840667         0.63928        0.629317        0.669037 
       0.846816        0.629588        0.619428        0.660669 
       0.852925        0.621584        0.609818        0.649973 
       0.859047        0.611895        0.600394        0.641603 
       0.865192        0.601721        0.591142        0.631346 
       0.871341        0.592255        0.582081        0.621664 
       0.877463        0.585359        0.573254        0.612352 
       0.883569        0.575501        0.564634        0.604342 
       0.889708        0.566835        0.556151        0.595681 
       0.895864        0.558484        0.547822        0.586846 
       0.902008        0.549882        0.539684        0.578495 
       0.908149        0.541691        0.531718        0.570882 
       0.914301        0.532434        0.523902        0.562018 
       0.920448        0.525658        0.516253        0.554028 
       0.926574        0.517985        0.508785        0.546778 
       0.932687        0.510451        0.501483        0.538359 
       0.938823        0.504855          0.4943        0.532976 
       0.944975        0.497083        0.487242        0.523812 
       0.951105        0.490579         0.48035        0.516929 
       0.957225        0.484492        0.473604        0.511212 
       0.963368        0.477365        0.466967        0.503653 
       0.969511        0.469975        0.460458        0.497118 
       0.975621        0.463359         0.45411         0.48922 
       0.981748        0.458509        0.447866        0.483263 
       0.987916        0.451975        0.441702        0.478326 
        0.99406        0.445514        0.435678        0.472363 
        1.00019        0.440319         0.42978        0.466202 
        1.00632        0.433197        0.423998        0.459593 
        1.01246        0.427455        0.418315        0.453491 
        1.01859        0.422578        0.412746        0.448255 
        1.02471        0.416771        0.407287        0.442854 
        1.03085        0.412503        0.401909        0.436279 
        1.03698         0.40626        0.396641        0.430648 
        1.04314        0.401264        0.391446        0.425796 
        1.04929        0.395682        0.386357        0.420563 
        1.05541        0.391411         0.38138        0.415973 
        1.06154        0.385831         0.37648        0.410864 
        1.06769        0.380557        0.371659        0.405647 
        1.07382        0.376265        0.366939        0.400819 
        1.07993        0.371039        0.362313        0.395981 
        1.08607        0.367741        0.357748        0.391402 
        1.09222        0.362411        0.353259        0.386322 
        1.09836        0.358875        0.348852        0.382209 
        1.10449        0.354304        0.344527        0.377678 
        1.11063        0.349321        0.340271        0.372752 
        1.11677        0.344716         0.33609        0.368988 
         1.1229        0.341308        0.331986        0.364739 
        1.12903        0.336756        0.327949        0.360433 
        1.13518        0.333178        0.323976        0.356388 
        1.14131        0.328887        0.320072         0.35249 
        1.14745        0.324008        0.316235        0.347853 
        1.15359        0.321075         0.31246        0.344283 
        1.15973        0.316675        0.308747        0.340802 
        1.16584        0.313913        0.305111        0.336558 
        1.17197        0.310139        0.301529        0.332868 
        1.17811        0.306906        0.297994        0.329601 
        1.18424        0.303899        0.294527        0.325362 
        1.19038        0.299777        0.291106        0.321983 
        1.19652        0.295617        0.287741        0.318689 
        1.20267        0.293325        0.284429        0.314428 
        1.20881        0.289797        0.281171        0.311711 
        1.21495        0.287068         0.27797        0.309024 
        1.22108        0.283441        0.274819        0.305042 
         1.2272        0.280638        0.271725          0.3014 
        1.23334        0.277312        0.268673         0.29855 
        1.23949        0.274224         0.26566        0.295857 
        1.24562        0.271238        0.262702        0.292682 
        1.25174        0.268435        0.259795        0.289227 
        1.25789         0.26597        0.256923        0.286161 
        1.26402        0.262221        0.254099        0.283309 
        1.27014        0.259759        0.251326        0.280302 
        1.27628        0.257239        0.248586        0.277359 
        1.28244        0.253814        0.245881        0.274629 
        1.28858        0.251562        0.243221        0.271389 
        1.29471        0.249475        0.240607        0.269023 
        1.30084        0.246305        0.238034        0.266884 
        1.30697        0.243829        0.235495        0.263961 
        1.31312        0.240601         0.23299        0.261196 
        1.31925        0.238405        0.230529        0.258886 
        1.32537        0.236259        0.228107        0.256418 
        1.33151        0.234038        0.225711        0.253827 
        1.33765        0.231604        0.223351        0.251338 
        1.34378        0.228874         0.22103         0.24896 
        1.34992         0.22669        0.218741        0.246631 
        1.35606        0.224442         0.21648        0.243817 
         1.3622        0.222212        0.214255        0.241548 
        1.36833         0.21982        0.212067        0.239473 
        1.37445        0.217186         0.20991        0.237353 
        1.38059        0.215254        0.207778        0.234841 
        1.38675        0.213953         0.20567        0.232626 
        1.39288        0.211529          0.2036        0.230295 
        1.39901        0.209385         0.20156         0.22831 
        1.40515        0.207655        0.199543        0.226091 
         1.4113        0.205097        0.197555        0.224185 
        1.41742        0.203136        0.195602        0.222578 
        1.42355        0.201607        0.193672        0.219698 
         1.4297        0.199326        0.191762        0.218178 
        1.43585         0.19763        0.189879        0.216117 
        1.44198        0.195915        0.188029        0.213436 
        1.44809        0.193753        0.186207        0.212369 
        1.45423        0.192163        0.184403        0.209687 
        1.46036        0.190163        0.182626        0.208098 
        1.46649        0.188836        0.180872        0.206734 
        1.47263        0.186868         0.17914        0.204662 
        1.47877        0.184604        0.177432        0.202853 
        1.48491        0.183345        0.175743        0.201278 
        1.49104         0.18116        0.174081        0.198998 
        1.49718        0.179559        0.172438        0.197774 
        1.50333        0.178393        0.170815         0.19543 
        1.50947        0.176483        0.169215        0.193654 
         1.5156        0.174836        0.167639        0.192436 
        1.52172          0.1734        0.166083        0.190496 
        1.52787        0.171793        0.164544        0.188817 
          1.534        0.169992        0.163026        0.187451 
        1.54013        0.168555        0.161529        0.185804 
        1.54627        0.167315        0.160049        0.184088 
        1.55241        0.165477        0.158586        0.182521 
        1.55855        0.163891        0.157145        0.181004 
        1.56467         0.16308        0.155725        0.179685 
         1.5708        0.161377        0.154319        0.177903 
        1.57695        0.159893        0.152928        0.176225 
        1.58308        0.158504        0.151558        0.175095 
        1.58922        0.157182        0.150204        0.173709 
        1.59535        0.155792        0.148867        0.172126 
         1.6015        0.154245        0.147545        0.170493 
        1.60764        0.153174        0.146239        0.169339 
        1.61376        0.151581        0.144953          0.1684 
        1.61989        0.150442        0.143682        0.166848 
        1.62604        0.149321        0.142423        0.165388 
        1.63218        0.147986         0.14118        0.164108 
        1.63831        0.146716        0.139954        0.162785 
        1.64444        0.145552        0.138743        0.161358 
        1.65059        0.144405        0.137544        0.160015 
        1.65673        0.143136         0.13636         0.15884 
        1.66285        0.142099        0.135194        0.157636 
        1.66898        0.140835        0.134041        0.156272 
        1.67512        0.139494        0.132899        0.155025 
        1.68127        0.138249        0.131769        0.153915 
         1.6874        0.137375        0.130655         0.15283 
        1.69353        0.135939        0.129555        0.151609 
        1.69967        0.135295        0.128465        0.150224 
        1.70581        0.133707        0.127389        0.149035 
        1.71193        0.132778        0.126328        0.148013 
        1.71806        0.131535        0.125278        0.146854 
        1.72421        0.130888        0.124237        0.145905 
        1.73035        0.129584         0.12321        0.144746 
        1.73649         0.12871        0.122195        0.143319 
        1.74262        0.127611        0.121191        0.142256 
        1.74876        0.126551        0.120199        0.141426 
        1.75489         0.12576         0.11922        0.140418 
        1.76101        0.124537        0.118252        0.139208 
        1.76715        0.123528        0.117294        0.138286 
        1.77329         0.12239        0.116345        0.137382 
        1.77943          0.1216        0.115406        0.136307 
        1.78557        0.120847        0.114479        0.135148 
        1.79171        0.119858        0.113562         0.13403 
        1.79785        0.118964        0.112656        0.133117 
        1.80399        0.117956        0.111759        0.132331 
        1.81012         0.11718        0.110873        0.131043 
        1.81625        0.116129        0.109998        0.129982 
        1.82239        0.115212         0.10913        0.129409 
        1.82853        0.114356        0.108273        0.128567 
        1.83466        0.113572        0.107425        0.127505 
        1.84078         0.11265        0.106588        0.126512 
        1.84692        0.111705        0.105758        0.125763 
        1.85306        0.111047        0.104936        0.124741 
         1.8592        0.109985        0.104124        0.123648 
        1.86533        0.109323        0.103321        0.122929 
        1.87147        0.108477        0.102526        0.122149 
