# k  (h/Mpc)    P(k)  (Mpc/h)^3    P_linear(k)  (Mpc/h)^3     P_NL(k)  ShotnoiseSubtracted = false
     0.00783031         1632.97         1648.18         1647.32 
       0.013688         2204.24         2203.81         2196.31 
       0.019231         2380.59         2380.76         2368.71 
      0.0249154         2320.17         2338.54         2328.92 
      0.0312784         2144.87         2151.42         2144.92 
      0.0375637         1926.51         1924.46         1918.76 
      0.0433917         1723.63         1732.21         1727.34 
      0.0492413         1576.77          1578.4         1573.79 
      0.0555754         1443.73         1455.94         1450.89 
      0.0619321         1369.12         1364.67          1359.3 
       0.067871         1281.54         1290.85         1284.94 
      0.0738098         1204.16         1214.65         1206.93 
      0.0800417         1110.28         1125.13         1117.73 
      0.0862327         1018.52         1027.72          1022.3 
      0.0921407          928.95         933.564         928.809 
      0.0982031         837.436         844.137         841.794 
       0.104506         768.442         765.861         765.484 
       0.110769         708.027         705.832         704.448 
       0.116806         660.861         663.355         661.872 
       0.122832         632.953         631.815         630.891 
       0.129052         600.868          604.93         603.948 
       0.135211         574.027         578.635         577.763 
       0.141259         548.794         549.768         549.661 
       0.147318         518.762          516.98         518.253 
       0.153489         480.566         481.049         481.066 
       0.159709         447.246          445.12         446.817 
       0.165845         420.543         412.858         417.331 
       0.171974         390.242         385.756         390.192 
       0.178125         369.823         364.288         370.643 
       0.184229         354.984         347.961         354.457 
        0.19034          336.69         335.003         341.374 
       0.196428         328.913         323.564         328.585 
       0.202534         319.991         311.893         317.338 
       0.208729         305.039         298.805         303.986 
       0.214876         288.482         284.396         291.558 
       0.220989         278.108         269.227         277.142 
       0.227147         259.764         254.081         262.155 
        0.23329         247.021         240.097         249.914 
       0.239377         237.273         228.037         238.771 
       0.245482         224.304         217.964         227.891 
       0.251667         219.227         209.604         220.499 
       0.257832          212.04          202.58         213.348 
       0.263955         205.197         196.237         206.635 
       0.270079         199.038         189.923         200.028 
        0.27624         194.525         183.236         192.924 
       0.282372         186.984         176.148         186.331 
        0.28843         179.171         168.879         179.244 
       0.294538         171.993         161.598         172.668 
       0.300721         167.513         154.617         166.569 
        0.30691         159.838          148.29         160.551 
       0.313033          154.86         142.786         154.833 
       0.319153         147.972         138.003         150.704 
       0.325316         145.757         133.733         146.893 
        0.33145         140.992         129.815         142.282 
       0.337538         138.054         126.035         138.232 
       0.343633         133.754         122.219         134.672 
       0.349808         130.013         118.258         131.019 
       0.355968         126.442         114.247         127.854 
       0.362074         122.502         110.304         123.711 
       0.368217         119.036         106.481         119.255 
       0.374374         115.364         102.898         116.342 
       0.380519          112.45         99.6125         112.891 
       0.386598         109.505          96.656         110.103 
       0.392688         107.419         93.9408         107.606 
        0.39888         104.539         91.3562         104.653 
       0.405048         102.337         88.8883         102.198 
       0.411186          100.21         86.4738         100.395 
       0.417313         97.0511         84.0702         97.3556 
       0.423458         94.8492         81.6737         95.1943 
       0.429607         92.3207         79.3048         92.7049 
       0.435692         89.5178         77.0261         90.7121 
       0.441815         88.3023         74.8357         89.1177 
       0.447964         86.8922         72.7589           86.71 
       0.454126         83.4862         70.8041         84.5537 
       0.460267         82.1008         68.9784          83.084 
       0.466387         80.0363         67.2558         81.0905 
        0.47254          78.961         65.5923         79.5972 
       0.478662         77.6145          63.984          77.862 
       0.484765         75.6355         62.4156         76.1143 
       0.490885         74.0165         60.8681         75.0237 
       0.497035         73.0134         59.3399         73.6434 
       0.503198         71.2248         57.8485         71.7556 
       0.509342         69.4701          56.413         70.5499 
       0.515458         68.2235         55.0412         69.6307 
       0.521598         67.2258         53.7226         67.7051 
       0.527764         65.9431         52.4584          66.148 
       0.533884         64.8013         51.2594         65.0428 
           0.54         63.6363         50.1067         63.8894 
       0.546137         62.6985         48.9852         63.0196 
       0.552299         61.7893          47.887         61.5668 
       0.558452         59.9588         46.8172         60.4115 
       0.564573         59.1111         45.7792         59.7006 
       0.570708         58.3625         44.7653         58.6251 
       0.576825         56.9712          43.782         57.6035 
       0.582926         56.0258         42.8309           56.69 
       0.589034         54.5996         41.9102         55.8897 
       0.595184         53.9603         41.0166         54.7389 
       0.601379         53.2052         40.1493         54.0788 
       0.607522         52.1329         39.3177          52.961 
       0.613639         51.8079         38.5143         52.1609 
       0.619772         50.4876         37.7301         51.3913 
       0.625918         50.2791         36.9638         50.7588 
       0.632068         49.4757         36.2166         49.7657 
       0.638161         48.5569         35.4956         49.0458 
         0.6443         47.6781         34.7889         48.1881 
       0.650464         46.9152         34.0991         47.6044 
       0.656582         46.6267         33.4335         46.9562 
       0.662703         45.7571         32.7861         46.1344 
       0.668861         45.0353          32.153         45.6176 
       0.675024         44.3222         31.5369         44.8062 
       0.681124         43.5885         30.9442         44.1748 
       0.687237         42.9082         30.3662          43.471 
       0.693381         42.5632         29.8009         42.8871 
       0.699536         41.5843         29.2492         42.4176 
       0.705665          41.521         28.7139         41.9508 
       0.711789         40.6311         28.1923         41.1733 
       0.717957         40.1745         27.6799         40.7008 
        0.72409         39.5911         27.1828           40.26 
       0.730186         39.0739         26.7008         39.6402 
       0.736317         38.7229          26.228          39.107 
       0.742472         38.0596          25.765         38.7768 
       0.748622         37.7171          25.314         38.1352 
        0.75476         37.0844          24.875          37.662 
       0.760888         36.6532         24.4475         37.2516 
       0.767043         36.2421         24.0287         36.8819 
       0.773185         35.6283         23.6208         36.4054 
       0.779291         35.4506         23.2249         36.0234 
       0.785407         35.0263         22.8377         35.5307 
       0.791564         34.4011          22.457         35.1123 
       0.797719         33.8184         22.0852         34.6724 
       0.803834         33.7443         21.7242         34.2186 
       0.809972         33.4164         21.3701          33.956 
       0.816124          32.632         21.0232         33.4721 
       0.822261         32.5147         20.6851         33.0332 
       0.828378         32.1471         20.3554         32.6694 
       0.834502         31.7908         20.0328         32.4716 
       0.840667         31.4445         19.7151         31.9868 
       0.846816         30.9465         19.4053         31.6958 
       0.852925         30.6939         19.1042         31.5451 
       0.859047         30.3413          18.809         31.0047 
       0.865192         30.0886         18.5192         30.6881 
       0.871341         29.8812         18.2353         30.4469 
       0.877463         29.3487         17.9588         30.0787 
       0.883569          29.008         17.6887         29.8411 
       0.889708         28.6615          17.423         29.4522 
       0.895864         28.4952         17.1621         29.1349 
       0.902008         28.2666         16.9071         28.8897 
       0.908149         27.9708         16.6576         28.6297 
       0.914301         27.7932         16.4127          28.434 
       0.920448         27.2345         16.1731         28.0234 
       0.926574         27.0803         15.9391         27.7398 
       0.932687         26.8084         15.7103         27.4213 
       0.938823         26.4839         15.4853         27.2129 
       0.944975          26.207         15.2642         26.9256 
       0.951105         26.0374         15.0483         26.6063 
       0.957225         25.7621          14.837         26.4906 
       0.963368         25.5215          14.629         26.1681 
       0.969511          25.338         14.4251         25.9714 
       0.975621         25.1373         14.2262          25.692 
       0.981748         24.8248         14.0306          25.521 
       0.987916         24.6512         13.8375         25.2359 
        0.99406          24.359         13.6488         25.0224 
        1.00019         24.0361         13.4641         24.8227 
        1.00632         24.0239         13.2829         24.6281 
        1.01246         23.7609         13.1049         24.4859 
        1.01859         23.4369         12.9304         24.1998 
        1.02471         23.3577         12.7594         23.9501 
        1.03085         23.1398         12.5909         23.7772 
        1.03698         22.7888         12.4259         23.5788 
        1.04314         22.6716         12.2631          23.331 
        1.04929         22.4026         12.1037         23.1823 
        1.05541         22.2053         11.9478          23.028 
        1.06154         22.0386         11.7943         22.7781 
        1.06769         21.9374         11.6432         22.6009 
        1.07382         21.6685         11.4954         22.4507 
        1.07993         21.5649         11.3505          22.259 
        1.08607         21.3265         11.2075         22.0544 
        1.09222         21.1636         11.0668         21.8982 
        1.09836         20.9208         10.9288          21.695 
        1.10449          20.834         10.7933         21.5221 
        1.11063         20.6261         10.6599         21.3969 
        1.11677         20.5262         10.5289         21.1886 
         1.1229         20.3976         10.4004         21.0504 
        1.12903         20.1648         10.2739         20.9439 
        1.13518         19.9501         10.1494         20.7429 
        1.14131         19.8444         10.0271         20.5714 
        1.14745         19.6995         9.90692         20.3939 
        1.15359         19.5649         9.78868         20.2653 
        1.15973         19.4086         9.67235         20.1162 
        1.16584         19.1564         9.55845         20.0318 
        1.17197         19.0981         9.44624         19.8707 
        1.17811         18.9495          9.3355         19.6735 
        1.18424         18.7849         9.22688         19.5644 
        1.19038         18.7071          9.1197         19.4133 
        1.19652         18.5317         9.01427         19.2659 
        1.20267         18.3424         8.91053         19.1178 
        1.20881         18.3235         8.80846         19.0602 
        1.21495         18.1743         8.70817         18.9003 
        1.22108         17.9758         8.60947         18.7637 
         1.2272         17.8446         8.51255         18.5981 
        1.23334         17.6831         8.41692          18.515 
        1.23949         17.5617         8.32254         18.3792 
        1.24562         17.5143         8.22988         18.2268 
        1.25174         17.3794         8.13879         18.1315 
        1.25789         17.2747         8.04881         17.9995 
        1.26402         17.1778         7.96036         17.8479 
        1.27014         17.0355         7.87347         17.7553 
        1.27628         16.8384         7.78763         17.6433 
        1.28244         16.7572         7.70291         17.5713 
        1.28858         16.7132         7.61958         17.4094 
        1.29471         16.5387         7.53768         17.2971 
        1.30084         16.3976         7.45707          17.245 
        1.30697         16.3589         7.37753         17.0957 
        1.31312           16.15         7.29904         16.9857 
        1.31925         16.0616         7.22196         16.9202 
        1.32537         15.9978         7.14608         16.8216 
        1.33151         15.8837         7.07102         16.6857 
        1.33765         15.7657          6.9971         16.5678 
        1.34378         15.6625         6.92439         16.4951 
        1.34992         15.5322         6.85267         16.3891 
        1.35606         15.4783         6.78183         16.2589 
         1.3622         15.3921         6.71212         16.1707 
        1.36833         15.2701         6.64357          16.123 
        1.37445         15.1907         6.57602         15.9938 
        1.38059         15.1263         6.50921         15.8756 
        1.38675         14.9767         6.44317         15.8136 
        1.39288         14.8917         6.37833         15.7036 
        1.39901         14.7533         6.31441         15.6284 
        1.40515         14.7179         6.25123         15.5452 
         1.4113         14.6375         6.18895         15.4519 
        1.41742         14.5342         6.12777         15.3603 
        1.42355         14.4348          6.0673         15.2549 
         1.4297         14.3248         6.00747         15.1987 
        1.43585         14.2867         5.94849         15.1243 
        1.44198         14.2063         5.89053         15.0129 
        1.44809         14.1008         5.83345         14.9526 
        1.45423         14.0001         5.77693         14.8649 
        1.46036          13.944         5.72127         14.7682 
        1.46649         13.8596         5.66632         14.6887 
        1.47263         13.7436         5.61206         14.6266 
        1.47877          13.684         5.55855         14.5559 
        1.48491         13.5964         5.50565         14.4443 
        1.49104         13.5335         5.45356         14.3827 
        1.49718         13.4577          5.4021         14.3099 
        1.50333         13.3748         5.35124         14.2375 
        1.50947         13.2919         5.30114         14.1704 
         1.5156         13.2214         5.25176         14.0935 
        1.52172         13.1381         5.20301         14.0064 
        1.52787         13.0554         5.15479         13.9202 
          1.534         12.9915         5.10724         13.8537 
        1.54013         12.9265         5.06035         13.7706 
        1.54627         12.8263         5.01396         13.7025 
        1.55241         12.7767         4.96816         13.6561 
        1.55855         12.7173         4.92299         13.5835 
        1.56467         12.6227         4.87852         13.5097 
         1.5708         12.5951         4.83447         13.4634 
        1.57695         12.4755          4.7909         13.3971 
        1.58308         12.4245         4.74798         13.3209 
        1.58922         12.3717         4.70556         13.2695 
        1.59535         12.3193         4.66367         13.1897 
         1.6015         12.2238         4.62225         13.1166 
        1.60764         12.1571         4.58134         13.0625 
        1.61376         12.1261         4.54105         13.0045 
        1.61989         12.0348         4.50122         12.9483 
        1.62604         11.9801         4.46178         12.8877 
        1.63218         11.9314         4.42284         12.8202 
        1.63831         11.8787         4.38446         12.7584 
        1.64444         11.8053         4.34652         12.7028 
        1.65059         11.7082         4.30894         12.6286 
        1.65673         11.6732         4.27186         12.5769 
        1.66285         11.5707         4.23531         12.5312 
        1.66898         11.5398         4.19919         12.4673 
        1.67512         11.4969         4.16342         12.4137 
        1.68127         11.4253         4.12803         12.3463 
         1.6874         11.3776         4.09314         12.2817 
        1.69353          11.318         4.05868         12.2445 
        1.69967         11.2409         4.02453         12.1865 
        1.70581         11.1774          3.9908         12.1326 
        1.71193         11.1385         3.95758         12.0861 
        1.71806         11.1126         3.92467         12.0246 
        1.72421         11.0198         3.89208         11.9775 
        1.73035         10.9916         3.85989         11.9173 
        1.73649         10.9452         3.82808         11.8483 
        1.74262         10.8586         3.79665         11.8209 
        1.74876         10.8261         3.76556         11.7722 
        1.75489         10.7919         3.73489         11.7011 
        1.76101          10.704         3.70457         11.6411 
        1.76715          10.672         3.67454         11.6052 
        1.77329         10.6204         3.64482         11.5583 
        1.77943          10.547         3.61541         11.5047 
        1.78557         10.5292         3.58637         11.4618 
        1.79171         10.4644         3.55765          11.407 
        1.79785         10.4124         3.52924         11.3483 
        1.80399         10.3484         3.50115         11.3061 
        1.81012          10.314         3.47341         11.2761 
        1.81625         10.2472         3.44598         11.2377 
        1.82239         10.2181          3.4188         11.1834 
        1.82853         10.1546         3.39194         11.1271 
        1.83466         10.1175         3.36539         11.0907 
        1.84078          10.056         3.33915         11.0559 
        1.84692         10.0434         3.31316         10.9875 
        1.85306         9.97248         3.28741         10.9449 
         1.8592         9.92005         3.26198         10.9202 
        1.86533         9.88559         3.23683         10.8655 
        1.87147         9.84077         3.21192         10.8122 
        1.87761         9.79589         3.18726         10.7705 
