# k  (h/Mpc)    P(k)  (Mpc/h)^3    P_linear(k)  (Mpc/h)^3     P_NL(k)  ShotnoiseSubtracted = false
     0.00783031         2030.35         2049.79         2048.77 
       0.013688         2742.86         2740.74         2731.16 
       0.019231         2960.83         2960.75         2945.24 
      0.0249154         2883.07         2908.21         2895.38 
      0.0312784         2665.97          2675.5          2666.1 
      0.0375637         2395.26         2393.24         2384.66 
      0.0433917          2141.2         2154.16         2146.36 
      0.0492413         1959.64         1962.87         1955.36 
      0.0555754         1792.44         1810.58         1802.55 
      0.0619321         1702.15         1697.08         1688.59 
       0.067871         1591.22         1605.28         1596.16 
      0.0738098         1494.99         1510.52          1498.7 
      0.0800417         1377.54         1399.19         1387.82 
      0.0862327         1264.31         1278.05         1269.66 
      0.0921407         1153.84         1160.96         1153.46 
      0.0982031         1039.89         1049.75         1045.87 
       0.104506         955.608         952.409         951.496 
       0.110769          880.51         877.758         875.321 
       0.116806         821.568         824.935         822.418 
       0.122832         787.136         785.711         784.076 
       0.129052         746.422         752.278         750.601 
       0.135211         713.167         719.578          718.08 
       0.141259         682.301         683.679         683.363 
       0.147318         645.206         642.905         644.645 
       0.153489         597.442         598.222          598.04 
       0.159709         556.759         553.541         555.896 
       0.165845         524.325         513.421         519.958 
       0.171974         486.683         479.717         486.236 
       0.178125         461.402         453.021         462.457 
       0.184229          443.09         432.717         442.328 
        0.19034         419.558         416.602         426.053 
       0.196428         410.537         402.377          409.84 
       0.202534         399.574         387.863         395.984 
       0.208729         380.907         371.587         379.261 
       0.214876         360.199         353.669         364.317 
       0.220989         347.766         334.804         346.601 
       0.227147         324.937         315.969         328.047 
        0.23329         309.367          298.58         313.256 
       0.239377         297.808         283.582         299.581 
       0.245482         280.995         271.055         285.861 
       0.251667         275.204         260.659         276.919 
       0.257832         266.318         251.924         267.999 
       0.263955         257.704         244.036         259.598 
       0.270079             250         236.184         251.348 
        0.27624         244.733         227.868          242.44 
       0.282372         235.202         219.053         234.313 
        0.28843         225.668         210.014         225.513 
       0.294538          216.61         200.959         217.533 
       0.300721         211.577         192.278         210.158 
        0.30691         201.866         184.411         202.804 
       0.313033         195.841         177.565         195.627 
       0.319153         187.265         171.618         190.594 
       0.325316         184.249         166.307         185.979 
        0.33145         178.298         161.435         180.066 
       0.337538         174.934         156.734         175.004 
       0.343633         169.518         151.988          170.74 
       0.349808         164.769         147.063         166.261 
       0.355968         160.538         142.075          162.38 
       0.362074         155.666         137.172         157.261 
       0.368217         151.396         132.417         151.652 
       0.374374         146.873         127.961         148.103 
       0.380519         143.247         123.876          143.82 
       0.386598         139.555         120.199         140.349 
       0.392688          137.06         116.823         137.331 
        0.39888         133.469         113.608         133.565 
       0.405048         130.718         110.539         130.679 
       0.411186         128.032         107.537         128.369 
       0.417313         124.226         104.548         124.465 
       0.423458         121.501         101.568         121.805 
       0.429607         118.333         98.6217         118.763 
       0.435692         114.711         95.7879          116.29 
       0.441815         113.432          93.064         114.423 
       0.447964         111.654         90.4814         111.395 
       0.454126         107.168         88.0503         108.641 
       0.460267         105.548           85.78         106.915 
       0.466387         103.143         83.6378         104.425 
        0.47254         101.729         81.5691         102.587 
       0.478662         100.084         79.5691         100.422 
       0.484765         97.5872         77.6186         98.1421 
       0.490885         95.6175         75.6942         96.8089 
       0.497035         94.3316         73.7937         95.1548 
       0.503198         92.0038         71.9391         92.8533 
       0.509342         89.8309         70.1539          91.357 
       0.515458         88.3735          68.448         90.2791 
       0.521598          87.186         66.8082         87.8407 
       0.527764         85.6166         65.2361         85.8093 
       0.533884         84.1254          63.745         84.4742 
           0.54         82.6839         62.3115         83.0881 
       0.546137         81.5973         60.9169         82.0382 
       0.552299         80.4592         59.5512         80.2004 
       0.558452         78.1759         58.2208         78.7252 
       0.564573         76.9638         56.9299         77.8365 
       0.570708         76.1336         55.6691         76.4976 
       0.576825         74.4488         54.4463         75.2202 
       0.582926         73.2101         53.2636          74.041 
       0.589034         71.4392         52.1185         73.0836 
       0.595184         70.6517         51.0073         71.7293 
       0.601379         69.7959         49.9287         70.8639 
       0.607522         68.2425         48.8946         69.3785 
       0.613639         67.9786         47.8954         68.4501 
       0.619772         66.2573         46.9202         67.4049 
       0.625918         65.9787         45.9673         66.7323 
       0.632068         64.9767         45.0381         65.4267 
       0.638161         63.8807         44.1416          64.592 
         0.6443         62.8178         43.2626         63.4678 
       0.650464         61.8602         42.4048         62.6465 
       0.656582         61.4455         41.5771         61.9332 
       0.662703         60.2676         40.7721         60.8407 
       0.668861         59.4615         39.9847          60.201 
       0.675024         58.5759         39.2186         59.2121 
       0.681124          57.629         38.4815         58.3945 
       0.687237         56.7348         37.7627          57.538 
       0.693381         56.2943         37.0597         56.7866 
       0.699536         55.1257         36.3736         56.2835 
       0.705665         55.1904          35.708         55.6443 
       0.711789         53.9102         35.0593         54.5891 
       0.717957         53.3923          34.422         54.0958 
        0.72409         52.6276         33.8039         53.5682 
       0.730186         51.9094         33.2045         52.7674 
       0.736317         51.5445         32.6165         52.0707 
       0.742472         50.6549         32.0408         51.6005 
       0.748622         50.2689         31.4799         50.8063 
        0.75476         49.5217          30.934         50.2538 
       0.760888         48.9041         30.4024         49.7221 
       0.767043         48.3873         29.8815         49.2758 
       0.773185         47.6515         29.3743         48.6781 
       0.779291         47.4234          28.882          48.192 
       0.785407         46.9104         28.4004         47.5487 
       0.791564         46.0833          27.927         46.9986 
       0.797719         45.3398         27.4646         46.5063 
       0.803834         45.2682         27.0158          45.924 
       0.809972         44.7386         26.5754         45.5439 
       0.816124         43.7844          26.144         44.9789 
       0.822261         43.6814         25.7235         44.3843 
       0.828378         43.2226         25.3135         43.8891 
       0.834502         42.7199         24.9123         43.7207 
       0.840667         42.3217         24.5172         43.0816 
       0.846816         41.6988          24.132          42.705 
       0.852925         41.3709         23.7576         42.5282 
       0.859047         40.8617         23.3905         41.8109 
       0.865192         40.5742           23.03         41.4238 
       0.871341         40.3324          22.677         41.1145 
       0.877463         39.5775         22.3331         40.6617 
       0.883569         39.2075         21.9973         40.3792 
       0.889708         38.8402         21.6668         39.8458 
       0.895864         38.5603         21.3423         39.4618 
       0.902008         38.2612         21.0253         39.1431 
       0.908149         37.8876         20.7149         38.8331 
       0.914301         37.7011         20.4105         38.5783 
       0.920448         36.9412         20.1124         38.0711 
       0.926574         36.7936         19.8215         37.6753 
       0.932687         36.4027          19.537         37.3381 
       0.938823         35.9792         19.2572         37.0227 
       0.944975         35.6874         18.9822         36.6369 
       0.951105          35.444         18.7137         36.2933 
       0.957225         35.0351         18.4509         36.0755 
       0.963368         34.7701         18.1923         35.6905 
       0.969511         34.5298         17.9387         35.4229 
       0.975621         34.2855         17.6914         35.1143 
       0.981748         33.8391         17.4482         34.8879 
       0.987916         33.6391          17.208         34.4925 
        0.99406         33.2953         16.9734         34.2397 
        1.00019         32.8835         16.7436         33.9574 
        1.00632         32.8305         16.5183         33.7386 
        1.01246         32.5012         16.2969         33.5289 
        1.01859         32.0958           16.08          33.181 
        1.02471         32.0325         15.8673         32.8892 
        1.03085         31.7177         15.6578         32.6497 
        1.03698         31.2472         15.4525         32.3755 
        1.04314         31.0699         15.2501         32.0467 
        1.04929         30.7794         15.0519         31.8778 
        1.05541         30.5057          14.858         31.7037 
        1.06154         30.3147         14.6671         31.3362 
        1.06769         30.1385         14.4793         31.1055 
        1.07382         29.8387         14.2954         30.9403 
        1.07993         29.7162         14.1152          30.665 
        1.08607         29.3585         13.9373         30.4251 
        1.09222         29.1747         13.7624         30.2438 
        1.09836         28.8315         13.5908         29.9871 
        1.10449         28.7646         13.4223         29.7414 
        1.11063         28.4275         13.2565         29.6005 
        1.11677         28.3255         13.0935         29.3236 
         1.1229         28.1837         12.9337         29.1256 
        1.12903         27.8289         12.7764          28.969 
        1.13518         27.5779         12.6216         28.6843 
        1.14131         27.4844         12.4695         28.4957 
        1.14745         27.2941           12.32         28.3116 
        1.15359         27.1126          12.173         28.1305 
        1.15973         26.8594         12.0283         27.9365 
        1.16584         26.5684         11.8867         27.8101 
        1.17197         26.5619         11.7471         27.6041 
        1.17811         26.2622         11.6094         27.3241 
        1.18424         26.0294         11.4743         27.2022 
        1.19038         25.9577          11.341         27.0314 
        1.19652         25.7463         11.2099         26.8038 
        1.20267         25.5287         11.0809         26.6378 
        1.20881         25.4604          10.954         26.5484 
        1.21495          25.255         10.8293         26.3644 
        1.22108         25.0239         10.7065         26.1593 
         1.2272          24.799          10.586         25.9696 
        1.23334         24.6435         10.4671         25.8666 
        1.23949         24.4551         10.3497         25.6575 
        1.24562          24.419         10.2345         25.4792 
        1.25174         24.2471         10.1212         25.3578 
        1.25789         24.1113         10.0093         25.1821 
        1.26402         23.9703         9.89932         24.9912 
        1.27014         23.7597         9.79127         24.8676 
        1.27628         23.5127         9.68452          24.704 
        1.28244         23.4614         9.57917         24.6346 
        1.28858         23.3601         9.47554         24.4063 
        1.29471         23.1259         9.37369          24.254 
        1.30084         22.9577         9.27344         24.1994 
        1.30697         22.8515         9.17453         24.0001 
        1.31312         22.6304         9.07692          23.837 
        1.31925         22.5001         8.98106         23.7633 
        1.32537         22.4468         8.88669         23.6494 
        1.33151         22.2388         8.79336         23.4647 
        1.33765          22.122         8.70143         23.3254 
        1.34378         22.0239         8.61101         23.2205 
        1.34992          21.779         8.52183         23.0825 
        1.35606         21.7415         8.43372         22.9155 
         1.3622         21.6316         8.34704         22.8048 
        1.36833         21.4583         8.26179         22.7266 
        1.37445         21.3636         8.17778         22.5485 
        1.38059         21.2629          8.0947         22.3913 
        1.38675         21.0504         8.01258         22.3125 
        1.39288         20.9541         7.93194         22.1734 
        1.39901          20.779         7.85245         22.0752 
        1.40515         20.7189         7.77389         21.9709 
         1.4113         20.5976         7.69644         21.8588 
        1.41742          20.455         7.62035         21.7358 
        1.42355         20.3617         7.54515         21.5704 
         1.4297         20.2175         7.47076         21.5092 
        1.43585         20.1647          7.3974         21.4192 
        1.44198         19.9832         7.32532         21.2824 
        1.44809         19.9098         7.25434         21.1945 
        1.45423         19.7765         7.18406         21.0755 
        1.46036           19.71         7.11483         20.9392 
        1.46649         19.5994         7.04651         20.8276 
        1.47263         19.4336         6.97903          20.756 
        1.47877         19.3579         6.91248         20.6859 
        1.48491         19.2405         6.84669         20.5042 
        1.49104         19.1724         6.78191         20.4349 
        1.49718         19.0348         6.71793         20.3497 
        1.50333         18.9326         6.65468         20.2461 
        1.50947         18.8463         6.59237         20.1572 
         1.5156           18.72         6.53096         20.0537 
        1.52172         18.5905         6.47034         19.9296 
        1.52787         18.5051         6.41038         19.8243 
          1.534         18.4254         6.35125         19.7395 
        1.54013         18.3084         6.29293         19.6024 
        1.54627         18.1994         6.23525         19.5068 
        1.55241         18.1128         6.17828         19.4681 
        1.55855         18.0464         6.12212         19.3767 
        1.56467         17.9336         6.06681         19.2617 
         1.5708         17.8895         6.01203         19.2049 
        1.57695         17.7195         5.95786         19.1261 
        1.58308         17.6656         5.90448         19.0192 
        1.58922          17.577         5.85172         18.9578 
        1.59535         17.4986         5.79964         18.8561 
         1.6015         17.3701         5.74812         18.7602 
        1.60764         17.3106         5.69725         18.6736 
        1.61376         17.2653         5.64715         18.5774 
        1.61989         17.0989         5.59761         18.5158 
        1.62604         17.0825         5.54856         18.4582 
        1.63218         16.9673         5.50014         18.3579 
        1.63831         16.9022         5.45241         18.2563 
        1.64444         16.7844         5.40523         18.2043 
        1.65059          16.704          5.3585         18.0967 
        1.65673         16.6405         5.31238         18.0315 
        1.66285         16.5067         5.26694         17.9747 
        1.66898         16.4654         5.22201          17.871 
        1.67512         16.3989         5.17753         17.7929 
        1.68127         16.2785         5.13353         17.7016 
         1.6874         16.2227         5.09014         17.6151 
        1.69353         16.1657         5.04728         17.5709 
        1.69967         16.0455         5.00481         17.5081 
        1.70581         15.9421         4.96286         17.4398 
        1.71193         15.8968         4.92155         17.3642 
        1.71806         15.8637         4.88063         17.2678 
        1.72421          15.743         4.84009         17.2165 
        1.73035         15.7065         4.80007         17.1351 
        1.73649         15.6304         4.76051         17.0291 
        1.74262         15.5429         4.72143          17.016 
        1.74876         15.4731         4.68277         16.9436 
        1.75489         15.4163         4.64462         16.8307 
        1.76101          15.303         4.60691         16.7578 
        1.76715         15.2918         4.56957         16.7176 
        1.77329         15.2037         4.53261         16.6439 
        1.77943         15.0981         4.49604         16.5703 
        1.78557         15.0504         4.45993         16.5355 
        1.79171         14.9972         4.42421         16.4581 
        1.79785         14.9185         4.38888         16.3676 
        1.80399         14.8468         4.35395         16.3226 
        1.81012         14.7721         4.31945         16.2629 
        1.81625         14.6905         4.28534         16.2073 
        1.82239         14.6466         4.25154         16.1555 
        1.82853         14.5298         4.21814         16.0657 
        1.83466         14.5016         4.18512          16.003 
        1.84078         14.3989         4.15249         15.9612 
        1.84692         14.3817         4.12017         15.8766 
        1.85306         14.3075         4.08815         15.8218 
         1.8592         14.2397         4.05652         15.7847 
        1.86533          14.184         4.02524         15.7088 
        1.87147         14.1139         3.99427         15.6457 
        1.87761         14.0551          3.9636         15.5942 
