# k  (h/Mpc)    Pcb(k)  (Mpc/h)^3    Pcb_linear(k) (Mpc/h)^3    Pcb_NL(k) (Mpc/h)^3   ShotnoiseSubtracted = false
     0.00783031         2043.23          2062.8         2061.77 
       0.013688         2760.26         2758.13         2748.49 
       0.019231         2979.62         2979.54         2963.93 
      0.0249154         2901.37         2926.67         2913.75 
      0.0312784         2682.88         2692.48         2683.02 
      0.0375637         2410.46         2408.43          2399.8 
      0.0433917         2154.79         2167.83         2159.98 
      0.0492413         1972.07         1975.33         1967.77 
      0.0555754         1803.82         1822.07         1813.99 
      0.0619321         1712.95         1707.85          1699.3 
       0.067871         1601.32         1615.46         1606.28 
      0.0738098         1504.48         1520.11         1508.21 
      0.0800417         1386.29         1408.07         1396.63 
      0.0862327         1272.33         1286.16         1277.72 
      0.0921407         1161.17         1168.33         1160.78 
      0.0982031         1046.49         1056.41         1052.51 
       0.104506         961.672         958.452         957.534 
       0.110769         886.098         883.328         880.875 
       0.116806         826.781          830.17         827.637 
       0.122832         792.131         790.697         789.052 
       0.129052         751.159         757.052         755.365 
       0.135211         717.693         724.144         722.637 
       0.141259          686.63         688.017           687.7 
       0.147318           649.3         646.985         648.735 
       0.153489         601.233         602.019         601.835 
       0.159709         560.292         557.054         559.424 
       0.165845         527.653         516.679         523.257 
       0.171974         489.771         482.761         489.322 
       0.178125          464.33         455.896         465.392 
       0.184229         445.902         435.463         445.135 
        0.19034          422.22         419.246         428.757 
       0.196428         413.142         404.931          412.44 
       0.202534          402.11         390.325         398.498 
       0.208729         383.324         373.945         381.668 
       0.214876         362.485         355.913         366.629 
       0.220989         349.973         336.929         348.801 
       0.227147         326.999         317.974         330.129 
        0.23329          311.33         300.475         315.244 
       0.239377         299.698         285.381         301.482 
       0.245482         282.779         272.775         287.674 
       0.251667          276.95         262.313         278.676 
       0.257832         268.008         253.522           269.7 
       0.263955         259.339         245.584         261.245 
       0.270079         251.586         237.683         252.943 
        0.27624         246.286         229.315         243.979 
       0.282372         236.695         220.444           235.8 
        0.28843           227.1         211.347         226.944 
       0.294538         217.985         202.235         218.913 
       0.300721          212.92         193.498         211.491 
        0.30691         203.147         185.581         204.091 
       0.313033         197.084         178.693         196.869 
       0.319153         188.453         172.706         191.803 
       0.325316         185.419         167.363         187.159 
        0.33145          179.43          162.46         181.209 
       0.337538         176.044         157.728         176.114 
       0.343633         170.594         152.953         171.824 
       0.349808         165.815         147.997         167.316 
       0.355968         161.557         142.976         163.411 
       0.362074         156.653         138.042         158.259 
       0.368217         152.357         133.258         152.615 
       0.374374         147.805         128.773         149.042 
       0.380519         144.156         124.662         144.733 
       0.386598          140.44         120.962         141.239 
       0.392688          137.93         117.564         138.203 
        0.39888         134.316         114.329         134.412 
       0.405048         131.548         111.241         131.509 
       0.411186         128.844         108.219         129.184 
       0.417313         125.014         105.211         125.255 
       0.423458         122.272         102.212         122.577 
       0.429607         119.084         99.2476         119.516 
       0.435692         115.438         96.3958         117.028 
       0.441815         114.152         93.6545         115.149 
       0.447964         112.363         91.0554         112.102 
       0.454126         107.848         88.6095         109.331 
       0.460267         106.218         86.3241         107.593 
       0.466387         103.797         84.1686         105.088 
        0.47254         102.375         82.0867         103.238 
       0.478662         100.719         80.0741          101.06 
       0.484765         98.2064          78.111         98.7647 
       0.490885         96.2243         76.1746         97.4234 
       0.497035         94.9302          74.262         95.7587 
       0.503198         92.5876         72.3956         93.4425 
       0.509342          90.401         70.5992         91.9369 
       0.515458         88.9343         68.8823          90.852 
       0.521598         87.7393         67.2322         88.3982 
       0.527764         86.1599         65.6501         86.3539 
       0.533884         84.6592         64.1496         85.0102 
           0.54         83.2086         62.7069         83.6153 
       0.546137         82.1151         61.3034         82.5587 
       0.552299         80.9698         59.9292         80.7094 
       0.558452          78.672         58.5902         79.2248 
       0.564573         77.4522         57.2912         78.3304 
       0.570708         76.6167         56.0224         76.9831 
       0.576825         74.9212         54.7918         75.6976 
       0.582926         73.6747         53.6015         74.5108 
       0.589034         71.8925         52.4494         73.5476 
       0.595184         71.1001          51.331         72.1845 
       0.601379         70.2388         50.2456         71.3136 
       0.607522         68.6756         49.2049         69.8189 
       0.613639           68.41         48.1993         68.8844 
       0.619772         66.6778          47.218         67.8326 
       0.625918         66.3974          46.259         67.1558 
       0.632068          65.389         45.3239         65.8419 
       0.638161          64.286         44.4217         65.0019 
         0.6443         63.2164         43.5372         63.8706 
       0.650464         62.2528         42.6739          63.044 
       0.656582         61.8354         41.8409         62.3262 
       0.662703         60.6501         41.0308         61.2268 
       0.668861         59.8388         40.2384         60.5831 
       0.675024         58.9476         39.4675         59.5878 
       0.681124         57.9947         38.7257         58.7651 
       0.687237         57.0949         38.0024         57.9031 
       0.693381         56.6516         37.2948          57.147 
       0.699536         55.4755         36.6044         56.6406 
       0.705665         55.5407         35.9345         55.9974 
       0.711789         54.2523         35.2818         54.9355 
       0.717957         53.7311         34.6405         54.4391 
        0.72409         52.9615         34.0184         53.9081 
       0.730186         52.2388         33.4152         53.1023 
       0.736317         51.8716         32.8235         52.4012 
       0.742472         50.9763         32.2441         51.9279 
       0.748622         50.5879         31.6796         51.1287 
        0.75476         49.8359         31.1303         50.5727 
       0.760888         49.2144         30.5953         50.0376 
       0.767043         48.6944         30.0711         49.5885 
       0.773185         47.9539         29.5607          48.987 
       0.779291         47.7243         29.0652         48.4978 
       0.785407          47.208         28.5806         47.8505 
       0.791564         46.3758         28.1042         47.2968 
       0.797719         45.6276         27.6389         46.8015 
       0.803834         45.5555         27.1872         46.2154 
       0.809972         45.0225         26.7441         45.8329 
       0.816124         44.0623         26.3099         45.2643 
       0.822261         43.9586         25.8867         44.6659 
       0.828378         43.4969         25.4741         44.1676 
       0.834502          42.991         25.0704         43.9981 
       0.840667         42.5902         24.6728          43.355 
       0.846816         41.9635         24.2851          42.976 
       0.852925         41.6334         23.9084         42.7981 
       0.859047          41.121         23.5389         42.0762 
       0.865192         40.8317         23.1761         41.6867 
       0.871341         40.5884         22.8209         41.3754 
       0.877463         39.8287         22.4748         40.9197 
       0.883569         39.4563         22.1369         40.6354 
       0.889708         39.0867         21.8043         40.0987 
       0.895864          38.805         21.4778         39.7122 
       0.902008          38.504         21.1587         39.3915 
       0.908149         38.1281         20.8464         39.0795 
       0.914301         37.9403           20.54         38.8232 
       0.920448         37.1756         20.2401         38.3127 
       0.926574         37.0271         19.9473         37.9144 
       0.932687         36.6337          19.661         37.5751 
       0.938823         36.2075         19.3794         37.2576 
       0.944975         35.9139         19.1027         36.8694 
       0.951105          35.669         18.8325         36.5236 
       0.957225         35.2575          18.568         36.3044 
       0.963368         34.9907         18.3078          35.917 
       0.969511         34.7489         18.0526         35.6477 
       0.975621         34.5031         17.8037         35.3371 
       0.981748         34.0539         17.5589         35.1092 
       0.987916         33.8526         17.3172         34.7114 
        0.99406         33.5066         17.0811          34.457 
        1.00019         33.0922         16.8498         34.1729 
        1.00632         33.0389         16.6231         33.9527 
        1.01246         32.7075         16.4003         33.7417 
        1.01859         32.2995          16.182         33.3916 
        1.02471         32.2358          15.968         33.0979 
        1.03085          31.919         15.7571         32.8569 
        1.03698         31.4455         15.5506          32.581 
        1.04314          31.267         15.3469         32.2501 
        1.04929         30.9748         15.1474         32.0801 
        1.05541         30.6993         14.9523         31.9049 
        1.06154         30.5071         14.7602          31.535 
        1.06769         30.3297         14.5711         31.3029 
        1.07382          30.028         14.3861         31.1367 
        1.07993         29.9048         14.2047         30.8596 
        1.08607         29.5448         14.0258         30.6181 
        1.09222         29.3598         13.8498         30.4358 
        1.09836         29.0144          13.677         30.1774 
        1.10449         28.9471         13.5074         29.9302 
        1.11063         28.6079         13.3406         29.7884 
        1.11677         28.5053         13.1766         29.5097 
         1.1229         28.3625         13.0158         29.3104 
        1.12903         28.0055         12.8575         29.1528 
        1.13518         27.7529         12.7017         28.8663 
        1.14131         27.6588         12.5486         28.6765 
        1.14745         27.4673         12.3982         28.4913 
        1.15359         27.2846         12.2502          28.309 
        1.15973         27.0298         12.1046         28.1137 
        1.16584          26.737         11.9621         27.9866 
        1.17197         26.7305         11.8217         27.7793 
        1.17811         26.4289         11.6831         27.4975 
        1.18424         26.1946         11.5472         27.3748 
        1.19038         26.1225          11.413         27.2029 
        1.19652         25.9097         11.2811         26.9739 
        1.20267         25.6907         11.1512         26.8068 
        1.20881          25.622         11.0235         26.7168 
        1.21495         25.4152          10.898         26.5317 
        1.22108         25.1827         10.7745         26.3254 
         1.2272         24.9563         10.6532         26.1344 
        1.23334         24.7999         10.5335         26.0308 
        1.23949         24.6103         10.4154         25.8204 
        1.24562          24.574         10.2994         25.6409 
        1.25174         24.4009         10.1854         25.5187 
        1.25789         24.2643         10.0728         25.3419 
        1.26402         24.1224         9.96214         25.1498 
        1.27014         23.9105          9.8534         25.0254 
        1.27628         23.6619         9.74597         24.8608 
        1.28244         23.6103         9.63995         24.7909 
        1.28858         23.5083         9.53567         24.5612 
        1.29471         23.2727         9.43317         24.4079 
        1.30084         23.1034         9.33229          24.353 
        1.30697         22.9965         9.23275         24.1524 
        1.31312          22.774         9.13452         23.9882 
        1.31925         22.6429         9.03805         23.9141 
        1.32537         22.5892         8.94309         23.7995 
        1.33151         22.3799         8.84916         23.6136 
        1.33765         22.2624         8.75665         23.4734 
        1.34378         22.1636         8.66565         23.3679 
        1.34992         21.9172          8.5759          23.229 
        1.35606         21.8795         8.48724         23.0609 
         1.3622         21.7689         8.40001         22.9495 
        1.36833         21.5945         8.31422         22.8708 
        1.37445         21.4992         8.22968         22.6916 
        1.38059         21.3978         8.14607         22.5334 
        1.38675          21.184         8.06343         22.4541 
        1.39288         21.0871         7.98227         22.3141 
        1.39901         20.9109         7.90229         22.2153 
        1.40515         20.8504         7.82322         22.1103 
         1.4113         20.7283         7.74528         21.9975 
        1.41742         20.5848         7.66871         21.8737 
        1.42355         20.4909         7.59303         21.7073 
         1.4297         20.3458         7.51816         21.6457 
        1.43585         20.2926         7.44434         21.5551 
        1.44198           20.11         7.37181         21.4175 
        1.44809         20.0362         7.30038          21.329 
        1.45423          19.902         7.22964         21.2093 
        1.46036         19.8351         7.15998         21.0721 
        1.46649         19.7237         7.09122         20.9597 
        1.47263         19.5569         7.02332         20.8877 
        1.47877         19.4807         6.95634         20.8171 
        1.48491         19.3626         6.89014         20.6343 
        1.49104         19.2941         6.82495         20.5646 
        1.49718         19.1556         6.76056         20.4788 
        1.50333         19.0527         6.69691         20.3746 
        1.50947         18.9659         6.63421         20.2851 
         1.5156         18.8388         6.57241         20.1809 
        1.52172         18.7084          6.5114          20.056 
        1.52787         18.6226         6.45106         19.9501 
          1.534         18.5423         6.39155         19.8648 
        1.54013         18.4246         6.33287         19.7268 
        1.54627         18.3149         6.27482         19.6306 
        1.55241         18.2278         6.21749         19.5917 
        1.55855         18.1609         6.16097         19.4997 
        1.56467         18.0474         6.10531         19.3839 
         1.5708          18.003         6.05018         19.3268 
        1.57695         17.8319         5.99566         19.2475 
        1.58308         17.7778         5.94195         19.1399 
        1.58922         17.6885         5.88886         19.0781 
        1.59535         17.6097         5.83644         18.9757 
         1.6015         17.4804         5.78459         18.8792 
        1.60764         17.4205         5.73341         18.7921 
        1.61376         17.3748         5.68298         18.6953 
        1.61989         17.2075         5.63313         18.6333 
        1.62604         17.1909         5.58378         18.5754 
        1.63218          17.075         5.53504         18.4744 
        1.63831         17.0094         5.48701         18.3721 
        1.64444         16.8909         5.43953         18.3199 
        1.65059           16.81         5.39251         18.2115 
        1.65673         16.7461         5.34609         18.1459 
        1.66285         16.6114         5.30036         18.0887 
        1.66898         16.5699         5.25515         17.9844 
        1.67512          16.503         5.21039         17.9058 
        1.68127         16.3818          5.1661          17.814 
         1.6874         16.3256         5.12244         17.7268 
        1.69353         16.2683         5.07931         17.6824 
        1.69967         16.1473         5.03657         17.6192 
        1.70581         16.0432         4.99436         17.5505 
        1.71193         15.9977         4.95278         17.4744 
        1.71806         15.9644          4.9116         17.3774 
        1.72421         15.8429         4.87081         17.3258 
        1.73035         15.8062         4.83053         17.2438 
        1.73649         15.7296         4.79072         17.1372 
        1.74262         15.6415         4.75139         17.1239 
        1.74876         15.5713         4.71248         17.0511 
        1.75489         15.5141         4.67409         16.9375 
        1.76101         15.4001         4.63615         16.8641 
        1.76715         15.3888         4.59857         16.8237 
        1.77329         15.3002         4.56137         16.7495 
        1.77943         15.1939         4.52457         16.6755 
        1.78557         15.1459         4.48823         16.6404 
        1.79171         15.0924         4.45229         16.5625 
        1.79785         15.0132         4.41674         16.4715 
        1.80399          14.941         4.38158         16.4262 
        1.81012         14.8658         4.34686         16.3661 
        1.81625         14.7837         4.31253         16.3101 
        1.82239         14.7396         4.27852          16.258 
        1.82853          14.622          4.2449         16.1676 
        1.83466         14.5937         4.21168         16.1046 
        1.84078         14.4903         4.17885         16.0625 
        1.84692         14.4729         4.14631         15.9774 
        1.85306         14.3983         4.11409         15.9222 
         1.8592           14.33         4.08226         15.8849 
        1.86533          14.274         4.05079         15.8085 
        1.87147         14.2035         4.01961          15.745 
