#  k  (h/Mpc)          P(k)  (Mpc/h)^3     P_linear(k)   P_NL(k) (Mpc/h)^3
     0.00783031         17919.5         18185.7         18093.5 
       0.013688         22956.9         22719.8           22553 
       0.019231         23331.4         23301.2         23075.6 
      0.0249154         21266.6         21798.3         21551.1 
      0.0312784         18753.8         19035.1         18773.5 
      0.0375637           16178         16222.8           15992 
      0.0433917         13725.5         14037.9         13794.3 
      0.0492413         12276.3         12397.2         12171.8 
      0.0555754         10775.6         11177.2         10978.7 
      0.0619321         10334.3           10345         10151.4 
       0.067871         9393.13         9726.41         9546.67 
      0.0738098         8790.15         9109.94         8831.13 
      0.0800417         7972.37         8378.37         8133.08 
      0.0862327         7301.23         7562.49         7441.34 
      0.0921407         6678.58         6757.88         6676.56 
      0.0982031         5913.28         5985.08         6040.84 
       0.104506         5465.77         5308.23         5472.68 
       0.110769          4974.5         4796.97         4918.98 
       0.116806         4639.51         4450.06         4561.01 
       0.122832         4400.13         4213.09         4330.53 
       0.129052         4101.84         4033.64         4136.44 
       0.135211         3930.68         3870.85         3958.05 
       0.141259         3806.34         3689.04         3820.44 
       0.147318         3619.35         3469.54         3650.43 
       0.153489         3328.86         3213.31          3362.7 
       0.159709         3143.37         2943.61         3167.72 
       0.165845         3008.62          2692.5         3013.46 
       0.171974          2821.3         2477.42         2813.69 
       0.178125         2669.98         2307.56         2698.86 
       0.184229         2537.21         2183.36         2545.84 
        0.19034         2414.21         2093.34          2442.6 
       0.196428         2369.77         2023.17         2350.34 
       0.202534         2284.88         1957.24         2290.32 
       0.208729         2194.58         1882.98          2190.3 
       0.214876         2118.37         1796.37         2150.67 
       0.220989         2046.91         1698.64         2090.06 
       0.227147         1962.97          1594.8         2020.06 
        0.23329         1883.47         1494.16          1950.8 
       0.239377         1853.91         1404.55         1863.34 
       0.245482         1741.14         1329.02         1774.16 
       0.251667         1730.64          1267.9         1724.75 
       0.257832         1662.23         1219.94         1665.53 
       0.263955         1608.87         1180.59         1621.12 
       0.270079         1557.08         1144.52         1581.92 
        0.27624          1539.4         1107.28         1541.49 
       0.282372         1477.33         1066.81         1521.66 
        0.28843         1474.16         1023.22         1494.28 
       0.294538         1404.09         977.016         1450.96 
       0.300721         1393.03         930.509          1405.9 
        0.30691         1342.74         886.718         1383.72 
       0.313033         1314.98         848.048         1336.09 
       0.319153         1297.55         814.682         1295.08 
       0.325316         1254.64         786.115         1272.99 
        0.33145         1229.21         761.429         1229.46 
       0.337538         1204.92         739.114         1212.41 
       0.343633         1182.32         717.383         1200.58 
       0.349808         1144.86         694.985         1184.85 
       0.355968         1135.76         671.733         1165.66 
       0.362074         1126.31         648.046         1145.64 
       0.368217         1090.18         624.164         1118.78 
       0.374374          1052.9         600.991         1096.03 
       0.380519         1055.58          579.37         1073.74 
       0.386598         1024.82         559.818         1057.89 
       0.392688         1020.49         542.199         1035.52 
        0.39888          991.78         526.001         1017.79 
       0.405048         982.083         511.119         1000.63 
       0.411186         967.997         497.065         985.622 
       0.417313         947.717          483.31         975.016 
       0.423458         931.468          469.52         957.664 
       0.429607         920.787         455.706         944.069 
       0.435692         902.991         442.086         923.606 
       0.441815          894.83         428.657         920.677 
       0.447964         876.534         415.717           909.5 
       0.454126         871.154         403.458          883.02 
       0.460267         849.203         392.022         880.776 
       0.466387         838.055         381.414         865.311 
        0.47254         836.735         371.413         852.924 
       0.478662         825.214         361.943         841.483 
       0.484765         803.121         352.838         833.367 
       0.490885         798.763         343.935         817.926 
       0.497035          781.37         335.127         811.517 
       0.503198         777.308         326.419          803.02 
       0.509342         768.461         317.922         788.714 
       0.515458          764.73         309.717         783.199 
       0.521598         746.127         301.782          775.89 
       0.527764         733.331         294.149          768.58 
       0.533884          730.96         286.932         759.665 
           0.54         725.346         280.077         750.797 
       0.546137         716.701         273.495         742.772 
       0.552299         708.639         267.126         732.727 
       0.558452          701.99         260.954         727.167 
       0.564573         693.636         254.974         720.587 
       0.570708         686.426         249.129          711.21 
       0.576825          668.83          243.44         702.615 
       0.582926         671.983         237.904          698.21 
       0.589034         664.279         232.514         688.166 
       0.595184         658.753         227.263         681.233 
       0.601379         649.421         222.168         675.308 
       0.607522         640.371         217.307         665.169 
       0.613639         640.331         212.641         663.389 
       0.619772         628.246         208.114         661.023 
       0.625918         623.442         203.713         652.525 
       0.632068         615.897          199.43         649.076 
       0.638161         613.031         195.301         639.074 
         0.6443         603.079         191.252         633.765 
       0.650464         601.388         187.296         626.167 
       0.656582         595.211         183.474         622.646 
       0.662703         593.378         179.752         617.734 
       0.668861         583.705         176.112         615.261 
       0.675024         578.564         172.571         611.273 
       0.681124         574.811         169.169         602.226 
       0.687237         570.552          165.86         596.916 
       0.693381         563.013         162.633         591.256 
       0.699536         553.351         159.491         587.457 
       0.705665         553.758         156.448         580.417 
       0.711789         550.386         153.488         576.188 
       0.717957          545.27         150.581         575.574 
        0.72409         542.626         147.762         569.495 
       0.730186         534.293         145.029         563.446 
       0.736317         531.923         142.347         559.973 
       0.742472         527.969         139.723         556.687 
       0.748622         522.674         137.168         550.873 
        0.75476         514.478         134.684         551.066 
       0.760888         510.578         132.267         545.055 
       0.767043         510.152         129.903         537.851 
       0.773185          505.58         127.605         534.863 
       0.779291         500.506         125.376         530.444 
       0.785407         496.121         123.198         527.186 
       0.791564          491.27         121.059         525.869 
       0.797719         489.481         118.973         521.091 
       0.803834         483.253         116.948         517.516 
       0.809972         482.018         114.963         514.321 
       0.816124         480.458         113.019         508.816 
       0.822261         473.279         111.125         506.186 
       0.828378         471.368          109.28         502.552 
       0.834502         465.773         107.476         500.825 
       0.840667         462.445         105.701         497.144 
       0.846816         459.964         103.971          493.36 
       0.852925         457.044         102.291         490.381 
       0.859047         455.258         100.645         485.454 
       0.865192         448.992         99.0309         482.652 
       0.871341         445.313         97.4511         479.625 
       0.877463          445.26         95.9133         477.287 
       0.883569         440.403         94.4129         474.992 
       0.889708         438.104         92.9372         470.121 
       0.895864         436.678         91.4895         467.668 
       0.902008         432.557         90.0759         464.474 
       0.908149         426.434         88.6931         459.988 
       0.914301         425.065         87.3373         456.529 
       0.920448         422.928         86.0113         455.925 
       0.926574         416.291         84.7175         452.901 
       0.932687         415.534         83.4533         448.761 
       0.938823         411.343         82.2105         447.632 
       0.944975         411.559         80.9902         444.848 
       0.951105         406.819         79.7993         441.416 
       0.957225         404.023         78.6345         438.996 
       0.963368         399.574         77.4891         436.085 
       0.969511          398.51         76.3667         433.514 
       0.975621         396.309         75.2727         430.885 
       0.981748          393.14         74.1974         428.593 
       0.987916         391.132         73.1365         426.482 
        0.99406         385.364         72.1005         423.594 
        1.00019         383.574         71.0868         420.095 
        1.00632         382.066         70.0935         417.443 
        1.01246          378.72         69.1179         415.155 
        1.01859         378.225         68.1626         412.565 
        1.02471         373.418         67.2266         410.341 
        1.03085         371.664         66.3051         409.174 
        1.03698         369.849         65.4029         407.594 
        1.04314         366.873         64.5138         404.433 
        1.04929          363.18         63.6433         400.936 
        1.05541         363.893         62.7925         398.555 
        1.06154         358.131         61.9553         396.651 
        1.06769         356.642         61.1321         393.903 
        1.07382          353.77         60.3266         391.634 
        1.07993          351.93         59.5375         389.659 
        1.08607         350.952         58.7594         387.194 
        1.09222         346.788         57.9944         385.022 
        1.09836         344.471          57.244         383.543 
        1.10449         342.357         56.5079         382.125 
        1.11063         337.794         55.7839         378.586 
        1.11677         338.767         55.0729         377.024 
         1.1229         335.952         54.3756         374.543 
        1.12903         333.749         53.6899         372.429 
        1.13518         330.179         53.0154         369.766 
        1.14131         328.821          52.353         368.648 
        1.14745         326.309         51.7023         365.428 
        1.15359         324.729         51.0626         364.909 
        1.15973         322.468         50.4334          362.39 
        1.16584         319.945         49.8178         361.028 
        1.17197         319.411         49.2115         359.129 
        1.17811         315.967         48.6136         356.404 
        1.18424         313.529         48.0273         354.648 
        1.19038          312.18         47.4491          353.48 
        1.19652          309.97         46.8806         350.481 
        1.20267         308.625         46.3215         349.249 
        1.20881           306.4         45.7717           347.3 
        1.21495         304.157         45.2317          345.27 
        1.22108         302.294         44.7005         343.096 
         1.2272         300.504         44.1792         342.175 
        1.23334         298.696          43.665         339.834 
        1.23949         295.752         43.1578         337.826 
        1.24562         294.741         42.6601          335.94 
        1.25174         293.191          42.171         334.426 
        1.25789         290.237         41.6882         332.478 
        1.26402         288.409         41.2137          331.35 
        1.27014         286.504         40.7479         328.997 
        1.27628         284.396         40.2879         328.226 
        1.28244         284.382         39.8341         326.614 
        1.28858         281.526          39.388         324.733 
        1.29471         280.322         38.9497         322.811 
        1.30084         277.806         38.5185         320.521 
        1.30697         276.652         38.0932         319.404 
        1.31312         273.613         37.6737         317.964 
        1.31925         272.162         37.2619         316.144 
        1.32537         271.443         36.8567         314.218 
        1.33151         268.894         36.4561         313.081 
        1.33765         266.688         36.0617         311.773 
        1.34378         266.013         35.6739         309.447 
        1.34992         264.309         35.2916         307.991 
        1.35606         262.841         34.9141         306.218 
         1.3622         260.491         34.5428         305.362 
        1.36833         259.129         34.1778         304.148 
        1.37445         257.311         33.8183         301.842 
        1.38059         255.353         33.4628         300.781 
        1.38675         254.124         33.1117         299.521 
        1.39288         252.688         32.7669         297.802 
        1.39901         251.227         32.4273         295.955 
        1.40515         249.768         32.0917         294.206 
         1.4113         247.936          31.761         292.665 
        1.41742         246.043         31.4362         291.434 
        1.42355          245.16         31.1153         290.132 
         1.4297         243.156          30.798         288.142 
        1.43585         241.766         30.4853         287.628 
        1.44198         240.694         30.1781          285.96 
        1.44809         238.387         29.8757          284.46 
        1.45423         237.184         29.5764         282.484 
        1.46036         235.841         29.2817         281.417 
        1.46649         234.331         28.9909         280.227 
        1.47263         233.223         28.7039          278.38 
        1.47877         231.278         28.4209         276.868 
        1.48491         229.062         28.1412         275.308 
        1.49104         228.408          27.866          274.25 
        1.49718         226.677         27.5942          273.86 
        1.50333         225.777         27.3256          271.74 
        1.50947         224.169         27.0612         270.188 
         1.5156         222.237         26.8006         269.454 
        1.52172         221.538         26.5435         268.196 
        1.52787         219.565         26.2892         266.788 
          1.534          218.99         26.0386         265.375 
        1.54013         216.858         25.7916         264.266 
        1.54627         215.981         25.5473         263.241 
        1.55241         214.549         25.3061         262.069 
        1.55855         212.582         25.0684         260.807 
        1.56467         212.204         24.8344         259.128 
         1.5708         210.698         24.6027         257.732 
        1.57695         209.269         24.3736          256.54 
        1.58308         207.968          24.148          255.21 
        1.58922         205.974         23.9252         254.168 
        1.59535         204.903         23.7052           253.2 
         1.6015         203.684         23.4876         252.383 
        1.60764         202.668          23.273         251.009 
        1.61376         201.591         23.0616          249.28 
        1.61989         200.309         22.8526         248.339 
        1.62604         198.857         22.6458         247.012 
        1.63218         197.762         22.4417         245.831 
        1.63831         196.246         22.2406         244.933 
        1.64444         195.292         22.0418         243.626 
        1.65059         194.414         21.8451         242.711 
        1.65673         192.887         21.6509         241.726 
        1.66285         191.408         21.4597         240.389 
        1.66898          190.57         21.2707         238.957 
        1.67512         189.645         21.0836         238.003 
        1.68127         187.602         20.8986         236.933 
         1.6874         187.123         20.7162         235.842 
        1.69353         185.649         20.5361         235.068 
        1.69967         184.249         20.3577         233.905 
        1.70581         183.569         20.1816         232.725 
        1.71193         182.048         20.0082         231.667 
        1.71806         181.391         19.8364         230.471 
        1.72421         180.008         19.6663         229.376 
        1.73035         179.172         19.4985         228.352 
        1.73649         178.067         19.3326         227.264 
        1.74262         176.896         19.1688         226.078 
        1.74876         175.381         19.0068         225.095 
        1.75489         174.803          18.847         224.355 
        1.76101         173.265         18.6891         223.574 
        1.76715         172.581         18.5327         222.374 
        1.77329         171.378          18.378         221.461 
        1.77943          170.57          18.225         220.602 
        1.78557         169.346         18.0739         219.326 
        1.79171          168.61         17.9246         218.242 
        1.79785         167.099         17.7769         217.327 
        1.80399         166.323         17.6309         216.333 
        1.81012         165.349         17.4867         215.604 
        1.81625         164.561         17.3442         214.743 
        1.82239         163.183         17.2031         213.624 
        1.82853         162.604         17.0636         212.669 
        1.83466         161.493         16.9258         211.701 
        1.84078         160.586         16.7897         210.751 
        1.84692         159.361         16.6549         210.007 
        1.85306         158.597         16.5213         208.998 
         1.8592         157.578         16.3895         207.906 
        1.86533         156.856         16.2591         207.117 
        1.87147         155.769           16.13         206.198 
        1.87761          154.73         16.0023         205.302 
