#  k  (h/Mpc)          P(k)  (Mpc/h)^3     P_linear(k)   P_NL(k) (Mpc/h)^3
     0.00783031         4891.05         4951.48          4907.4 
       0.013688         5535.43         5517.74         5482.31 
       0.019231         5108.84            5095         5065.85 
      0.0249154         4255.49         4289.78          4274.3 
      0.0312784         3367.33         3365.82         3365.97 
      0.0375637         2668.83         2650.07         2653.31 
      0.0433917         2204.61         2205.48         2208.63 
      0.0492413         1939.92         1933.42         1936.63 
      0.0555754         1748.35         1761.08         1761.75 
      0.0619321         1650.59         1636.59         1635.76 
       0.067871         1503.42         1511.41         1510.05 
      0.0738098         1350.28         1357.12          1353.6 
      0.0800417         1164.13         1172.72         1172.59 
      0.0862327         994.283         993.029         998.563 
      0.0921407         858.359         848.426         855.971 
      0.0982031         744.704          739.56         750.939 
       0.104506         683.794         667.994         681.185 
       0.110769         639.752         627.953         637.194 
       0.116806         610.213         603.954          610.76 
       0.122832         588.693         580.507         586.488 
       0.129052         548.937         547.267         552.075 
       0.135211         506.157         503.053         508.819 
       0.141259         462.217         453.001         461.118 
       0.147318         416.294         403.541         415.404 
       0.153489         371.706         360.497         371.162 
       0.159709         341.466         328.147         340.326 
       0.165845         322.852         306.962         321.264 
       0.171974         305.486         293.664          305.88 
       0.178125         295.572         284.138         296.743 
       0.184229         285.568         274.568           285.8 
        0.19034         267.876         262.305         272.408 
       0.196428         256.495         246.808         255.727 
       0.202534         242.422         229.105         239.121 
       0.208729         223.411         211.033         221.642 
       0.214876          206.76         194.993         208.233 
       0.220989          195.93         182.094         196.021 
       0.227147         184.632         172.355         185.972 
        0.23329          177.02         165.227         179.253 
       0.239377         171.987         159.608         172.899 
       0.245482         162.724         154.268         165.799 
       0.251667         159.023         148.305         160.374 
       0.257832         152.462         141.502         152.956 
       0.263955         144.963         134.105         145.384 
       0.270079         137.653         126.586         138.197 
        0.27624         132.627         119.498         130.987 
       0.282372         126.715         113.322         125.548 
        0.28843         120.886         108.233         120.543 
       0.294538         115.624         103.999         116.184 
       0.300721         113.173         100.339         112.606 
        0.30691         108.193         96.9571         109.099 
       0.313033         104.746         93.6048         105.039 
       0.319153         99.7163         90.1057         101.432 
       0.325316         97.6103         86.4328         97.9894 
        0.33145         93.2023         82.7495         93.9103 
       0.337538         90.5706         79.2232         90.2464 
       0.343633         86.8572         75.9531         87.3295 
       0.349808         83.8846         72.9873         84.6807 
       0.355968         81.6896         70.3598         82.3917 
       0.362074         79.0176         68.0262         79.6189 
       0.368217         76.3891         65.8472         76.7725 
       0.374374         73.9962         63.7437         74.6443 
       0.380519         72.1367         61.6659         72.2438 
       0.386598         69.9384         59.6058         70.2502 
       0.392688         68.2862         57.5616         68.1992 
        0.39888           66.13         55.5371         66.0504 
       0.405048         64.1927         53.6141         64.0988 
       0.411186         62.4497         51.8276         62.5265 
       0.417313         60.5278         50.1728         60.5192 
       0.423458         58.8399         48.6301         59.0212 
       0.429607         57.2368         47.1832         57.4145 
       0.435692         55.2933         45.8163         55.9418 
       0.441815         54.4397         44.4808          54.766 
       0.447964         53.2815         43.1716          53.157 
       0.454126         50.8315         41.8894         51.5931 
       0.460267         50.0452         40.6442         50.6612 
       0.466387         48.7234         39.4475         49.1914 
        0.47254         47.6823         38.2991         48.1083 
       0.478662         46.8844         37.2139          46.962 
       0.484765         45.3662         36.1856         45.6058 
       0.490885         44.3456         35.2045         44.8328 
       0.497035         43.6492         34.2618         43.9608 
       0.503198         42.3411         33.3525         42.7661 
       0.509342         41.2678         32.4732         41.9129 
       0.515458         40.3512         31.6223         41.2095 
       0.521598         39.6303         30.7939         39.9521 
       0.527764         38.7908         29.9895         38.9097 
       0.533884         38.1129         29.2192         38.1706 
           0.54         37.1024         28.4779          37.417 
       0.546137         36.5515         27.7625         36.7611 
       0.552299         35.8948         27.0728         35.7628 
       0.558452         34.8137         26.4108         35.0032 
       0.564573         34.1687         25.7756         34.5003 
       0.570708          33.578         25.1593         33.8236 
       0.576825         32.8601         24.5632         33.1147 
       0.582926         32.0847         23.9861         32.4607 
       0.589034         31.2635         23.4261         32.0035 
       0.595184         30.8284         22.8801         31.2431 
       0.601379         30.1978         22.3484         30.7935 
       0.607522         29.5191         21.8386         30.0124 
       0.613639         29.2499         21.3474          29.542 
       0.619772         28.5182         20.8705         29.0319 
       0.625918         28.2026         20.4076         28.5685 
       0.632068         27.7709         19.9586         27.9803 
       0.638161         27.1905         19.5273         27.5033 
         0.6443         26.6683         19.1057         26.9548 
       0.650464         26.1543         18.6951          26.517 
       0.656582         25.8918         18.2994         26.1216 
       0.662703         25.3438          17.915         25.5919 
       0.668861         24.8865         17.5394         25.2807 
       0.675024           24.43         17.1743         24.7255 
       0.681124          23.993         16.8233         24.3304 
       0.687237         23.5071         16.4815         23.9247 
       0.693381         23.2826         16.1477         23.4872 
       0.699536         22.7333         15.8227         23.2426 
       0.705665          22.675         15.5081          22.909 
       0.711789         22.0484         15.2025         22.3812 
       0.717957         21.7321         14.9032         22.1333 
        0.72409         21.4239         14.6136         21.8265 
       0.730186         21.0597         14.3335         21.4616 
       0.736317         20.8461         14.0593         21.1052 
       0.742472         20.4536         13.7913         20.8236 
       0.748622         20.2135         13.5306         20.4804 
        0.75476         19.8641         13.2771         20.2068 
       0.760888         19.5112         13.0306         19.9335 
       0.767043         19.2379         12.7894         19.6775 
       0.773185         18.9154         12.5549         19.3716 
       0.779291         18.7833         12.3276         19.1306 
       0.785407         18.5987         12.1056         18.8134 
       0.791564         18.2283         11.8877          18.558 
       0.797719         17.7656         11.6753         18.3565 
       0.803834         17.7236         11.4695         18.0534 
       0.809972         17.4772         11.2679         17.8176 
       0.816124         17.1239         11.0708         17.5748 
       0.822261         16.9194         10.8789          17.325 
       0.828378         16.7881         10.6922         17.0595 
       0.834502         16.5705         10.5098         16.9011 
       0.840667         16.3186         10.3304         16.6663 
       0.846816         16.0055         10.1557         16.4524 
       0.852925         15.8516         9.98621         16.3082 
       0.859047         15.6479         9.82024          16.061 
       0.865192         15.4529         9.65751         15.8459 
       0.871341         15.3232         9.49838         15.6777 
       0.877463         15.0321         9.34357         15.4801 
       0.883569         14.8346         9.19261         15.2897 
       0.889708         14.6173         9.04424         15.0991 
       0.895864         14.4496         8.89877         14.8892 
       0.902008         14.3188         8.75681         14.7337 
       0.908149         14.1533         8.61805         14.5872 
       0.914301         14.0719         8.48208         14.4676 
       0.920448         13.8095         8.34919         14.2261 
       0.926574         13.6517         8.21961         14.0489 
       0.932687         13.4678         8.09308         13.8764 
       0.938823         13.2843         7.96876         13.7083 
       0.944975         13.1489         7.84679         13.5774 
       0.951105         12.9936         7.72781          13.392 
       0.957225          12.829         7.61152         13.2665 
       0.963368         12.7616         7.49724         13.1111 
       0.969511         12.5972         7.38531         12.9571 
       0.975621         12.4933         7.27627         12.8361 
       0.981748         12.2775         7.16917         12.7007 
       0.987916         12.1718         7.06356          12.544 
        0.99406         12.0352         6.96048         12.4148 
        1.00019         11.8602         6.85967         12.2898 
        1.00632          11.777         6.76096         12.1713 
        1.01246         11.6952         6.66405         12.0613 
        1.01859         11.4711         6.56921         11.9389 
        1.02471         11.4081         6.47633         11.7889 
        1.03085          11.302         6.38494         11.6621 
        1.03698         11.0844         6.29551         11.5475 
        1.04314         11.0241         6.20742         11.4205 
        1.04929         10.8799         6.12123         11.3372 
        1.05541         10.7404         6.03702         11.2518 
        1.06154         10.6815         5.95419         11.0929 
        1.06769         10.5944         5.87279         10.9627 
        1.07382         10.4699         5.79319         10.8825 
        1.07993         10.3653         5.71524         10.7725 
        1.08607           10.23         5.63841         10.6796 
        1.09222         10.1604         5.56291         10.5954 
        1.09836         10.0318         5.48889         10.4724 
        1.10449         9.95282         5.41631         10.3634 
        1.11063         9.80224         5.34496         10.2732 
        1.11677         9.76001         5.27493         10.1633 
         1.1229         9.69523         5.20627         10.0907 
        1.12903         9.56314         5.13879         10.0001 
        1.13518         9.43741         5.07244         9.89499 
        1.14131         9.39996         5.00731         9.80397 
        1.14745          9.2942         4.94336         9.72849 
        1.15359         9.23667         4.88052         9.61442 
        1.15973          9.1102         4.81874         9.54506 
        1.16584         8.98962         4.75832         9.46503 
        1.17197         8.96724         4.69884         9.41133 
        1.17811         8.85721          4.6402         9.27456 
        1.18424          8.7787         4.58274         9.20936 
        1.19038         8.72392         4.52609         9.14855 
        1.19652         8.64092         4.47041         9.04381 
        1.20267         8.55541         4.41568         8.98308 
        1.20881         8.48554         4.36188         8.90562 
        1.21495         8.41972         4.30906         8.83178 
        1.22108         8.32084         4.25712         8.75903 
         1.2272         8.23791         4.20617          8.6846 
        1.23334         8.18897         4.15593         8.61949 
        1.23949         8.09281          4.1064         8.53338 
        1.24562         8.04694         4.05782         8.46575 
        1.25174         7.98646         4.01009         8.40312 
        1.25789         7.90038         3.96299          8.3288 
        1.26402         7.86967         3.91673         8.25547 
        1.27014         7.76966         3.87132         8.19419 
        1.27628         7.69335         3.82649         8.11311 
        1.28244         7.63207         3.78229         8.07521 
        1.28858         7.60828         3.73885         8.00412 
        1.29471          7.5239         3.69619         7.94389 
        1.30084         7.44564         3.65423         7.90282 
        1.30697          7.3964         3.61286         7.82182 
        1.31312          7.3011         3.57208          7.7594 
        1.31925         7.24332         3.53205         7.71412 
        1.32537         7.21033         3.49268         7.66058 
        1.33151         7.15471         3.45377         7.59808 
        1.33765         7.09714         3.41547         7.52896 
        1.34378          7.0342         3.37783         7.47337 
        1.34992         6.95701         3.34074         7.42842 
        1.35606         6.93906         3.30412         7.36197 
         1.3622         6.88716         3.26812         7.30464 
        1.36833         6.79639         3.23274         7.27429 
        1.37445         6.77164          3.1979         7.20736 
        1.38059         6.70528         3.16347         7.14567 
        1.38675         6.62968         3.12946         7.11157 
        1.39288         6.61285         3.09609         7.05049 
        1.39901         6.54984         3.06322         6.99985 
        1.40515         6.51484         3.03076         6.94965 
         1.4113         6.45065         2.99878          6.9022 
        1.41742         6.39427         2.96738         6.86436 
        1.42355         6.34872         2.93637         6.81653 
         1.4297          6.3298         2.90571         6.75487 
        1.43585         6.27681         2.87551         6.71859 
        1.44198         6.22924         2.84585         6.67345 
        1.44809         6.17467         2.81666         6.62844 
        1.45423           6.127         2.78778         6.57565 
        1.46036          6.0805         2.75935         6.52846 
        1.46649         6.05275         2.73131         6.49468 
        1.47263         5.98721         2.70364         6.46135 
        1.47877         5.95017         2.67636         6.40552 
        1.48491         5.92397         2.64942         6.35686 
        1.49104         5.87988          2.6229         6.32024 
        1.49718         5.83123         2.59673          6.2844 
        1.50333         5.78781         2.57087         6.24297 
        1.50947         5.74037         2.54542         6.20454 
         1.5156         5.70953         2.52035         6.16632 
        1.52172         5.67698         2.49562         6.12188 
        1.52787         5.63239         2.47117          6.0761 
          1.534         5.58806         2.44708         6.03812 
        1.54013         5.54304         2.42334          5.9952 
        1.54627         5.50099         2.39986         5.95472 
        1.55241         5.46775         2.37669         5.92162 
        1.55855         5.43465         2.35386         5.88558 
        1.56467         5.39323          2.3314          5.8547 
         1.5708         5.38136         2.30916         5.82264 
        1.57695          5.3271         2.28718          5.7816 
        1.58308         5.29093         2.26554          5.7466 
        1.58922         5.26682         2.24416         5.72018 
        1.59535         5.22593         2.22307         5.68533 
         1.6015         5.18027         2.20222         5.64517 
        1.60764         5.14972         2.18164         5.60727 
        1.61376         5.12239         2.16139          5.5768 
        1.61989         5.07922         2.14138         5.55084 
        1.62604         5.06569         2.12157         5.51763 
        1.63218         5.02788         2.10203         5.48551 
        1.63831         4.99097         2.08278         5.45654 
        1.64444         4.95002         2.06377         5.42015 
        1.65059         4.91592         2.04494         5.38627 
        1.65673          4.9047         2.02637         5.35855 
        1.66285         4.85148         2.00809         5.32776 
        1.66898         4.83344         1.99002         5.28935 
        1.67512          4.8087         1.97214         5.25895 
        1.68127         4.77871         1.95446         5.23404 
         1.6874         4.74189         1.93704         5.20704 
        1.69353         4.69714         1.91984         5.17408 
        1.69967         4.68652         1.90281         5.14356 
        1.70581         4.66532           1.886         5.11579 
        1.71193         4.62194         1.86945         5.09122 
        1.71806         4.59536         1.85306         5.06935 
        1.72421         4.57141         1.83684         5.03982 
        1.73035         4.54092         1.82083         5.01167 
        1.73649         4.51845         1.80502         4.98622 
        1.74262         4.49045          1.7894         4.95194 
        1.74876         4.46752         1.77396         4.92348 
        1.75489         4.43713         1.75874         4.89647 
        1.76101         4.40423          1.7437         4.86742 
        1.76715         4.38451         1.72881         4.84914 
        1.77329         4.34677         1.71408         4.82284 
        1.77943         4.32675         1.69951         4.79136 
        1.78557         4.31019         1.68514         4.76689 
        1.79171         4.28744         1.67092         4.73987 
        1.79785         4.24714         1.65687         4.71297 
        1.80399         4.23422         1.64299         4.69305 
        1.81012         4.21565         1.62928         4.67417 
        1.81625         4.18083         1.61573         4.65196 
        1.82239         4.15582         1.60232         4.62787 
        1.82853          4.1278         1.58907         4.60495 
        1.83466         4.10561         1.57597         4.58263 
        1.84078         4.08793         1.56304         4.55902 
        1.84692          4.0679         1.55024         4.53251 
        1.85306         4.03694         1.53756         4.50522 
         1.8592         4.01996         1.52504         4.48211 
        1.86533         3.99667         1.51267         4.46246 
        1.87147         3.97284         1.50042         4.43873 
        1.87761         3.95551          1.4883         4.41862 
