#  k  (h/Mpc)          P(k)  (Mpc/h)^3     P_linear(k)   P_NL(k) (Mpc/h)^3
     0.00783031         2616.07         2635.32         2635.32 
       0.013688         3028.65         3069.34         3069.34 
       0.019231         2943.04         2960.43         2960.43 
      0.0249154         2620.83         2613.66         2613.66 
      0.0312784         2165.46         2165.22         2165.22 
      0.0375637         1783.92         1788.65         1788.65 
      0.0433917         1540.82         1536.27         1536.27 
      0.0492413         1366.17         1367.07         1367.07 
      0.0555754         1250.44         1245.82         1245.82 
      0.0619321         1138.68         1150.19         1150.19 
       0.067871         1056.19         1058.38         1058.38 
      0.0738098         955.076         954.438         954.438 
      0.0800417         841.122         837.122         837.122 
      0.0862327          727.77         725.478         725.478 
      0.0921407         637.937         635.269         635.269 
      0.0982031         571.677         565.283         565.283 
       0.104506         516.768         515.882         515.882 
       0.110769         485.532         483.954         483.954 
       0.116806         465.991         461.015         461.015 
       0.122832         439.653         438.322         438.322 
       0.129052         413.417         410.382         410.382 
       0.135211         383.287         377.542         377.542 
       0.141259          347.04         342.986         342.986 
       0.147318         312.579         310.051         310.051 
       0.153489         285.976         281.628         281.628 
       0.159709         266.132         259.806         259.806 
       0.165845         247.046         244.536         244.536 
       0.171974         240.121         233.613         233.613 
       0.178125         230.283         224.531         224.531 
       0.184229         218.571         215.223         215.223 
        0.19034         209.763         204.385         204.385 
       0.196428         197.689         192.013         192.013 
       0.202534         182.015         178.877         178.877 
       0.208729         172.277         166.061         166.061 
       0.214876          162.42         154.916         154.916 
       0.220989          150.85         145.899         145.899 
       0.227147         146.022         138.817         138.817 
        0.23329         140.373         133.215         133.215 
       0.239377         136.033         128.374         128.374 
       0.245482         130.072         123.561         123.561 
       0.251667         123.931         118.323         118.323 
       0.257832         120.246         112.671         112.671 
       0.263955         112.923         106.851         106.851 
       0.270079         107.263         101.186         101.186 
        0.27624         101.672         95.9739         95.9739 
       0.282372         97.5372         91.4648         91.4648 
        0.28843         95.3497          87.684          87.684 
       0.294538         91.2704          84.412          84.412 
       0.300721         87.3791         81.4381         81.4381 
        0.30691         85.4308         78.5779         78.5779 
       0.313033         81.8772         75.7218         75.7218 
       0.319153         79.9372          72.788          72.788 
       0.325316         76.0431         69.8043         69.8043 
        0.33145         73.0532         66.8975         66.8975 
       0.337538         70.4052         64.1768         64.1768 
       0.343633         68.0703         61.6847         61.6847 
       0.349808         65.5866         59.4133         59.4133 
       0.355968         63.4429         57.3729         57.3729 
       0.362074         62.0782          55.508          55.508 
       0.368217         60.1768         53.7275         53.7275 
       0.374374         58.6533          51.982          51.982 
       0.380519         56.1325         50.2545         50.2545 
       0.386598         54.3615         48.5649         48.5649 
       0.392688         52.4964         46.9088         46.9088 
        0.39888         51.3468          45.295          45.295 
       0.405048         49.9202         43.7812         43.7812 
       0.411186          48.432         42.3743         42.3743 
       0.417313         46.9687         41.0674         41.0674 
       0.423458         45.5611         39.8379         39.8379 
       0.429607         44.6654         38.6657         38.6657 
       0.435692         43.7983          37.547          37.547 
       0.441815         42.0996         36.4518         36.4518 
       0.447964           40.64         35.3762         35.3762 
       0.454126         39.8918         34.3272         34.3272 
       0.460267         39.3211          33.319          33.319 
       0.466387         38.1295         32.3569         32.3569 
        0.47254         37.4575         31.4346         31.4346 
       0.478662         36.1601         30.5628         30.5628 
       0.484765         35.3424         29.7364         29.7364 
       0.490885         34.2816         28.9435         28.9435 
       0.497035          33.664         28.1752         28.1752 
       0.503198         32.9043         27.4298         27.4298 
       0.509342         31.9147         26.7096         26.7096 
       0.515458         31.3958         26.0146         26.0146 
       0.521598         30.6172         25.3384         25.3384 
       0.527764         30.1204         24.6824         24.6824 
       0.533884         29.3843         24.0556         24.0556 
           0.54         28.7301         23.4543         23.4543 
       0.546137         27.8205         22.8748         22.8748 
       0.552299         27.3024         22.3144         22.3144 
       0.558452         26.6607         21.7741         21.7741 
       0.564573         26.3295         21.2536         21.2536 
       0.570708         25.6163         20.7481         20.7481 
       0.576825         25.2338         20.2598         20.2598 
       0.582926         24.7341          19.788          19.788 
       0.589034         24.1896         19.3303         19.3303 
       0.595184         23.8327          18.884          18.884 
       0.601379         23.1606         18.4489         18.4489 
       0.607522         22.7266         18.0314         18.0314 
       0.613639         22.3324         17.6291         17.6291 
       0.619772         21.8897         17.2388         17.2388 
       0.625918         21.4327           16.86           16.86 
       0.632068         21.2017         16.4926         16.4926 
       0.638161         20.7137         16.1393         16.1393 
         0.6443         20.3641         15.7935         15.7935 
       0.650464         19.8289         15.4564         15.4564 
       0.656582         19.6594         15.1313         15.1313 
       0.662703         19.3614         14.8153         14.8153 
       0.668861         18.8346         14.5067         14.5067 
       0.675024         18.5458         14.2067         14.2067 
       0.681124         18.4285         13.9184         13.9184 
       0.687237         18.0146         13.6378         13.6378 
       0.693381         17.6075         13.3638         13.3638 
       0.699536         17.4733         13.0969         13.0969 
       0.705665         17.1015         12.8385         12.8385 
       0.711789         16.7819         12.5873         12.5873 
       0.717957         16.4058         12.3411         12.3411 
        0.72409         16.2428         12.1029         12.1029 
       0.730186         16.1267         11.8723         11.8723 
       0.736317          15.753         11.6465         11.6465 
       0.742472         15.5492         11.4257         11.4257 
       0.748622         15.2614         11.2108         11.2108 
        0.75476         14.8586          11.002          11.002 
       0.760888         14.7882         10.7988         10.7988 
       0.767043         14.4956            10.6            10.6 
       0.773185         14.3009         10.4066         10.4066 
       0.779291          14.144         10.2192         10.2192 
       0.785407         13.8953         10.0361         10.0361 
       0.791564         13.7529         9.85638         9.85638 
       0.797719         13.4214         9.68118         9.68118 
       0.803834          13.355         9.51136         9.51136 
       0.809972         13.0737         9.34502         9.34502 
       0.816124         12.9087         9.18231         9.18231 
       0.822261         12.7429         9.02392         9.02392 
       0.828378          12.582         8.86976         8.86976 
       0.834502         12.4203         8.71907         8.71907 
       0.840667          12.274         8.57093         8.57093 
       0.846816         11.9889         8.42665         8.42665 
       0.852925         11.9226         8.28662         8.28662 
       0.859047         11.7477         8.14949         8.14949 
       0.865192         11.5661         8.01501         8.01501 
       0.871341         11.4068          7.8835          7.8835 
       0.877463         11.2485         7.75554         7.75554 
       0.883569          11.157         7.63075         7.63075 
       0.889708         10.9565         7.50808         7.50808 
       0.895864         10.8065          7.3878          7.3878 
       0.902008         10.6689         7.27041         7.27041 
       0.908149         10.5029         7.15565         7.15565 
       0.914301         10.4255         7.04319         7.04319 
       0.920448         10.2655         6.93326         6.93326 
       0.926574         10.1763         6.82606         6.82606 
       0.932687         10.0075         6.72136         6.72136 
       0.938823         9.86093         6.61849         6.61849 
       0.944975         9.78924         6.51753         6.51753 
       0.951105         9.64825         6.41905         6.41905 
       0.957225         9.57421         6.32277         6.32277 
       0.963368         9.40617         6.22814         6.22814 
       0.969511         9.29974         6.13545         6.13545 
       0.975621         9.19834         6.04515         6.04515 
       0.981748         9.06314         5.95644         5.95644 
       0.987916         8.98963         5.86895         5.86895 
        0.99406         8.87221         5.78354         5.78354 
        1.00019         8.79235         5.70001         5.70001 
        1.00632         8.70714         5.61821         5.61821 
        1.01246         8.59043         5.53789         5.53789 
        1.01859         8.48119         5.45927         5.45927 
        1.02471         8.36717         5.38228         5.38228 
        1.03085         8.32176         5.30651         5.30651 
        1.03698         8.22831         5.23235         5.23235 
        1.04314         8.11125          5.1593          5.1593 
        1.04929         7.99417         5.08781         5.08781 
        1.05541         7.93671         5.01796         5.01796 
        1.06154         7.85508         4.94926         4.94926 
        1.06769         7.78587         4.88174         4.88174 
        1.07382         7.65386          4.8157          4.8157 
        1.07993         7.58566         4.75104         4.75104 
        1.08607         7.53174          4.6873          4.6873 
        1.09222         7.42374         4.62466         4.62466 
        1.09836         7.38302         4.56325         4.56325 
        1.10449         7.26435         4.50302         4.50302 
        1.11063         7.23038         4.44381         4.44381 
        1.11677         7.15726          4.3857          4.3857 
         1.1229         7.08311         4.32872         4.32872 
        1.12903         7.00899          4.2727          4.2727 
        1.13518         6.91467         4.21764         4.21764 
        1.14131         6.85444         4.16357         4.16357 
        1.14745          6.7499         4.11048         4.11048 
        1.15359         6.68433         4.05831         4.05831 
        1.15973         6.62662         4.00702         4.00702 
        1.16584         6.56675         3.95685         3.95685 
        1.17197         6.49107         3.90747         3.90747 
        1.17811         6.43077         3.85878         3.85878 
        1.18424         6.37883         3.81106         3.81106 
        1.19038         6.33155         3.76401         3.76401 
        1.19652         6.26442         3.71778         3.71778 
        1.20267         6.21267         3.67232         3.67232 
        1.20881         6.12286         3.62762         3.62762 
        1.21495         6.08092         3.58375         3.58375 
        1.22108         6.02407          3.5406          3.5406 
         1.2272         5.96331         3.49826         3.49826 
        1.23334         5.93515         3.45652         3.45652 
        1.23949         5.86056         3.41536         3.41536 
        1.24562         5.80561         3.37498         3.37498 
        1.25174         5.77015         3.33532         3.33532 
        1.25789         5.68072         3.29617         3.29617 
        1.26402         5.65171         3.25772         3.25772 
        1.27014         5.61635         3.21997         3.21997 
        1.27628         5.53796         3.18271         3.18271 
        1.28244         5.51395         3.14597         3.14597 
        1.28858         5.46157         3.10985         3.10985 
        1.29471         5.38741         3.07439         3.07439 
        1.30084         5.34046          3.0395          3.0395 
        1.30697         5.32242         3.00511         3.00511 
        1.31312         5.26062          2.9712          2.9712 
        1.31925         5.21707         2.93792         2.93792 
        1.32537         5.17256         2.90518         2.90518 
        1.33151         5.12622         2.87283         2.87283 
        1.33765         5.07822         2.84098         2.84098 
        1.34378         5.06489         2.80968         2.80968 
        1.34992         5.00274         2.77883         2.77883 
        1.35606         4.96034         2.74838         2.74838 
         1.3622         4.91256         2.71844         2.71844 
        1.36833         4.88078         2.68901         2.68901 
        1.37445         4.83623         2.66003         2.66003 
        1.38059         4.78826          2.6314          2.6314 
        1.38675         4.75569         2.60311         2.60311 
        1.39288         4.71449         2.57535         2.57535 
        1.39901          4.6674         2.54801         2.54801 
        1.40515         4.63421         2.52101         2.52101 
         1.4113         4.59529         2.49441         2.49441 
        1.41742         4.56963         2.46829         2.46829 
        1.42355         4.51991         2.44249         2.44249 
         1.4297         4.48815         2.41699         2.41699 
        1.43585         4.46162         2.39186         2.39186 
        1.44198         4.41932         2.36719         2.36719 
        1.44809         4.38631          2.3429          2.3429 
        1.45423         4.34654         2.31887         2.31887 
        1.46036         4.32114         2.29522         2.29522 
        1.46649         4.28621         2.27189         2.27189 
        1.47263         4.25676         2.24886         2.24886 
        1.47877         4.22077         2.22616         2.22616 
        1.48491         4.19613         2.20374         2.20374 
        1.49104         4.15549         2.18168         2.18168 
        1.49718         4.13448          2.1599          2.1599 
        1.50333         4.09655         2.13838         2.13838 
        1.50947         4.05894         2.11719         2.11719 
         1.5156         4.04074         2.09633         2.09633 
        1.52172         4.00452         2.07574         2.07574 
        1.52787         3.98177         2.05539         2.05539 
          1.534           3.946         2.03534         2.03534 
        1.54013         3.92829         2.01557         2.01557 
        1.54627          3.8913         1.99603         1.99603 
        1.55241         3.85485         1.97675         1.97675 
        1.55855         3.84102         1.95775         1.95775 
        1.56467         3.81689         1.93905         1.93905 
         1.5708         3.77835         1.92054         1.92054 
        1.57695         3.74677         1.90224         1.90224 
        1.58308         3.71493         1.88423         1.88423 
        1.58922         3.70492         1.86643         1.86643 
        1.59535         3.67736         1.84887         1.84887 
         1.6015         3.63579         1.83152         1.83152 
        1.60764         3.61952         1.81439         1.81439 
        1.61376         3.59771         1.79753         1.79753 
        1.61989         3.56044         1.78086         1.78086 
        1.62604         3.54589         1.76438         1.76438 
        1.63218         3.52337         1.74811         1.74811 
        1.63831         3.49892         1.73208         1.73208 
        1.64444         3.46874         1.71624         1.71624 
        1.65059         3.44794         1.70057         1.70057 
        1.65673         3.43023         1.68511         1.68511 
        1.66285          3.4042         1.66988         1.66988 
        1.66898          3.3812         1.65484         1.65484 
        1.67512          3.3579         1.63995         1.63995 
        1.68127         3.32862         1.62523         1.62523 
         1.6874         3.31126         1.61073         1.61073 
        1.69353         3.28285         1.59641         1.59641 
        1.69967         3.26802         1.58223         1.58223 
        1.70581         3.24096         1.56823         1.56823 
        1.71193         3.22514         1.55445         1.55445 
        1.71806         3.20115          1.5408          1.5408 
        1.72421         3.18043          1.5273          1.5273 
        1.73035         3.16048         1.51396         1.51396 
        1.73649         3.14016          1.5008          1.5008 
        1.74262          3.1157         1.48779         1.48779 
        1.74876         3.10553         1.47494         1.47494 
        1.75489         3.08049         1.46226         1.46226 
        1.76101         3.05459         1.44973         1.44973 
        1.76715         3.04944         1.43733         1.43733 
        1.77329         3.02502         1.42506         1.42506 
        1.77943         2.99514         1.41293         1.41293 
        1.78557         2.99135         1.40096         1.40096 
        1.79171         2.96768         1.38913         1.38913 
        1.79785         2.95489         1.37742         1.37742 
        1.80399         2.92442         1.36586         1.36586 
        1.81012         2.91434         1.35444         1.35444 
        1.81625          2.8914         1.34316         1.34316 
        1.82239         2.87817         1.33199         1.33199 
        1.82853         2.85613         1.32095         1.32095 
        1.83466         2.83031         1.31004         1.31004 
        1.84078         2.81693         1.29928         1.29928 
        1.84692         2.80026         1.28861         1.28861 
        1.85306         2.78187         1.27805         1.27805 
         1.8592         2.77226         1.26763         1.26763 
        1.86533         2.75489         1.25732         1.25732 
        1.87147         2.74136         1.24712         1.24712 
        1.87761         2.72404         1.23703         1.23703 
