#  k  (h/Mpc)          P(k)  (Mpc/h)^3     P_linear(k)   P_NL(k) (Mpc/h)^3
     0.00783031          4890.2         4912.71         4909.97 
       0.013688         6454.36         6567.95         6540.56 
       0.019231         7027.74         7094.72         7048.86 
      0.0249154         6965.38         6968.56         6922.63 
      0.0312784         6363.35         6410.77         6365.57 
      0.0375637         5662.61         5734.34         5688.64 
      0.0433917         5138.36         5161.43         5113.35 
      0.0492413         4649.65         4703.06         4654.86 
      0.0555754          4313.3         4338.14         4289.03 
      0.0619321         3954.85         4066.16         4014.81 
       0.067871         3780.47          3846.2         3794.22 
      0.0738098         3568.79         3619.15         3553.24 
      0.0800417         3313.09         3352.41         3288.41 
      0.0862327         3014.01         3062.15         3013.71 
      0.0921407         2740.51         2781.61         2736.28 
      0.0982031          2501.1         2515.15          2488.5 
       0.104506         2247.73         2281.92         2270.66 
       0.110769         2078.38         2103.06         2084.31 
       0.116806         1983.85          1976.5         1957.98 
       0.122832         1867.44         1882.52         1868.73 
       0.129052         1792.26         1802.41         1789.09 
       0.135211         1733.15         1724.06         1711.42 
       0.141259         1629.41         1638.05         1632.32 
       0.147318          1515.4         1540.36         1543.91 
       0.153489         1427.09          1433.3         1427.72 
       0.159709         1347.65         1326.25         1333.52 
       0.165845         1229.78         1230.12         1257.75 
       0.171974         1188.18         1149.37         1178.34 
       0.178125         1134.45         1085.41         1129.05 
       0.184229         1060.68         1036.76         1079.87 
        0.19034         1038.93          998.15         1041.22 
       0.196428         1007.65         964.067         999.146 
       0.202534         950.407         929.293         967.831 
       0.208729         931.149         890.296         925.365 
       0.214876         896.229         847.365         896.121 
       0.220989         836.571         802.166         857.288 
       0.227147         815.657         757.039         815.034 
        0.23329         782.328         715.375         784.838 
       0.239377         761.741          679.44         753.646 
       0.245482         723.616         649.428         718.949 
       0.251667         695.853         624.519         700.758 
       0.257832         688.935          603.59         679.031 
       0.263955         654.466         584.691         658.716 
       0.270079         635.091          565.88          639.11 
        0.27624         608.794         545.956         617.569 
       0.282372         595.136         524.835         598.771 
        0.28843         590.157         503.178         577.916 
       0.294538         561.075         481.483         561.165 
       0.300721         541.045         460.683         545.239 
        0.30691         532.349         441.834         530.339 
       0.313033          510.68         425.435         512.472 
       0.319153         501.947         411.182         500.552 
       0.325316         489.879          398.46         491.214 
        0.33145         479.182         386.786         474.729 
       0.337538         463.622         375.522         463.235 
       0.343633         449.801         364.152         455.869 
       0.349808         438.539         352.353         445.839 
       0.355968         429.429         340.399         436.376 
       0.362074         418.733         328.653         424.769 
       0.368217         413.199         317.262         411.236 
       0.374374         404.654         306.584         402.892 
       0.380519         388.711         296.797         393.137 
       0.386598         382.842         287.988         385.591 
       0.392688         374.785         279.898         378.065 
        0.39888         365.867         272.197         369.635 
       0.405048         359.757         264.844         365.046 
       0.411186         356.372          257.65         356.443 
       0.417313           349.5         250.488         346.873 
       0.423458         340.346         243.347         340.707 
       0.429607         333.577          236.29         333.936 
       0.435692         327.128         229.501         327.712 
       0.441815         321.391         222.974         324.418 
       0.447964         313.069         216.786          317.45 
       0.454126          308.29         210.963          309.83 
       0.460267         304.866         205.522         307.075 
       0.466387         299.474          200.39         300.975 
        0.47254         295.907         195.433         296.463 
       0.478662         287.321         190.641         290.985 
       0.484765         284.174         185.968         284.447 
       0.490885         280.456         181.357         281.175 
       0.497035         277.206         176.804         277.832 
       0.503198         273.481          172.36         273.143 
       0.509342         266.311         168.083         269.599 
       0.515458         263.818         163.996         267.391 
       0.521598         257.903         160.067         261.636 
       0.527764         255.051         156.301         256.756 
       0.533884         254.607         152.728         253.825 
           0.54         248.716         149.293         250.571 
       0.546137         243.259         145.952         247.969 
       0.552299         241.819          142.68         243.448 
       0.558452         237.683         139.492         240.082 
       0.564573         236.205           136.4          238.02 
       0.570708         231.155         133.379         234.742 
       0.576825         228.034         130.449         230.646 
       0.582926         225.669         127.615         227.775 
       0.589034         222.848         124.872         225.645 
       0.595184         221.151         122.209         222.151 
       0.601379         216.179         119.625         220.997 
       0.607522          213.14         117.148         217.295 
       0.613639         211.382         114.754         215.118 
       0.619772         209.214         112.417         212.024 
       0.625918         207.484         110.134         210.578 
       0.632068         203.122         107.908          207.05 
       0.638161         200.646          105.76         205.918 
         0.6443         200.008         103.654         203.107 
       0.650464         196.543         101.599         199.651 
       0.656582         195.462         99.6154          198.42 
       0.662703         193.512         97.6866         195.945 
       0.668861         189.853         95.8002         194.104 
       0.675024         189.826         93.9647         191.585 
       0.681124         186.905         92.1986         189.975 
       0.687237         184.091         90.4766         187.601 
       0.693381         183.321          88.792         185.644 
       0.699536         180.917         87.1483         184.352 
       0.705665          178.47         85.5534         183.253 
       0.711789         176.481         83.9994         179.985 
       0.717957         174.759         82.4724         178.731 
        0.72409         173.798         80.9914         178.071 
       0.730186         172.844         79.5554          175.99 
       0.736317          169.92         78.1466         173.821 
       0.742472         168.022         76.7672         172.336 
       0.748622         165.591         75.4232         170.472 
        0.75476         165.555         74.1154         168.912 
       0.760888         164.238         72.8417         166.983 
       0.767043         161.685         71.5938         166.216 
       0.773185         159.902         70.3784         165.177 
       0.779291         158.242         69.1989         163.519 
       0.785407          156.57         68.0451         161.514 
       0.791564         156.049         66.9108         160.395 
       0.797719         154.415         65.8031         159.344 
       0.803834         153.422         64.7276         157.338 
       0.809972         152.751         63.6726         156.302 
       0.816124         150.836          62.639         155.472 
       0.822261         149.024         61.6314          153.86 
       0.828378         148.863         60.6492         151.941 
       0.834502         146.258         59.6878          151.64 
       0.840667         145.801         58.7413           150.8 
       0.846816         144.556         57.8184         149.061 
       0.852925         143.146         56.9213         147.815 
       0.859047         142.072         56.0417         146.496 
       0.865192         140.681          55.178           145.8 
       0.871341         139.192         54.3323         144.321 
       0.877463         138.446         53.5083         143.702 
       0.883569         138.062         52.7038         142.496 
       0.889708         136.968         51.9119         141.497 
       0.895864         135.566         51.1345         140.593 
       0.902008         134.567         50.3749         139.251 
       0.908149         132.896         49.6314         138.227 
       0.914301         132.887         48.9018         137.667 
       0.920448         131.939         48.1878         136.529 
       0.926574         129.867         47.4908         134.848 
       0.932687         129.484         46.8091         134.182 
       0.938823         128.378         46.1386         133.293 
       0.944975         126.982         45.4799         132.466 
       0.951105         126.132         44.8365          131.56 
       0.957225         126.168         44.2069         130.878 
       0.963368         124.609         43.5873          129.34 
       0.969511         123.501         42.9798         128.676 
       0.975621         122.729         42.3872         128.908 
       0.981748         121.658         41.8045         127.341 
       0.987916           120.8         41.2291         126.849 
        0.99406         120.342         40.6668         125.827 
        1.00019         119.026         40.1163         124.842 
        1.00632          118.47         39.5766         124.204 
        1.01246         117.537         39.0461         123.194 
        1.01859         116.959         38.5263         122.539 
        1.02471         115.863         38.0168         122.074 
        1.03085         114.995         37.5148          121.13 
        1.03698         114.335         37.0231          120.16 
        1.04314         113.568         36.5381         119.604 
        1.04929         113.061         36.0631          119.21 
        1.05541          112.28         35.5986         118.566 
        1.06154          111.59         35.1412         117.762 
        1.06769         110.424         34.6912          117.12 
        1.07382         109.702         34.2506         116.349 
        1.07993         109.299         33.8188         115.578 
        1.08607         108.294         33.3927         114.849 
        1.09222         108.006         32.9737         113.953 
        1.09836          106.85         32.5624         113.417 
        1.10449         106.334         32.1586         112.791 
        1.11063         105.468         31.7614         111.879 
        1.11677         105.028         31.3711         111.327 
         1.1229         104.152         30.9881         111.099 
        1.12903          103.92         30.6112         110.204 
        1.13518         103.367         30.2404         109.643 
        1.14131         102.573         29.8759         108.998 
        1.14745         101.582         29.5178         108.411 
        1.15359         100.726         29.1655         107.981 
        1.15973         100.517         28.8189         107.326 
        1.16584         99.8143         28.4795         106.695 
        1.17197         98.9775         28.1452          106.12 
        1.17811         98.4673         27.8152         105.346 
        1.18424         97.6264         27.4916         104.846 
        1.19038         97.5862         27.1722          104.61 
        1.19652         96.9298         26.8581         103.675 
        1.20267         96.1261          26.549         103.349 
        1.20881          95.489         26.2449         102.689 
        1.21495         95.1405         25.9461         102.158 
        1.22108         94.4906          25.652          101.71 
         1.2272         93.7796         25.3632         101.231 
        1.23334         93.3288         25.0783         100.651 
        1.23949         92.8254         24.7971         99.9868 
        1.24562         92.0341          24.521         99.5966 
        1.25174         91.4959         24.2496         99.1902 
        1.25789         91.6227         23.9815         98.6357 
        1.26402         90.6932          23.718         98.0449 
        1.27014         90.1856         23.4591         97.6694 
        1.27628         89.3948         23.2033          97.217 
        1.28244         89.0857         22.9509         96.5337 
        1.28858         88.5824         22.7026         96.0945 
        1.29471         88.1338         22.4586         95.8313 
        1.30084         87.4338         22.2184         95.0151 
        1.30697         87.3837         21.9814         94.5392 
        1.31312         86.5266         21.7476         94.4006 
        1.31925         86.0739         21.5179         93.8201 
        1.32537         85.5723         21.2918         93.2549 
        1.33151         85.2822         21.0682         92.9033 
        1.33765         84.6116         20.8479         92.4842 
        1.34378         84.4364         20.6313         91.9524 
        1.34992          83.809         20.4176         91.5847 
        1.35606         83.2497         20.2065         91.1881 
         1.3622         82.7758         19.9988         90.7191 
        1.36833         82.2189         19.7946         90.0663 
        1.37445         81.6345         19.5933          89.782 
        1.38059         81.4284         19.3942         89.6424 
        1.38675         80.6331         19.1975         88.8793 
        1.39288          80.588         19.0043         88.6757 
        1.39901         79.8563         18.8138         88.2088 
        1.40515         79.5919         18.6256         87.7809 
         1.4113         79.3008           18.44         87.5002 
        1.41742         78.8527         18.2577         87.1102 
        1.42355          78.173         18.0776          86.446 
         1.4297           77.78         17.8993          86.076 
        1.43585         77.2586         17.7236         85.8492 
        1.44198         76.8348         17.5509         85.5929 
        1.44809         76.4455         17.3808         84.8134 
        1.45423         76.0506         17.2124         84.5358 
        1.46036         75.5388         17.0466         84.2833 
        1.46649         75.4686         16.8829         83.9973 
        1.47263         74.9076         16.7212         83.6628 
        1.47877         74.5642         16.5617         83.1017 
        1.48491         74.2106         16.4041         82.7606 
        1.49104         73.6118         16.2489         82.2473 
        1.49718         73.2545         16.0956         81.9186 
        1.50333          73.008         15.9441         81.6553 
        1.50947         72.4793         15.7948         81.3481 
         1.5156         72.1758         15.6477          81.027 
        1.52172         71.6876         15.5024         80.6725 
        1.52787         71.2584         15.3587         80.2748 
          1.534         71.0531         15.2171         79.9893 
        1.54013         70.6768         15.0774         79.6188 
        1.54627         70.0882         14.9392         79.2108 
        1.55241          69.711         14.8027         78.8813 
        1.55855         69.5402         14.6681         78.5204 
        1.56467         69.0012         14.5356         78.0989 
         1.5708         68.7768         14.4043         77.9308 
        1.57695         68.4103         14.2745         77.7186 
        1.58308         67.9152         14.1467         77.2771 
        1.58922         67.6286         14.0203         76.9598 
        1.59535         67.3865         13.8955         76.6504 
         1.6015         67.2447          13.772         76.2586 
        1.60764         66.7933         13.6502         75.9592 
        1.61376         66.3249         13.5301         75.7355 
        1.61989         65.8601         13.4114         75.3025 
        1.62604         65.6271         13.2939         74.9351 
        1.63218         65.3134         13.1779         74.6698 
        1.63831          65.099         13.0635          74.391 
        1.64444         64.6118         12.9505          74.055 
        1.65059         64.4386         12.8385         73.7473 
        1.65673         63.8495          12.728         73.3953 
        1.66285          63.749         12.6192          73.116 
        1.66898         63.0813         12.5115         72.9801 
        1.67512         63.0752         12.4049         72.7298 
        1.68127         62.6539         12.2995         72.2934 
         1.6874         62.2902         12.1956         71.8478 
        1.69353         62.0569         12.0929         71.6069 
        1.69967         61.8067         11.9911         71.4443 
        1.70581         61.3375         11.8906         71.2866 
        1.71193         61.0504         11.7916         70.9972 
        1.71806          60.787         11.6936         70.4813 
        1.72421         60.4995         11.5965         70.1385 
        1.73035         60.1767         11.5006         70.0587 
        1.73649         59.8192         11.4058         69.9318 
        1.74262          59.381         11.3122         69.3519 
        1.74876         59.1074         11.2195         69.0307 
        1.75489         58.8213         11.1281         68.8818 
        1.76101         58.5456         11.0378          68.593 
        1.76715         58.4613         10.9483         68.2858 
        1.77329          57.892         10.8598         68.0441 
        1.77943         57.8767         10.7721         67.8009 
        1.78557         57.5557         10.6856         67.4948 
        1.79171         57.2046         10.6001         67.2023 
        1.79785         56.8898         10.5154         67.0004 
        1.80399         56.5953         10.4317          66.835 
        1.81012         56.3525          10.349         66.3947 
        1.81625         55.9847         10.2673         66.0309 
        1.82239         55.7367         10.1864         65.9372 
        1.82853         55.5792         10.1063         65.7989 
        1.83466         55.1875         10.0272         65.4637 
        1.84078         54.8871         9.94904         65.1045 
        1.84692         54.5668         9.87159         65.0065 
        1.85306          54.331         9.79487         64.7871 
         1.8592         54.1627         9.71909         64.4628 
        1.86533         53.8574         9.64416         64.2911 
        1.87147         53.5733         9.56994         64.0472 
        1.87761         53.2155         9.49647         63.7204 
