#  k  (h/Mpc)          P(k)  (Mpc/h)^3     P_linear(k)   P_NL(k) (Mpc/h)^3
     0.00783031         4407.86         4438.19         4438.19 
       0.013688         5086.12          5166.8          5166.8 
       0.019231         4946.06         4982.81         4982.81 
      0.0249154          4414.4         4398.87         4398.87 
      0.0312784         3641.37         3644.01         3644.01 
      0.0375637         2997.12         3010.18         3010.18 
      0.0433917         2592.45         2585.42         2585.42 
      0.0492413         2296.98         2300.66         2300.66 
      0.0555754         2104.61         2096.58         2096.58 
      0.0619321          1909.9         1935.63         1935.63 
       0.067871         1775.11         1781.13         1781.13 
      0.0738098         1607.29          1606.2          1606.2 
      0.0800417         1416.92         1408.77         1408.77 
      0.0862327         1225.93         1220.88         1220.88 
      0.0921407          1076.2         1069.07         1069.07 
      0.0982031         966.561         951.296         951.296 
       0.104506         872.108          868.16          868.16 
       0.110769         819.949         814.427         814.427 
       0.116806         788.525         775.824         775.824 
       0.122832         742.764         737.635         737.635 
       0.129052         698.649         690.614         690.614 
       0.135211         650.264         635.352         635.352 
       0.141259         588.584         577.197         577.197 
       0.147318         530.219          521.77          521.77 
       0.153489         486.386         473.937         473.937 
       0.159709         454.795         437.214         437.214 
       0.165845           420.7         411.518         411.518 
       0.171974         410.708         393.136         393.136 
       0.178125         394.126         377.852         377.852 
       0.184229         372.401         362.186         362.186 
        0.19034         358.493         343.948         343.948 
       0.196428          339.08         323.129         323.129 
       0.202534         311.625         301.024         301.024 
       0.208729         297.161         279.458         279.458 
       0.214876         280.825           260.7           260.7 
       0.220989         260.544         245.524         245.524 
       0.227147         253.159         233.608         233.608 
        0.23329         243.543         224.182         224.182 
       0.239377         236.924         216.033         216.033 
       0.245482         225.866         207.935         207.935 
       0.251667          215.39         199.123         199.123 
       0.257832         210.187         189.607         189.607 
       0.263955         197.025         179.815         179.815 
       0.270079         187.526         170.281         170.281 
        0.27624         178.158         161.509         161.509 
       0.282372         171.581         153.924         153.924 
        0.28843         168.759         147.557         147.557 
       0.294538         161.012         142.054         142.054 
       0.300721         154.363         137.047         137.047 
        0.30691         151.353         132.237         132.237 
       0.313033         144.696         127.426         127.426 
       0.319153          141.56         122.493         122.493 
       0.325316         135.589         117.469         117.469 
        0.33145         130.636          112.58          112.58 
       0.337538         125.835         107.999         107.999 
       0.343633         121.621         103.807         103.807 
       0.349808          117.49         99.9833         99.9833 
       0.355968         114.087         96.5498         96.5498 
       0.362074         111.533         93.4128         93.4128 
       0.368217         108.618         90.4138         90.4138 
       0.374374         105.764         87.4791         87.4791 
       0.380519         101.189         84.5707         84.5707 
       0.386598         98.4983         81.7266         81.7266 
       0.392688         95.2345         78.9418         78.9418 
        0.39888         93.3291         76.2241         76.2241 
       0.405048         90.8588         73.6765         73.6765 
       0.411186         88.6715          71.311          71.311 
       0.417313         86.1403         69.1096         69.1096 
       0.423458         83.7956         67.0405         67.0405 
       0.429607         81.9956         65.0697         65.0697 
       0.435692         80.5523         63.1859         63.1859 
       0.441815         77.7174         61.3417         61.3417 
       0.447964         75.0863         59.5336         59.5336 
       0.454126         73.6754         57.7684         57.7684 
       0.460267         72.8586           56.07           56.07 
       0.466387         70.8184         54.4511         54.4511 
        0.47254         69.7852         52.9007         52.9007 
       0.478662         67.2474         51.4332         51.4332 
       0.484765         65.9869          50.041          50.041 
       0.490885         64.1979         48.7067         48.7067 
       0.497035         63.4246         47.4153         47.4153 
       0.503198         61.9085         46.1614         46.1614 
       0.509342         60.1814          44.948          44.948 
       0.515458         59.2144         43.7775         43.7775 
       0.521598         57.7118         42.6404         42.6404 
       0.527764         56.9354         41.5376         41.5376 
       0.533884         56.0724          40.483          40.483 
           0.54         54.5807         39.4699         39.4699 
       0.546137         53.0256         38.4939         38.4939 
       0.552299         52.0577          37.551          37.551 
       0.558452         50.9571         36.6427         36.6427 
       0.564573         50.5497         35.7677         35.7677 
       0.570708         49.0426         34.9169         34.9169 
       0.576825         48.4848         34.0943         34.0943 
       0.582926         47.7379         33.2995         33.2995 
       0.589034         46.7158          32.529          32.529 
       0.595184         46.0109         31.7783         31.7783 
       0.601379         44.8125         31.0469         31.0469 
       0.607522         43.9761          30.345          30.345 
       0.613639         43.4584         29.6682         29.6682 
       0.619772         42.5422          29.011          29.011 
       0.625918         41.8764         28.3729         28.3729 
       0.632068         41.3432         27.7539         27.7539 
       0.638161         40.4581         27.1591         27.1591 
         0.6443         39.9956         26.5773         26.5773 
       0.650464         38.9775         26.0103         26.0103 
       0.656582         38.7374         25.4636         25.4636 
       0.662703          38.127         24.9323         24.9323 
       0.668861         37.1885         24.4132         24.4132 
       0.675024         36.8446         23.9085         23.9085 
       0.681124         36.4315         23.4232         23.4232 
       0.687237         35.6595         22.9508         22.9508 
       0.693381         35.1172         22.4893         22.4893 
       0.699536         34.7776         22.0399         22.0399 
       0.705665         34.1332         21.6049         21.6049 
       0.711789         33.5577         21.1821         21.1821 
       0.717957         32.9408         20.7678         20.7678 
        0.72409         32.5804         20.3669         20.3669 
       0.730186         32.3597         19.9789         19.9789 
       0.736317         31.7068          19.599          19.599 
       0.742472         31.3047         19.2276         19.2276 
       0.748622         30.7637         18.8661         18.8661 
        0.75476         30.1458         18.5148         18.5148 
       0.760888         30.0764         18.1729         18.1729 
       0.767043         29.4492         17.8383         17.8383 
       0.773185         29.0779         17.5129         17.5129 
       0.779291         28.6894         17.1975         17.1975 
       0.785407         28.2823         16.8894         16.8894 
       0.791564         28.1759         16.5869         16.5869 
       0.797719         27.5216         16.2921         16.2921 
       0.803834         27.3669         16.0063         16.0063 
       0.809972         26.8974         15.7263         15.7263 
       0.816124         26.5922         15.4525         15.4525 
       0.822261         26.2313         15.1859         15.1859 
       0.828378         26.0279         14.9265         14.9265 
       0.834502         25.6886         14.6729         14.6729 
       0.840667          25.419         14.4236         14.4236 
       0.846816         24.9329         14.1808         14.1808 
       0.852925         24.7755         13.9451         13.9451 
       0.859047         24.5582         13.7144         13.7144 
       0.865192         24.1463         13.4881         13.4881 
       0.871341         23.8568         13.2668         13.2668 
       0.877463         23.5774         13.0514         13.0514 
       0.883569           23.43         12.8414         12.8414 
       0.889708         23.0885          12.635          12.635 
       0.895864         22.7924         12.4326         12.4326 
       0.902008         22.5435          12.235          12.235 
       0.908149          22.265         12.0419         12.0419 
       0.914301         22.0836         11.8526         11.8526 
       0.920448         21.8216         11.6676         11.6676 
       0.926574         21.5455         11.4872         11.4872 
       0.932687         21.2978          11.311          11.311 
       0.938823         20.9977         11.1379         11.1379 
       0.944975         20.8295          10.968          10.968 
       0.951105         20.6419         10.8023         10.8023 
       0.957225         20.4692         10.6403         10.6403 
       0.963368         20.1642          10.481          10.481 
       0.969511         19.9813         10.3251         10.3251 
       0.975621         19.8111         10.1731         10.1731 
       0.981748         19.5465         10.0238         10.0238 
       0.987916         19.4142         9.87655         9.87655 
        0.99406         19.1433         9.73283         9.73283 
        1.00019         19.0179         9.59225         9.59225 
        1.00632         18.8455         9.45458         9.45458 
        1.01246         18.6364         9.31942         9.31942 
        1.01859          18.431         9.18711         9.18711 
        1.02471         18.2462         9.05755         9.05755 
        1.03085         18.1402         8.93003         8.93003 
        1.03698         17.9868         8.80525         8.80525 
        1.04314         17.7624         8.68232         8.68232 
        1.04929          17.526         8.56202         8.56202 
        1.05541          17.454         8.44448         8.44448 
        1.06154         17.3107         8.32887         8.32887 
        1.06769         17.0528         8.21524         8.21524 
        1.07382         16.9185         8.10411         8.10411 
        1.07993         16.7704         7.99529         7.99529 
        1.08607         16.6338         7.88802         7.88802 
        1.09222         16.4715         7.78262         7.78262 
        1.09836         16.3003         7.67926         7.67926 
        1.10449          16.214         7.57791         7.57791 
        1.11063         16.0655         7.47828         7.47828 
        1.11677         15.9788         7.38047         7.38047 
         1.1229         15.7961         7.28459         7.28459 
        1.12903         15.6301         7.19032         7.19032 
        1.13518         15.5465         7.09765         7.09765 
        1.14131         15.4107         7.00666         7.00666 
        1.14745         15.2051         6.91732         6.91732 
        1.15359         15.0451         6.82952         6.82952 
        1.15973         14.9619         6.74321         6.74321 
        1.16584         14.8255         6.65878         6.65878 
        1.17197         14.6564         6.57567         6.57567 
        1.17811         14.5789         6.49373         6.49373 
        1.18424         14.4255         6.41343         6.41343 
        1.19038         14.3663         6.33425         6.33425 
        1.19652         14.1866         6.25644         6.25644 
        1.20267         14.1317         6.17993         6.17993 
        1.20881         13.9618         6.10472         6.10472 
        1.21495         13.8881         6.03088         6.03088 
        1.22108         13.8103         5.95828         5.95828 
         1.2272         13.6801         5.88703         5.88703 
        1.23334         13.5943         5.81679         5.81679 
        1.23949         13.4633         5.74753         5.74753 
        1.24562         13.3079         5.67959         5.67959 
        1.25174         13.2673         5.61284         5.61284 
        1.25789          13.169         5.54696         5.54696 
        1.26402         13.0626         5.48226         5.48226 
        1.27014         12.9819         5.41874         5.41874 
        1.27628         12.8369         5.35604         5.35604 
        1.28244         12.8157          5.2942          5.2942 
        1.28858         12.6628         5.23343         5.23343 
        1.29471         12.5314         5.17374         5.17374 
        1.30084         12.4409         5.11504         5.11504 
        1.30697         12.3851         5.05716         5.05716 
        1.31312         12.2819          5.0001          5.0001 
        1.31925         12.2054         4.94409         4.94409 
        1.32537         12.0889         4.88899         4.88899 
        1.33151         12.0028         4.83454         4.83454 
        1.33765         11.9567         4.78095         4.78095 
        1.34378         11.8753         4.72828         4.72828 
        1.34992         11.7616         4.67636         4.67636 
        1.35606         11.6552         4.62511         4.62511 
         1.3622          11.578         4.57472         4.57472 
        1.36833          11.542          4.5252          4.5252 
        1.37445         11.4504         4.47644         4.47644 
        1.38059         11.3591         4.42824         4.42824 
        1.38675         11.2949         4.38064         4.38064 
        1.39288         11.1874         4.33393         4.33393 
        1.39901         11.1111         4.28792         4.28792 
        1.40515         11.0501         4.24247         4.24247 
         1.4113         10.9728          4.1977          4.1977 
        1.41742         10.9158         4.15374         4.15374 
        1.42355         10.8128         4.11034         4.11034 
         1.4297         10.7443         4.06742         4.06742 
        1.43585         10.6772         4.02513         4.02513 
        1.44198         10.6378          3.9836          3.9836 
        1.44809         10.5502         3.94273         3.94273 
        1.45423         10.4748         3.90229         3.90229 
        1.46036         10.4025         3.86249         3.86249 
        1.46649         10.3363         3.82323         3.82323 
        1.47263         10.2726         3.78448         3.78448 
        1.47877         10.1996         3.74628         3.74628 
        1.48491         10.1426         3.70855         3.70855 
        1.49104         10.0738         3.67142         3.67142 
        1.49718         10.0292         3.63477         3.63477 
        1.50333         9.97467         3.59856         3.59856 
        1.50947         9.89822         3.56291         3.56291 
         1.5156         9.84945          3.5278          3.5278 
        1.52172         9.76163         3.49316         3.49316 
        1.52787         9.74216         3.45892         3.45892 
          1.534         9.66962         3.42517         3.42517 
        1.54013         9.61603         3.39191         3.39191 
        1.54627          9.5287         3.35903         3.35903 
        1.55241         9.45341         3.32658         3.32658 
        1.55855         9.42615          3.2946          3.2946 
        1.56467          9.3806         3.26313         3.26313 
         1.5708         9.32321         3.23198         3.23198 
        1.57695         9.26671          3.2012          3.2012 
        1.58308         9.19708         3.17088         3.17088 
        1.58922         9.15191         3.14093         3.14093 
        1.59535         9.10221         3.11138         3.11138 
         1.6015         9.01054         3.08217         3.08217 
        1.60764         8.97262         3.05335         3.05335 
        1.61376         8.93659         3.02497         3.02497 
        1.61989         8.86131         2.99693         2.99693 
        1.62604         8.83562         2.96919         2.96919 
        1.63218         8.78761         2.94181         2.94181 
        1.63831         8.71817         2.91483         2.91483 
        1.64444         8.65961         2.88819         2.88819 
        1.65059         8.61105         2.86181         2.86181 
        1.65673         8.58208          2.8358          2.8358 
        1.66285          8.5054         2.81017         2.81017 
        1.66898          8.4887         2.78486         2.78486 
        1.67512         8.45817          2.7598          2.7598 
        1.68127         8.37813         2.73503         2.73503 
         1.6874         8.35979         2.71062         2.71062 
        1.69353         8.26206         2.68652         2.68652 
        1.69967          8.2392         2.66266         2.66266 
        1.70581         8.19784         2.63909         2.63909 
        1.71193         8.14916          2.6159          2.6159 
        1.71806         8.10921         2.59294         2.59294 
        1.72421         8.06072         2.57021         2.57021 
        1.73035         8.02595         2.54777         2.54777 
        1.73649         7.99465         2.52561         2.52561 
        1.74262         7.91945         2.50373         2.50373 
        1.74876         7.90091         2.48209         2.48209 
        1.75489         7.86106         2.46075         2.46075 
        1.76101          7.7904         2.43967         2.43967 
        1.76715         7.78437         2.41881         2.41881 
        1.77329         7.72324         2.39816         2.39816 
        1.77943         7.67201         2.37775         2.37775 
        1.78557         7.66999          2.3576          2.3576 
        1.79171         7.60606         2.33768         2.33768 
        1.79785         7.56957         2.31799         2.31799 
        1.80399          7.5292         2.29853         2.29853 
        1.81012         7.48961         2.27932         2.27932 
        1.81625          7.4481         2.26033         2.26033 
        1.82239         7.41033         2.24153         2.24153 
        1.82853         7.36126         2.22295         2.22295 
        1.83466         7.31517         2.20461         2.20461 
        1.84078         7.28451         2.18648         2.18648 
        1.84692         7.27492         2.16853         2.16853 
        1.85306         7.22811         2.15076         2.15076 
         1.8592         7.19917         2.13322         2.13322 
        1.86533          7.1401         2.11588         2.11588 
        1.87147         7.11336         2.09871         2.09871 
        1.87761         7.08818         2.08173         2.08173 
