# k  (h/Mpc)    P(k)  (Mpc/h)^3    P_linear(k)  (Mpc/h)^3     P_NL(k)  ShotnoiseSubtracted = false
     0.00783031         2139.04         2152.79         2144.87 
       0.013688         2661.94         2696.22         2684.59 
       0.019231         2750.91         2767.22         2752.94 
      0.0249154         2592.18         2589.63         2579.34 
      0.0312784         2257.62         2261.84         2256.73 
      0.0375637         1919.86          1927.9         1924.56 
      0.0433917         1671.23         1668.37          1666.4 
      0.0492413         1470.91         1473.46         1472.17 
      0.0555754         1333.02         1328.51         1326.94 
      0.0619321         1216.73         1229.63         1227.82 
       0.067871         1152.69         1156.13         1153.65 
      0.0738098         1081.53         1082.87         1078.49 
      0.0800417         997.159         995.926         991.889 
      0.0862327         897.503         898.954         896.962 
      0.0921407         802.446         803.318         802.332 
      0.0982031         715.665         711.459         713.127 
       0.104506         630.329         631.005         634.799 
       0.110769         571.309         570.234         573.202 
       0.116806         535.294         528.996          531.74 
       0.122832         503.039          500.83         503.728 
       0.129052          483.13         479.499          481.77 
       0.135211         465.866         460.149         462.102 
       0.141259         441.015         438.538         440.814 
       0.147318          411.86         412.446         415.965 
       0.153489         383.696         381.988         384.511 
       0.159709         354.906         349.926         354.026 
       0.165845         321.307         320.076         326.665 
       0.171974         302.415         294.508         301.122 
       0.178125         282.497         274.316         282.359 
       0.184229         265.028         259.552         267.415 
        0.19034         256.785         248.852         256.159 
       0.196428         247.967         240.511         246.408 
       0.202534         235.891         232.672         238.517 
       0.208729         229.943         223.844         229.323 
       0.214876         221.054         213.547         220.484 
       0.220989         205.934         201.931         209.481 
       0.227147         197.618         189.588         197.427 
        0.23329         186.708         177.622          186.76 
       0.239377         177.596          166.97         176.687 
       0.245482         167.646         157.993         167.006 
       0.251667         159.459         150.726         160.331 
       0.257832         156.047         145.024         154.225 
       0.263955         148.864         140.348         149.007 
       0.270079         144.082         136.058         144.375 
        0.27624         138.472         131.634         139.495 
       0.282372         134.041         126.821         135.059 
        0.28843         131.317         121.638         130.056 
       0.294538         125.058         116.147         124.989 
       0.300721         118.798         110.617         120.068 
        0.30691         115.386         105.413         115.113 
       0.313033         110.136         100.814         110.291 
       0.319153         107.613           96.85         106.571 
       0.325316         102.861         93.4507         103.315 
        0.33145         99.6165         90.5191         99.8227 
       0.337538         96.8309         87.8643         96.8525 
       0.343633         94.1626          85.282         94.3516 
       0.349808         91.1925         82.6195         91.8837 
       0.355968         88.3314         79.8546         89.6554 
       0.362074         86.3693         77.0397          86.658 
       0.368217         83.6708          74.199         83.3924 
       0.374374         81.4893         71.4461         80.9999 
       0.380519         77.8263         68.8744         78.2765 
       0.386598         75.5322         66.5504         76.0326 
       0.392688         73.1852          64.457         73.9858 
        0.39888         71.7595         62.5292         71.8025 
       0.405048         70.0474          60.762         69.9063 
       0.411186          68.241         59.0914         68.5838 
       0.417313         66.3459          57.454         66.5221 
       0.423458         64.5146         55.8172         65.0111 
       0.429607         63.3113         54.1741         63.2533 
       0.435692         62.0799         52.5538         61.7608 
       0.441815         59.7277          50.959         60.4962 
       0.447964         57.7863         49.4209         58.7132 
       0.454126         56.7188         47.9616         57.0787 
       0.460267         56.0661         46.6034         55.9396 
       0.466387         54.4552         45.3433         54.4344 
        0.47254         53.6346         44.1526         53.3263 
       0.478662         51.8696         43.0267         52.0871 
       0.484765         50.8103         41.9459         50.8178 
       0.490885         49.3903         40.8878         50.0351 
       0.497035         48.6302         39.8385           49.07 
       0.503198         47.4831         38.8039          47.742 
       0.509342         46.1719         37.7954         46.8514 
       0.515458         45.5269         36.8197         46.1299 
       0.521598         44.4055         35.8749         44.7609 
       0.527764         43.7806         34.9671         43.6315 
       0.533884         42.8146          34.111         42.7986 
           0.54         41.8736         33.2963          41.964 
       0.546137         40.6199          32.513         41.3026 
       0.552299         39.9287         31.7547          40.265 
       0.558452         39.0752         31.0214         39.4634 
       0.564573          38.695         30.3118         38.9533 
       0.570708         37.6162         29.6175         38.2021 
       0.576825         37.1339           28.94         37.4645 
       0.582926         36.4749          28.281          36.805 
       0.589034         35.7293         27.6402         36.2468 
       0.595184         35.2229         27.0168         35.3849 
       0.601379         34.2608         26.4123         34.9314 
       0.607522          33.707         25.8344         34.1417 
       0.613639         33.1708         25.2787         33.5617 
       0.619772         32.5742         24.7397          33.031 
       0.625918         31.9196         24.2161         32.5361 
       0.632068         31.6323         23.7075          31.872 
       0.638161         30.9427         23.2177         31.3517 
         0.6443         30.4708         22.7371         30.7691 
       0.650464         29.7066         22.2668         30.3665 
       0.656582         29.4969         21.8117         29.8846 
       0.662703         29.1069         21.3685         29.3216 
       0.668861         28.3421          20.935         28.9667 
       0.675024         27.9815         20.5139         28.3733 
       0.681124         27.7822           20.11         27.9364 
       0.687237         27.2038         19.7174         27.4516 
       0.693381         26.6472         19.3343         27.0203 
       0.699536         26.4875         18.9612         26.6979 
       0.705665         25.9693         18.5996         26.3687 
       0.711789         25.5042         18.2474         25.8371 
       0.717957         24.9765         17.9012         25.4993 
        0.72409         24.7538         17.5655         25.1792 
       0.730186          24.605         17.2402         24.7571 
       0.736317         24.0782         16.9212          24.387 
       0.742472         23.7752         16.6093         24.1453 
       0.748622         23.3714         16.3057         23.7181 
        0.75476         22.7936         16.0108         23.3903 
       0.760888         22.7096          15.724         23.1057 
       0.767043         22.2991         15.4433          22.828 
       0.773185         22.0517         15.1702         22.4979 
       0.779291         21.8071         14.9053         22.2355 
       0.785407         21.4372         14.6465         21.8979 
       0.791564         21.2789         14.3921         21.6209 
       0.797719         20.8003         14.1439         21.3241 
       0.803834         20.7074          13.903         21.0051 
       0.809972         20.3015         13.6668         20.8137 
       0.816124         20.0717         13.4355         20.4924 
       0.822261         19.8336         13.2103         20.2089 
       0.828378         19.6139         12.9909         19.9542 
       0.834502         19.3892         12.7763         19.7814 
       0.840667         19.1818         12.5653         19.4762 
       0.846816         18.7552         12.3596         19.2635 
       0.852925         18.6796           12.16         19.1391 
       0.859047         18.4431         11.9644         18.8179 
       0.865192         18.1726         11.7725         18.5837 
       0.871341         17.9323         11.5848         18.4173 
       0.877463         17.7288          11.402         18.1725 
       0.883569         17.6093         11.2237         17.9803 
       0.889708         17.3128         11.0483         17.7498 
       0.895864         17.0923         10.8762          17.523 
       0.902008         16.8814         10.7082         17.3616 
       0.908149         16.6597         10.5438         17.1743 
       0.914301         16.5685         10.3827         17.0469 
       0.920448         16.3051          10.225         16.7716 
       0.926574         16.1716         10.0712         16.5882 
       0.932687         15.9469         9.92092         16.3531 
       0.938823         15.7354         9.77317         16.2152 
       0.944975         15.6126          9.6281         16.0482 
       0.951105         15.4278         9.48652         15.8163 
       0.957225         15.3238         9.34805         15.7342 
       0.963368         15.0711         9.21188         15.5264 
       0.969511         14.9197         9.07845         15.3808 
       0.975621         14.7732         8.94839          15.203 
       0.981748         14.5749         8.82056         15.0739 
       0.987916         14.4746         8.69444         14.8916 
        0.99406         14.2994         8.57128         14.7534 
        1.00019         14.1847         8.45077         14.6231 
        1.00632         14.0491          8.3327         14.4784 
        1.01246         13.9065         8.21672         14.3885 
        1.01859         13.7255         8.10315         14.2041 
        1.02471         13.5686         7.99189         14.0211 
        1.03085         13.5093         7.88234         13.9095 
        1.03698         13.3709         7.77508         13.7893 
        1.04314         13.1947         7.66938         13.6314 
        1.04929         13.0209          7.5659         13.5272 
        1.05541         12.9569         7.46475          13.424 
        1.06154         12.8368         7.36521          13.263 
        1.06769         12.7186         7.26735         13.1355 
        1.07382         12.5273          7.1716         13.0334 
        1.07993         12.4232         7.07779         12.9107 
        1.08607         12.3525         6.98529         12.7836 
        1.09222         12.1884         6.89435         12.6783 
        1.09836         12.1302         6.80515         12.5356 
        1.10449          11.959         6.71764         12.4245 
        1.11063         11.9059         6.63158         12.3359 
        1.11677         11.8111         6.54706         12.2059 
         1.1229         11.6926         6.46417          12.119 
        1.12903         11.5909         6.38265         12.0448 
        1.13518         11.4384         6.30247         11.9178 
        1.14131         11.3659         6.22372         11.8043 
        1.14745         11.2003         6.14636         11.6871 
        1.15359         11.1065          6.0703         11.5969 
        1.15973         11.0146         5.99551         11.4968 
        1.16584         10.9222         5.92232         11.4345 
        1.17197          10.813         5.85025         11.3445 
        1.17811         10.7255         5.77916         11.2089 
        1.18424         10.6476         5.70947         11.1376 
        1.19038         10.5789         5.64073         11.0401 
        1.19652         10.4739         5.57315         10.9448 
        1.20267         10.3967         5.50668          10.852 
        1.20881          10.268         5.44132            10.8 
        1.21495         10.1956         5.37712         10.6982 
        1.22108         10.1396         5.31398         10.6182 
         1.2272         10.0437           5.252         10.5097 
        1.23334         9.98863         5.19087         10.4509 
        1.23949         9.87977         5.13058         10.3675 
        1.24562         9.79022         5.07141         10.2705 
        1.25174          9.7368         5.01327          10.204 
        1.25789         9.61103         4.95587         10.1175 
        1.26402         9.57679         4.89947         10.0292 
        1.27014         9.52028         4.84409          9.9652 
        1.27628          9.3878          4.7894         9.88603 
        1.28244         9.37104         4.73546         9.83266 
        1.28858         9.28218         4.68243         9.74393 
        1.29471         9.15466         4.63032          9.6765 
        1.30084         9.09357         4.57907         9.63339 
        1.30697         9.07587         4.52851         9.53579 
        1.31312         8.97528         4.47865         9.46917 
        1.31925         8.91645          4.4297         9.42523 
        1.32537         8.84767         4.38153         9.35812 
        1.33151         8.77622         4.33391         9.27762 
        1.33765         8.70494         4.28702         9.19874 
        1.34378         8.68593         4.24093         9.14505 
        1.34992         8.58575         4.19548         9.08515 
        1.35606          8.5138          4.1506         9.00688 
         1.3622         8.44411         4.10645         8.94089 
        1.36833         8.40437         4.06306         8.91468 
        1.37445         8.34259         4.02032         8.83491 
        1.38059         8.27713         3.97806         8.75833 
        1.38675         8.22091         3.93631         8.72136 
        1.39288         8.13835         3.89532         8.65749 
        1.39901         8.08454         3.85494         8.60146 
        1.40515         8.02637         3.81505         8.54341 
         1.4113         7.96511         3.77573         8.48484 
        1.41742         7.92905         3.73712         8.43035 
        1.42355         7.84865         3.69898         8.36941 
         1.4297           7.811         3.66126         8.32031 
        1.43585         7.76349         3.62408         8.27652 
        1.44198         7.70567         3.58756          8.2073 
        1.44809         7.65239         3.55161         8.16563 
        1.45423         7.58705         3.51603         8.11258 
        1.46036         7.54953         3.48099         8.05764 
        1.46649         7.49301         3.44643         8.01071 
        1.47263         7.45139         3.41231         7.96608 
        1.47877         7.39508         3.37866         7.91091 
        1.48491         7.35742         3.34542         7.85575 
        1.49104         7.28689         3.31269         7.81442 
        1.49718         7.26082         3.28038         7.76593 
        1.50333         7.20541         3.24845         7.71869 
        1.50947         7.14406         3.21702         7.67623 
         1.5156          7.1245         3.18604         7.63152 
        1.52172          7.0654         3.15548         7.57965 
        1.52787         7.02738         3.12525         7.52091 
          1.534         6.97585         3.09546         7.48114 
        1.54013         6.94482         3.06609         7.43586 
        1.54627         6.89183         3.03705         7.39313 
        1.55241         6.82867         3.00838         7.35682 
        1.55855         6.81371         2.98012         7.30451 
        1.56467         6.76632          2.9523         7.26812 
         1.5708         6.72247         2.92477         7.23813 
        1.57695         6.66712         2.89754         7.18893 
        1.58308         6.61663         2.87072         7.14625 
        1.58922         6.59779         2.84422         7.11766 
        1.59535         6.55372         2.81807         7.07333 
         1.6015         6.48887         2.79222         7.02391 
        1.60764         6.46248          2.7667         6.98521 
        1.61376         6.43674         2.74157         6.95437 
        1.61989         6.37236         2.71673         6.91937 
        1.62604         6.35342         2.69214         6.87567 
        1.63218         6.31843         2.66788         6.83846 
        1.63831         6.27604         2.64397         6.80645 
        1.64444         6.22369         2.62034         6.76168 
        1.65059         6.19003         2.59695         6.72232 
        1.65673          6.1709         2.57386         6.69005 
        1.66285         6.12948         2.55113         6.65763 
        1.66898         6.09405         2.52866         6.62082 
        1.67512         6.05365         2.50642         6.58608 
        1.68127         6.00571         2.48442         6.54792 
         1.6874         5.98432         2.46274         6.51405 
        1.69353         5.93685         2.44133         6.48876 
        1.69967         5.91701         2.42013         6.44555 
        1.70581          5.8695         2.39918         6.41078 
        1.71193          5.8533         2.37857         6.38772 
        1.71806         5.81244         2.35815         6.35299 
        1.72421         5.77232         2.33793         6.31945 
        1.73035          5.7454         2.31798         6.28421 
        1.73649         5.71487         2.29826          6.2482 
        1.74262         5.66587         2.27879         6.22258 
        1.74876         5.66338         2.25952         6.19231 
        1.75489         5.62042         2.24053         6.15405 
        1.76101         5.57553         2.22175         6.11739 
        1.76715         5.56595         2.20317         6.09445 
        1.77329         5.53208         2.18478          6.0671 
        1.77943         5.48114         2.16658         6.03354 
        1.78557          5.4792         2.14863         6.00247 
        1.79171          5.4445         2.13087         5.96989 
        1.79785         5.41849         2.11331         5.93868 
        1.80399         5.36594         2.09595          5.9139 
        1.81012         5.35371         2.07881         5.89245 
        1.81625         5.31518         2.06187         5.86657 
        1.82239          5.2927          2.0451         5.83668 
        1.82853         5.25624         2.02851         5.81002 
        1.83466         5.21624         2.01213         5.78652 
        1.84078         5.20151         1.99595         5.75899 
        1.84692         5.17308         1.97992         5.72099 
        1.85306         5.14508         1.96404         5.69144 
         1.8592         5.13062         1.94837         5.67211 
        1.86533         5.10195         1.93288          5.6475 
        1.87147         5.07177         1.91753         5.61639 
        1.87761         5.05277         1.90235         5.58822 
