# k  (h/Mpc)    P(k)  (Mpc/h)^3    P_linear(k)  (Mpc/h)^3     P_NL(k)  ShotnoiseSubtracted = false
     0.00783031         685.055         689.941         687.323 
       0.013688         856.109         864.345         860.807 
       0.019231         883.682         887.203         882.995 
      0.0249154         830.208         830.314         827.551 
      0.0312784         724.667         725.239         724.337 
      0.0375637          617.17         618.179         617.847 
      0.0433917         536.072         534.968         535.134 
      0.0492413         472.461         472.472         472.781 
      0.0555754         427.346         425.998         426.101 
      0.0619321         392.185         394.294         394.264 
       0.067871         370.342         370.726         370.418 
      0.0738098         347.084         347.236          346.62 
      0.0800417         319.713         319.356         318.778 
      0.0862327         288.077         288.262         287.958 
      0.0921407          257.39         257.595         257.512 
      0.0982031         228.857          228.14         228.416 
       0.104506         202.046         202.341         202.891 
       0.110769         182.818         182.854         183.324 
       0.116806         170.482         169.631         170.013 
       0.122832         160.655         160.599         160.955 
       0.129052         154.172         153.759         153.988 
       0.135211         148.237         147.554         147.708 
       0.141259         140.734         140.624         140.795 
       0.147318         131.827         132.258         132.577 
       0.153489         122.484         122.491         122.736 
       0.159709         112.628          112.21         112.655 
       0.165845         102.358         102.638         103.375 
       0.171974          95.305          94.439         95.1823 
       0.178125         88.7707         87.9641         88.8551 
       0.184229         83.6397         83.2296         84.0952 
        0.19034          80.687         79.7986         80.5852 
       0.196428         77.8228         77.1238         77.7321 
       0.202534         74.5826         74.6104         75.2004 
       0.208729         72.2487         71.7793         72.3354 
       0.214876         69.2699         68.4775         69.1974 
       0.220989          64.861         64.7526         65.5483 
       0.227147         61.6503         60.7947         61.6238 
        0.23329         57.9479         56.9577         57.9372 
       0.239377         54.6906         53.5419         54.5954 
       0.245482         51.7022         50.6632         51.6331 
       0.251667         49.1373         48.3328          49.365 
       0.257832         47.6773         46.5044         47.4873 
       0.263955          45.818         45.0051         45.9167 
       0.270079         44.3758         43.6293         44.4934 
        0.27624         42.7219         42.2106         43.0207 
       0.282372           41.23         40.6674         41.5324 
        0.28843         39.9633         39.0055         39.8987 
       0.294538         38.1202         37.2447         38.1797 
       0.300721         36.1651         35.4713         36.4746 
        0.30691         34.8071         33.8027          34.832 
       0.313033         33.2502         32.3277         33.3341 
       0.319153         32.2998         31.0567         32.0962 
       0.325316         30.7936         29.9666         31.0193 
        0.33145         29.8161         29.0266         30.0155 
       0.337538         29.0119         28.1753         29.1243 
       0.343633         28.2356         27.3472          28.284 
       0.349808         27.3032         26.4934         27.4581 
       0.355968         26.3609         25.6068         26.6611 
       0.362074         25.6326         24.7042         25.7195 
       0.368217         24.7065         23.7932         24.7464 
       0.374374         23.9984         22.9105         23.9229 
       0.380519         22.9669         22.0858         23.0712 
       0.386598          22.177         21.3406          22.345 
       0.392688         21.4546         20.6693         21.6695 
        0.39888         20.9404         20.0511         21.0349 
       0.405048          20.396         19.4844         20.4178 
       0.411186         19.8071         18.9487         19.9499 
       0.417313         19.2637         18.4237         19.3822 
       0.423458         18.6519         17.8988         18.8708 
       0.429607         18.2574         17.3719         18.3169 
       0.435692         17.7978         16.8523         17.8237 
       0.441815         17.1603         16.3409         17.3548 
       0.447964         16.5751         15.8477          16.829 
       0.454126         16.2265         15.3797         16.3472 
       0.460267         15.9113         14.9442         15.9344 
       0.466387         15.4314         14.5402         15.4895 
        0.47254         15.1067         14.1583         15.1152 
       0.478662         14.6763         13.7973         14.7345 
       0.484765         14.3264         13.4507         14.3803 
       0.490885         13.9189         13.1114         14.0904 
       0.497035         13.5572         12.7749         13.7629 
       0.503198          13.275         12.4432         13.3694 
       0.509342         12.8769         12.1198         13.0639 
       0.515458         12.6403         11.8069         12.7871 
       0.521598         12.3326         11.5039         12.4208 
       0.527764         12.1077         11.2128         12.1171 
       0.533884         11.7226         10.9383         11.8407 
           0.54         11.4888         10.6771         11.5673 
       0.546137         11.1569         10.4259         11.3345 
       0.552299         10.9437         10.1827         11.0408 
       0.558452          10.695         9.94758         10.8106 
       0.564573         10.4988         9.72003          10.629 
       0.570708         10.2582         9.49738         10.3902 
       0.576825         10.0501         9.28015         10.1587 
       0.582926         9.81412          9.0688         9.95702 
       0.589034         9.62807         8.86332         9.76967 
       0.595184         9.46686         8.66342         9.50299 
       0.601379         9.20701         8.46957         9.35816 
       0.607522         9.02229         8.28428         9.15268 
       0.613639         8.81026         8.10608         8.96175 
       0.619772         8.66971         7.93322         8.80685 
       0.625918          8.4797         7.76532         8.61512 
       0.632068          8.3488         7.60224         8.43715 
       0.638161         8.16495         7.44516          8.2762 
         0.6443         7.99971         7.29106         8.10763 
       0.650464         7.81841         7.14025         7.98262 
       0.656582         7.72583         6.99431         7.82424 
       0.662703          7.5849         6.85218         7.66934 
       0.668861         7.38031         6.71319         7.54737 
       0.675024         7.25325         6.57816         7.38929 
       0.681124         7.21146         6.44863         7.25121 
       0.687237         7.03622         6.32274         7.10025 
       0.693381         6.85335          6.1999         6.96661 
       0.699536         6.78818         6.08026         6.85052 
       0.705665         6.65597          5.9643         6.76579 
       0.711789         6.50635         5.85135         6.63489 
       0.717957         6.37705         5.74035         6.50379 
        0.72409         6.29423          5.6327         6.40153 
       0.730186         6.22557         5.52838         6.27902 
       0.736317         6.07822          5.4261         6.16845 
       0.742472         5.99653         5.32606         6.09563 
       0.748622         5.89652         5.22873         5.98945 
        0.75476         5.74918         5.13416         5.87285 
       0.760888         5.69009         5.04217         5.78356 
       0.767043         5.54721         4.95216         5.69871 
       0.773185         5.47473         4.86459         5.61221 
       0.779291         5.43604         4.77967         5.52243 
       0.785407         5.31878         4.69667         5.42628 
       0.791564          5.2366          4.6151         5.34349 
       0.797719         5.14097         4.53549         5.24393 
       0.803834          5.0737         4.45824          5.1677 
       0.809972         4.98053          4.3825         5.10959 
       0.816124         4.90644         4.30835         5.01312 
       0.822261         4.83734         4.23611         4.93505 
       0.828378         4.75561         4.16575         4.86303 
       0.834502         4.68648         4.09695         4.78545 
       0.840667          4.6315         4.02928          4.7168 
       0.846816         4.54101         3.96334         4.65976 
       0.852925          4.4743         3.89933         4.58903 
       0.859047         4.40892         3.83661         4.53097 
       0.865192         4.34135         3.77508         4.45862 
       0.871341          4.2785         3.71487         4.39717 
       0.877463         4.21084         3.65627         4.32612 
       0.883569         4.15579         3.59909         4.27311 
       0.889708          4.0984         3.54284         4.21335 
       0.895864          4.0401         3.48766         4.14853 
       0.902008         3.96881         3.43378         4.09571 
       0.908149         3.91862         3.38107         4.03775 
       0.914301         3.87262         3.32939         3.98427 
       0.920448         3.81967         3.27884          3.9206 
       0.926574          3.7841         3.22952         3.87771 
       0.932687         3.71818         3.18132         3.80536 
       0.938823         3.64968         3.13394         3.77651 
       0.944975         3.61949         3.08743         3.71337 
       0.951105         3.54795         3.04203         3.66349 
       0.957225         3.51688         2.99762         3.62769 
       0.963368         3.47551         2.95396         3.57373 
       0.969511         3.43057         2.91117         3.53072 
       0.975621         3.37525         2.86946         3.47109 
       0.981748         3.31292         2.82847          3.4292 
       0.987916          3.2802         2.78803         3.39839 
        0.99406         3.25185         2.74854         3.35676 
        1.00019         3.20892         2.70989         3.31886 
        1.00632         3.17506         2.67203         3.27009 
        1.01246         3.12584         2.63484          3.2306 
        1.01859         3.08603         2.59842         3.18837 
        1.02471         3.03445         2.56274         3.14451 
        1.03085         3.00745         2.52761         3.10437 
        1.03698         2.97132         2.49322         3.07012 
        1.04314         2.93655         2.45933         3.03341 
        1.04929         2.89737         2.42614         2.99839 
        1.05541         2.85511         2.39371         2.96742 
        1.06154         2.83048         2.36179         2.93243 
        1.06769         2.80612         2.33041         2.90056 
        1.07382         2.75812          2.2997         2.86379 
        1.07993         2.72174         2.26962         2.82812 
        1.08607         2.69985         2.23996         2.79787 
        1.09222         2.65772          2.2108         2.76049 
        1.09836         2.64591          2.1822         2.73041 
        1.10449         2.58968         2.15413         2.70284 
        1.11063         2.56755         2.12654         2.66593 
        1.11677         2.54139         2.09943         2.64095 
         1.1229         2.50605         2.07285         2.61486 
        1.12903         2.48761         2.04671          2.5845 
        1.13518         2.44862           2.021         2.55675 
        1.14131         2.42217         1.99575          2.5247 
        1.14745         2.39394         1.97094         2.49244 
        1.15359         2.36841         1.94655         2.47378 
        1.15973         2.34065         1.92257         2.44554 
        1.16584           2.316          1.8991         2.41914 
        1.17197         2.28614         1.87599         2.39304 
        1.17811         2.26059         1.85319         2.36842 
        1.18424         2.23563         1.83084         2.33945 
        1.19038         2.21142          1.8088         2.31577 
        1.19652         2.19288         1.78713         2.29645 
        1.20267         2.17268         1.76582          2.2638 
        1.20881         2.14226         1.74486         2.24364 
        1.21495         2.12216         1.72427         2.22722 
        1.22108         2.10058         1.70402         2.20132 
         1.2272         2.06894         1.68415         2.17321 
        1.23334         2.05735         1.66455         2.15593 
        1.23949         2.03294         1.64521         2.13974 
        1.24562         2.01252         1.62624         2.11666 
        1.25174         1.99512          1.6076         2.08923 
        1.25789         1.96588         1.58919         2.06803 
        1.26402         1.94599          1.5711          2.0459 
        1.27014         1.92414         1.55335         2.03059 
        1.27628         1.90712         1.53581         2.01137 
        1.28244         1.88951         1.51851         1.98825 
        1.28858         1.86962          1.5015         1.96721 
        1.29471         1.84491          1.4848         1.94823 
        1.30084         1.82975         1.46836         1.93581 
        1.30697           1.816         1.45215         1.91553 
        1.31312         1.79626         1.43616         1.89626 
        1.31925         1.77865         1.42046          1.8824 
        1.32537         1.76229         1.40502         1.86329 
        1.33151         1.74141         1.38975         1.84527 
        1.33765         1.72629         1.37471         1.82804 
        1.34378         1.70973         1.35993         1.81338 
        1.34992         1.69561         1.34536         1.79588 
        1.35606         1.67757         1.33096         1.77378 
         1.3622          1.6628         1.31681         1.75952 
        1.36833         1.64338         1.30289         1.74877 
        1.37445         1.62678         1.28919         1.73199 
        1.38059         1.61207         1.27564         1.71564 
        1.38675         1.59794         1.26225         1.69632 
        1.39288         1.58625         1.24911         1.68495 
        1.39901         1.56691         1.23616         1.67027 
        1.40515         1.55167         1.22336         1.65265 
         1.4113         1.54324         1.21076         1.64009 
        1.41742         1.52308         1.19838         1.62991 
        1.42355         1.50778         1.18615         1.60668 
         1.4297         1.49877         1.17405         1.60173 
        1.43585         1.48282         1.16213         1.58832 
        1.44198         1.46999         1.15042         1.56692 
        1.44809         1.45754         1.13889          1.5594 
        1.45423         1.44443         1.12748         1.54085 
        1.46036         1.43229         1.11624         1.52879 
        1.46649         1.41329         1.10516         1.51977 
        1.47263         1.40634         1.09422         1.50615 
        1.47877         1.39791         1.08343         1.49053 
        1.48491         1.37679         1.07277         1.48098 
        1.49104         1.36957         1.06228          1.4661 
        1.49718         1.35487         1.05192         1.45651 
        1.50333         1.34413         1.04168         1.44261 
        1.50947         1.33305         1.03159         1.42936 
         1.5156         1.32081         1.02166         1.41974 
        1.52172         1.31088         1.01186         1.40895 
        1.52787         1.29861         1.00217         1.39479 
          1.534         1.28945        0.992616         1.38459 
        1.54013         1.27648        0.983197         1.37358 
        1.54627         1.26561        0.973884         1.36113 
        1.55241         1.25295        0.964691         1.35058 
        1.55855         1.24418         0.95563         1.34035 
        1.56467         1.23424         0.94671         1.33068 
         1.5708         1.22318        0.937879         1.31787 
        1.57695         1.21093        0.929148         1.30842 
        1.58308         1.19974        0.920549         1.30146 
        1.58922         1.19454        0.912053         1.28952 
        1.59535         1.17999        0.903667         1.27903 
         1.6015         1.17025        0.895375         1.26858 
        1.60764         1.16294        0.887192         1.25967 
        1.61376         1.15122        0.879133         1.25233 
        1.61989         1.14343        0.871169         1.24191 
        1.62604         1.13104        0.863285         1.23262 
        1.63218         1.12648        0.855504         1.22395 
        1.63831          1.1159        0.847836         1.21406 
        1.64444         1.10622         0.84026          1.2037 
        1.65059         1.09948        0.832758         1.19454 
        1.65673         1.08739        0.825357         1.18659 
        1.66285         1.07925        0.818066         1.17764 
        1.66898          1.0725         0.81086         1.16731 
        1.67512         1.06016        0.803728         1.15973 
        1.68127         1.05196        0.796675         1.15296 
         1.6874         1.04803        0.789723         1.14485 
        1.69353         1.03667        0.782858         1.13502 
        1.69967         1.02961        0.776058         1.12606 
        1.70581         1.02395        0.769342          1.1195 
        1.71193         1.01183        0.762732         1.11287 
        1.71806         1.00552        0.756184         1.10273 
        1.72421        0.998793        0.749702         1.09475 
        1.73035        0.986981        0.743302         1.08742 
        1.73649        0.985081        0.736979         1.07895 
        1.74262        0.974602        0.730734         1.07108 
        1.74876        0.967789        0.724558          1.0651 
        1.75489        0.960789        0.718466         1.05822 
        1.76101        0.951033        0.712446         1.04931 
        1.76715        0.945669        0.706487         1.04187 
        1.77329        0.938731        0.700588         1.03503 
        1.77943        0.931931        0.694755         1.02773 
        1.78557        0.926776        0.688997         1.02027 
        1.79171        0.919719        0.683303         1.01325 
        1.79785        0.911756        0.677672         1.00659 
        1.80399        0.903952        0.672106        0.999588 
        1.81012        0.897429         0.66661        0.991448 
        1.81625        0.890106        0.661177        0.984716 
        1.82239        0.884644        0.655798         0.98018 
        1.82853        0.878106         0.65048        0.975393 
        1.83466        0.870614        0.645227        0.968689 
        1.84078        0.864467        0.640038         0.96089 
        1.84692        0.858964        0.634897        0.954162 
        1.85306        0.854425        0.629807        0.947278 
         1.8592         0.84574        0.624781        0.941017 
        1.86533        0.841229        0.619812        0.935879 
        1.87147        0.832693        0.614892        0.928871 
        1.87761        0.828137        0.610023        0.922611 
