# k  (h/Mpc)    P(k)  (Mpc/h)^3    P_linear(k)  (Mpc/h)^3     P_NL(k)  ShotnoiseSubtracted = false
     0.00783031         541.938         545.861         543.772 
       0.013688          677.67         683.881         681.091 
       0.019231         699.374          701.98          698.68 
      0.0249154         656.763         656.974         654.826 
      0.0312784         573.446         573.839         573.176 
      0.0375637         488.489         489.131         488.924 
      0.0433917          424.16         423.291         423.482 
      0.0492413         373.907         373.842         374.137 
      0.0555754         338.096         337.071         337.194 
      0.0619321         310.527         311.985         311.997 
       0.067871         293.083         293.337         293.125 
      0.0738098         274.638          274.75         274.319 
      0.0800417         252.939         252.691         252.283 
      0.0862327         227.955         228.087         227.868 
      0.0921407         203.667         203.822         203.768 
      0.0982031         181.015         180.516         180.708 
       0.104506          159.88         160.103         160.478 
       0.110769         144.636         144.684         145.011 
       0.116806         134.786         134.221         134.478 
       0.122832         127.074         127.074         127.304 
       0.129052         121.919         121.662         121.798 
       0.135211         117.185         116.752          116.83 
       0.141259         111.299         111.269         111.354 
       0.147318         104.303         104.649         104.829 
       0.153489         96.8748          96.921         97.0634 
       0.159709         89.0228          88.786         89.0621 
       0.165845         80.9596         81.2124         81.6779 
       0.171974         75.2686         74.7251         75.1967 
       0.178125         70.0937         69.6018          70.165 
       0.184229         66.0767         65.8556         66.4001 
        0.19034         63.7026         63.1408         63.6313 
       0.196428         61.4402         61.0244         61.3977 
       0.202534         58.9454         59.0356         59.3944 
       0.208729         57.0512         56.7955         57.1324 
       0.214876         54.6715          54.183         54.6238 
       0.220989         51.2418         51.2356          51.727 
       0.227147         48.6353          48.104         48.6185 
        0.23329         45.6876         45.0679         45.6789 
       0.239377         43.0842         42.3652         43.0241 
       0.245482         40.7389         40.0874         40.6934 
       0.251667         38.7231         38.2435         38.8877 
       0.257832          37.527         36.7967         37.4086 
       0.263955         36.1003         35.6104         36.1755 
       0.270079         34.9668         34.5218         35.0555 
        0.27624         33.6771         33.3992         33.8985 
       0.282372         32.4908         32.1781         32.7132 
        0.28843         31.4468         30.8632         31.4172 
       0.294538         30.0009           29.47         30.0506 
       0.300721         28.4674         28.0667         28.6908 
        0.30691         27.3627         26.7464         27.3872 
       0.313033         26.1418         25.5793          26.206 
       0.319153         25.3663         24.5737         25.2213 
       0.325316         24.1969         23.7112         24.3667 
        0.33145         23.4314         22.9673         23.5822 
       0.337538         22.7963         22.2937         22.8829 
       0.343633         22.1832         21.6385         22.2182 
       0.349808         21.4502          20.963         21.5608 
       0.355968         20.7077         20.2614         20.9183 
       0.362074         20.1138         19.5472         20.1782 
       0.368217         19.3806         18.8264         19.4171 
       0.374374         18.8105          18.128         18.7576 
       0.380519         18.0131         17.4755         18.0874 
       0.386598         17.3888         16.8858         17.5107 
       0.392688         16.8206         16.3546         16.9758 
        0.39888         16.4041         15.8655         16.4775 
       0.405048         15.9715         15.4171         15.9945 
       0.411186         15.5103         14.9932         15.6151 
       0.417313         15.0871         14.5778         15.1737 
       0.423458         14.6054         14.1625         14.7664 
       0.429607         14.2848         13.7456         14.3316 
       0.435692          13.912         13.3344         13.9382 
       0.441815          13.426         12.9298          13.561 
       0.447964         12.9683         12.5395           13.15 
       0.454126         12.6849         12.1693         12.7713 
       0.460267         12.4218         11.8246         12.4408 
       0.466387         12.0505         11.5049         12.0943 
        0.47254         11.7862         11.2028         11.7965 
       0.478662         11.4564         10.9171         11.4978 
       0.484765         11.1814         10.6429           11.22 
       0.490885         10.8661         10.3744         10.9843 
       0.497035         10.5736         10.1082         10.7238 
       0.503198         10.3525          9.8457         10.4199 
       0.509342         10.0423         9.58979         10.1755 
       0.515458         9.84882         9.34223         9.95128 
       0.521598         9.60815         9.10251          9.6705 
       0.527764         9.42576         8.87219         9.43364 
       0.533884         9.12477         8.65497         9.21497 
           0.54         8.94005         8.44826         8.99978 
       0.546137         8.68748         8.24949         8.81288 
       0.552299         8.51764          8.0571         8.58645 
       0.558452         8.32376         7.87104         8.40492 
       0.564573         8.16265           7.691         8.25638 
       0.570708         7.97738         7.51483         8.06898 
       0.576825         7.80996         7.34294         7.88719 
       0.582926         7.62284         7.17571         7.72672 
       0.589034         7.48066         7.01313         7.57698 
       0.595184         7.34863         6.85495         7.37292 
       0.601379         7.14979         6.70157         7.25321 
       0.607522         7.00167         6.55496         7.09424 
       0.613639         6.83425         6.41396         6.94464 
       0.619772         6.72505         6.27718         6.82039 
       0.625918         6.57855         6.14433         6.67025 
       0.632068         6.46871         6.01529         6.53175 
       0.638161         6.32679           5.891         6.40553 
         0.6443          6.1967         5.76907         6.27387 
       0.650464         6.06129         5.64974         6.17213 
       0.656582         5.98186         5.53427          6.0483 
       0.662703         5.86748         5.42181         5.92741 
       0.668861         5.71175         5.31183         5.82914 
       0.675024         5.61253         5.20499         5.70826 
       0.681124          5.5745         5.10249         5.59922 
       0.687237         5.43778         5.00288         5.48259 
       0.693381         5.29804         4.90569         5.37726 
       0.699536         5.24271         4.81102          5.2857 
       0.705665         5.14136         4.71927         5.21626 
       0.711789         5.02377         4.62989         5.11588 
       0.717957         4.92754         4.54207         5.01392 
        0.72409         4.85649         4.45689         4.93192 
       0.730186         4.79985         4.37434         4.83707 
       0.736317          4.6873         4.29342          4.7505 
       0.742472         4.62298         4.21426         4.69019 
       0.748622         4.54567         4.13724          4.6092 
        0.75476         4.43559         4.06241         4.51827 
       0.760888         4.38586         3.98963         4.44724 
       0.767043         4.27135         3.91841         4.37955 
       0.773185         4.21611         3.84912         4.31199 
       0.779291         4.18302         3.78193         4.24123 
       0.785407         4.09344         3.71625         4.16701 
       0.791564         4.02753         3.65171         4.10166 
       0.797719          3.9561         3.58872         4.02468 
       0.803834          3.8986         3.52759         3.96547 
       0.809972         3.82936         3.46766         3.91721 
       0.816124         3.76999         3.40899         3.84338 
       0.822261         3.71632         3.35183         3.78221 
       0.828378         3.65155         3.29616         3.72565 
       0.834502         3.59676         3.24172         3.66434 
       0.840667         3.55293         3.18817         3.61169 
       0.846816         3.48615         3.13601         3.56746 
       0.852925         3.43042         3.08535         3.51004 
       0.859047         3.37976         3.03572         3.46595 
       0.865192         3.32784         2.98704         3.40917 
       0.871341         3.28067          2.9394         3.35952 
       0.877463         3.22544         2.89303         3.30527 
       0.883569         3.18129         2.84779         3.26382 
       0.889708         3.13938         2.80328         3.21702 
       0.895864         3.09361         2.75962           3.167 
       0.902008         3.03724         2.71699         3.12459 
       0.908149         2.99975         2.67528         3.08036 
       0.914301         2.96294         2.63439         3.03644 
       0.920448         2.92222         2.59439         2.98912 
       0.926574          2.8927         2.55536         2.95435 
       0.932687         2.84344         2.51723         2.90077 
       0.938823         2.78979         2.47974         2.87681 
       0.944975         2.76498         2.44293         2.82681 
       0.951105          2.7097         2.40701         2.78898 
       0.957225         2.68306         2.37187         2.75964 
       0.963368         2.65258         2.33733         2.71805 
       0.969511         2.61847         2.30347         2.68407 
       0.975621         2.57438         2.27047         2.63846 
       0.981748         2.52665         2.23804         2.60579 
       0.987916         2.50058         2.20604         2.58182 
        0.99406         2.47777         2.17479         2.54962 
        1.00019         2.44371         2.14421         2.51875 
        1.00632         2.41859         2.11425         2.48106 
        1.01246         2.38094         2.08482          2.4493 
        1.01859         2.35044         2.05601         2.41857 
        1.02471         2.31037         2.02778         2.38608 
        1.03085         2.28629         1.99998         2.35305 
        1.03698         2.25985         1.97277         2.32518 
        1.04314         2.23252         1.94595         2.29754 
        1.04929         2.20523         1.91969         2.27012 
        1.05541         2.16969         1.89403         2.24604 
        1.06154         2.15085         1.86877         2.21885 
        1.06769         2.13003         1.84394         2.19313 
        1.07382         2.09543         1.81965         2.16495 
        1.07993         2.06781         1.79584         2.13778 
        1.08607         2.04919         1.77237         2.11464 
        1.09222         2.01709          1.7493         2.08553 
        1.09836         2.00533         1.72667         2.06302 
        1.10449         1.96551         1.70446         2.04101 
        1.11063         1.94589         1.68263         2.01214 
        1.11677          1.9264         1.66118         1.99286 
         1.1229         1.89752         1.64015         1.97194 
        1.12903         1.88369         1.61947         1.94799 
        1.13518         1.85464         1.59912         1.92662 
        1.14131         1.83496         1.57914         1.90313 
        1.14745         1.81457         1.55951         1.87795 
        1.15359         1.79326         1.54022         1.86259 
        1.15973         1.77268         1.52124         1.84151 
        1.16584         1.75191         1.50267         1.81973 
        1.17197         1.72933         1.48438         1.80041 
        1.17811         1.70963         1.46634         1.78194 
        1.18424         1.69047         1.44866         1.75907 
        1.19038         1.67076         1.43122         1.74077 
        1.19652          1.6572         1.41407         1.72509 
        1.20267         1.64174         1.39721         1.70051 
        1.20881         1.61692         1.38062         1.68478 
        1.21495         1.60214         1.36434         1.67237 
        1.22108         1.58553         1.34831         1.65156 
         1.2272         1.56141         1.33259         1.63052 
        1.23334          1.5506         1.31708         1.61672 
        1.23949         1.53377         1.30178         1.60369 
        1.24562          1.5172         1.28677          1.5859 
        1.25174         1.50303         1.27201         1.56551 
        1.25789         1.48141         1.25745         1.54918 
        1.26402         1.46611         1.24314          1.5327 
        1.27014         1.44821         1.22909         1.51959 
        1.27628         1.43666         1.21521         1.50407 
        1.28244         1.42237         1.20153         1.48706 
        1.28858         1.40568         1.18807         1.47053 
        1.29471         1.38831         1.17485         1.45644 
        1.30084         1.37683         1.16184         1.44678 
        1.30697         1.36629         1.14902         1.43119 
        1.31312         1.35051         1.13637         1.41633 
        1.31925         1.33705         1.12394         1.40529 
        1.32537         1.32409         1.11172         1.39063 
        1.33151         1.30852         1.09964         1.37684 
        1.33765         1.29645         1.08774          1.3637 
        1.34378         1.28257         1.07605         1.35196 
        1.34992         1.27307         1.06452         1.33883 
        1.35606         1.25835         1.05313         1.32213 
         1.3622         1.24707         1.04193           1.311 
        1.36833         1.23345         1.03092         1.30188 
        1.37445         1.22084         1.02007         1.28939 
        1.38059         1.20925         1.00935         1.27673 
        1.38675         1.19806        0.998758         1.26249 
        1.39288         1.18777        0.988359         1.25275 
        1.39901         1.17465        0.978113         1.24168 
        1.40515         1.16234         0.96799         1.22825 
         1.4113         1.15636        0.958015         1.21848 
        1.41742         1.14101        0.948218           1.211 
        1.42355         1.12827         0.93854          1.1934 
         1.4297         1.12179        0.928969         1.18899 
        1.43585         1.10903        0.919536         1.17801 
        1.44198          1.0997        0.910269         1.16201 
        1.44809         1.08916        0.901149         1.15656 
        1.45423         1.07967         0.89212         1.14203 
        1.46036         1.07004        0.883231         1.13302 
        1.46649         1.05677        0.874461         1.12613 
        1.47263         1.04956        0.865803         1.11537 
        1.47877          1.0443        0.857266         1.10379 
        1.48491         1.02754        0.848832          1.0966 
        1.49104         1.02296        0.840528         1.08492 
        1.49718         1.01044         0.83233         1.07801 
        1.50333         1.00315        0.824229         1.06627 
        1.50947        0.994861        0.816252         1.05624 
         1.5156        0.985171        0.808393         1.04933 
        1.52172        0.977624        0.800637          1.0402 
        1.52787        0.967459        0.792969         1.03018 
          1.534        0.961168         0.78541         1.02263 
        1.54013        0.951394        0.777957          1.0141 
        1.54627        0.942771        0.770588         1.00463 
        1.55241        0.933429        0.763314        0.996366 
        1.55855        0.926337        0.756144        0.988649 
        1.56467        0.918619        0.749087        0.981143 
         1.5708          0.9102        0.742099         0.97138 
        1.57695        0.901025        0.735191        0.963907 
        1.58308        0.892356        0.728387        0.958336 
        1.58922        0.888057        0.721664        0.949573 
        1.59535        0.877458        0.715029        0.941315 
         1.6015        0.870002        0.708468        0.933182 
        1.60764        0.863946        0.701993        0.926516 
        1.61376        0.855601        0.695616        0.920941 
        1.61989        0.849492        0.689314         0.91312 
        1.62604        0.840049        0.683076        0.905883 
        1.63218        0.836252        0.676919        0.899239 
        1.63831        0.827699        0.670853        0.891842 
        1.64444        0.821033        0.664858        0.883787 
        1.65059        0.815055        0.658922        0.876756 
        1.65673        0.806736        0.653066        0.870723 
        1.66285         0.80063        0.647297        0.864035 
        1.66898        0.795204        0.641595        0.856257 
        1.67512        0.785799        0.635952          0.8502 
        1.68127        0.779377        0.630371        0.844714 
         1.6874        0.776006         0.62487        0.838564 
        1.69353        0.767981        0.619438        0.831483 
        1.69967        0.762639        0.614058         0.82466 
        1.70581        0.757738        0.608744         0.81939 
        1.71193        0.750017        0.603513        0.814182 
        1.71806        0.744596        0.598333        0.806663 
        1.72421        0.738719        0.593203        0.800827 
        1.73035        0.730035         0.58814        0.795049 
        1.73649        0.728767        0.583136        0.788209 
        1.74262        0.720233        0.578195         0.78247 
        1.74876        0.715711        0.573308        0.778011 
        1.75489        0.710375        0.568488        0.772768 
        1.76101        0.703016        0.563725         0.76619 
        1.76715        0.698583        0.559009        0.760713 
        1.77329        0.693582        0.554342        0.755591 
        1.77943        0.688075        0.549727        0.749958 
        1.78557        0.684552         0.54517        0.744013 
        1.79171        0.678916        0.540665        0.738361 
        1.79785        0.672799        0.536209        0.733288 
        1.80399        0.666444        0.531805        0.728306 
        1.81012        0.662144        0.527456        0.721895 
        1.81625        0.657301        0.523158        0.716708 
        1.82239          0.6527        0.518901        0.713573 
        1.82853         0.64745        0.514694        0.709745 
        1.83466        0.642076        0.510538        0.704347 
        1.84078        0.636901        0.506432        0.698429 
        1.84692        0.633024        0.502364        0.693666 
        1.85306        0.629251        0.498336        0.688487 
         1.8592        0.623111        0.494359        0.683471 
        1.86533        0.619687        0.490428        0.679516 
        1.87147        0.612827        0.486535        0.674354 
        1.87761        0.609365        0.482682        0.669733 
