# k  (h/Mpc)    P(k)  (Mpc/h)^3    P_linear(k)  (Mpc/h)^3     P_NL(k)  ShotnoiseSubtracted = false
     0.00783031         13643.5           13705         13648.2 
       0.013688         16723.2         17154.9         17047.5 
       0.019231         17338.1         17602.4         17455.1 
      0.0249154         16488.2         16470.5         16315.7 
      0.0312784         14226.3         14384.3         14227.6 
      0.0375637         12035.9           12260         12120.8 
      0.0433917           10538         10609.1         10466.1 
      0.0492413         9240.17         9369.44         9238.36 
      0.0555754         8394.84          8447.6         8331.39 
      0.0619321         7535.78         7818.74         7704.74 
       0.067871         7184.16         7351.26         7242.39 
      0.0738098         6781.08         6885.39          6717.5 
      0.0800417         6247.35          6332.5         6177.53 
      0.0862327         5616.86         5715.88         5627.76 
      0.0921407         5059.17         5107.76         5040.99 
      0.0982031         4567.29         4523.68          4539.1 
       0.104506         4020.84         4012.11         4095.78 
       0.110769         3676.79          3625.7         3688.27 
       0.116806         3484.24         3363.49          3424.9 
       0.122832         3272.01         3184.39         3252.33 
       0.129052          3114.3         3048.76         3104.82 
       0.135211          3041.9         2925.72         2968.81 
       0.141259         2845.37         2788.31         2848.66 
       0.147318          2652.5         2622.41         2709.64 
       0.153489          2493.8         2428.75            2492 
       0.159709          2372.5         2224.89         2335.63 
       0.165845         2150.95          2035.1         2212.93 
       0.171974         2074.71         1872.53         2063.67 
       0.178125         1985.04         1744.14         1977.06 
       0.184229         1828.31         1650.27         1869.56 
        0.19034          1799.8         1582.23         1792.01 
       0.196428         1750.82          1529.2         1715.69 
       0.202534         1648.95         1479.36         1664.61 
       0.208729         1623.26         1423.23         1587.73 
       0.214876         1554.46         1357.76         1553.32 
       0.220989         1469.94          1283.9         1500.94 
       0.227147         1427.41         1205.43         1442.49 
        0.23329         1367.08         1129.34         1394.19 
       0.239377         1350.43         1061.62          1333.6 
       0.245482         1281.47         1004.54         1268.37 
       0.251667         1232.99         958.331         1233.35 
       0.257832         1213.85         922.077          1188.1 
       0.263955         1157.49          892.35         1150.82 
       0.270079         1125.63         865.071            1119 
        0.27624         1079.55          836.94         1085.94 
       0.282372          1064.5         806.341         1062.86 
        0.28843         1049.11         773.389         1037.13 
       0.294538         997.958         738.478         1009.16 
       0.300721         975.677         703.313         979.348 
        0.30691         953.702         670.229         960.988 
       0.313033         913.539         640.983         927.317 
       0.319153         901.585         615.782         900.039 
       0.325316         889.668         594.169         881.729 
        0.33145         869.945         575.529         849.492 
       0.337538          840.09          558.65         833.442 
       0.343633         819.422         542.231         824.855 
       0.349808         802.831         525.303         810.733 
       0.355968         787.319         507.723         796.718 
       0.362074         760.977         489.826         780.376 
       0.368217         758.669         471.764         758.717 
       0.374374         746.512         454.261           743.5 
       0.380519         718.493          437.91         726.394 
       0.386598         713.154         423.133         717.184 
       0.392688         695.462         409.824         697.315 
        0.39888         679.258         397.566         686.427 
       0.405048         665.956          386.33         676.142 
       0.411186         664.277         375.708          660.64 
       0.417313         659.011         365.298         649.901 
       0.423458         639.333         354.891          640.38 
       0.429607         621.411         344.444         628.224 
       0.435692         614.452         334.141         615.485 
       0.441815         603.192         324.002         611.452 
       0.447964         593.391         314.222         601.438 
       0.454126          586.32         304.944         585.025 
       0.460267          577.34         296.308         582.713 
       0.466387         567.471         288.297         571.629 
        0.47254          558.67         280.726         563.784 
       0.478662         549.135         273.568          553.65 
       0.484765         542.954         266.696         545.104 
       0.490885         537.242         259.968         536.598 
       0.497035         526.018         253.296         531.063 
       0.503198         525.484         246.719         524.111 
       0.509342         514.868         240.306         516.768 
       0.515458         504.907         234.103         512.778 
       0.521598         500.707         228.095         505.186 
       0.527764         490.542         222.324         499.499 
       0.533884         486.633         216.881         493.074 
           0.54         481.516         211.701         485.805 
       0.546137         473.085          206.72          479.89 
       0.552299         471.474         201.899         473.328 
       0.558452         464.128         197.237         469.078 
       0.564573         460.158         192.725         465.323 
       0.570708         454.819          188.31         460.645 
       0.576825         446.018         184.003         452.481 
       0.582926         444.332         179.813         448.346 
       0.589034         437.134         175.739         441.984 
       0.595184         433.461         171.775         436.836 
       0.601379         426.653         167.931         432.772 
       0.607522         419.033         164.257          427.28 
       0.613639         417.963         160.724         425.219 
       0.619772         415.823         157.297         423.607 
       0.625918         407.834         153.968         416.621 
       0.632068          405.42         150.734         412.611 
       0.638161         401.296          147.62         408.399 
         0.6443         396.418         144.564         404.962 
       0.650464         392.043         141.574         397.929 
       0.656582         388.621          138.68         395.156 
       0.662703         385.395         135.862          393.45 
       0.668861         379.262         133.106           390.2 
       0.675024         377.502         130.429         386.656 
       0.681124         371.463         127.861         380.401 
       0.687237         369.965         125.365         377.186 
       0.693381         364.528         122.929         373.921 
       0.699536         363.386         120.557         371.423 
       0.705665         358.655         118.258         367.063 
       0.711789         356.917         116.018         364.822 
       0.717957         352.232         113.817         362.983 
        0.72409         348.221         111.683         359.354 
       0.730186         349.582         109.614         355.889 
       0.736317         343.121         107.587         352.523 
       0.742472         340.396         105.603         349.124 
       0.748622         337.568         103.673         346.112 
        0.75476         335.453         101.798         346.298 
       0.760888         332.278         99.9741         341.404 
       0.767043         329.069         98.1894         338.811 
       0.773185         326.814         96.4531         336.207 
       0.779291         322.766         94.7693         332.822 
       0.785407         320.899         93.1236         330.954 
       0.791564          318.53         91.5064         328.421 
       0.797719         313.396         89.9278         325.635 
       0.803834         315.243         88.3961         324.186 
       0.809972         309.942         86.8944         321.581 
       0.816124         306.688         85.4241          317.69 
       0.822261         304.302         83.9918         316.192 
       0.828378         303.177         82.5969         313.651 
       0.834502         298.401         81.2326         311.932 
       0.840667         298.709         79.8908         308.982 
       0.846816         293.484         78.5836         307.306 
       0.852925         293.829         77.3142         305.137 
       0.859047         290.933         76.0706         303.014 
       0.865192         289.783         74.8507         300.432 
       0.871341         285.718          73.657         298.606 
       0.877463         283.937          72.495         296.846 
       0.883569         282.093         71.3612         295.458 
       0.889708         279.368          70.246         292.423 
       0.895864         276.477         69.1519         290.656 
       0.902008         274.988         68.0836         288.651 
       0.908149         272.512         67.0385         286.108 
       0.914301         270.906         66.0137         284.157 
       0.920448         269.196         65.0114         282.137 
       0.926574         267.154         64.0335         280.232 
       0.932687         266.048         63.0779         278.395 
       0.938823         263.085         62.1385         277.593 
       0.944975         262.382         61.2162         275.649 
       0.951105         259.481          60.316         273.538 
       0.957225         256.907         59.4356         271.638 
       0.963368         257.111         58.5698         269.865 
       0.969511         252.244         57.7214         267.873 
       0.975621         251.104         56.8945         266.685 
       0.981748         250.319         56.0818         265.177 
       0.987916         248.758         55.2799          263.59 
        0.99406         246.278         54.4968         261.889 
        1.00019          244.45         53.7306         259.702 
        1.00632         243.888         52.9799         257.916 
        1.01246         241.607         52.2425         255.915 
        1.01859         238.913         51.5204         254.692 
        1.02471         237.286          50.813         253.625 
        1.03085         236.259         50.1165         252.383 
        1.03698         235.098         49.4345         251.403 
        1.04314         234.021         48.7625         249.254 
        1.04929         232.451         48.1045         247.312 
        1.05541         230.286         47.4614         245.917 
        1.06154         228.447         46.8286         244.573 
        1.06769          226.72         46.2063         243.304 
        1.07382         225.603         45.5975         241.693 
        1.07993         223.603         45.0011         240.434 
        1.08607         222.506          44.413         238.856 
        1.09222         220.523         43.8348         237.553 
        1.09836         219.912         43.2676         236.641 
        1.10449         218.113         42.7112         235.342 
        1.11063         216.425         42.1641         233.828 
        1.11677         214.749         41.6267         232.042 
         1.1229         214.046         41.0997         230.927 
        1.12903          212.06         40.5813         229.915 
        1.13518         210.611         40.0716         228.362 
        1.14131         209.846         39.5708         226.992 
        1.14745         207.475          39.079         225.817 
        1.15359         205.983         38.5954         224.538 
        1.15973         205.384         38.1199          223.22 
        1.16584         203.943         37.6545         221.522 
        1.17197         202.776         37.1963         221.003 
        1.17811         200.932         36.7443         219.797 
        1.18424           199.8         36.3012         218.208 
        1.19038         198.918         35.8641         217.623 
        1.19652         196.403         35.4345         216.383 
        1.20267         195.944         35.0119         214.717 
        1.20881         194.271         34.5963         213.937 
        1.21495         194.023         34.1881         212.561 
        1.22108         192.348         33.7867         211.406 
         1.2272         190.524         33.3926         209.649 
        1.23334          189.79         33.0039         209.058 
        1.23949         188.702         32.6206         208.373 
        1.24562         187.361         32.2444         206.664 
        1.25174         186.301         31.8747         205.868 
        1.25789         184.535         31.5097          204.58 
        1.26402         184.201         31.1512         203.661 
        1.27014         183.362         30.7991         202.739 
        1.27628         181.631         30.4514         202.241 
        1.28244         180.298         30.1084         200.925 
        1.28858         179.212         29.7712         199.602 
        1.29471         178.119         29.4399         198.224 
        1.30084         177.191          29.114         197.369 
        1.30697         175.647         28.7926         196.528 
        1.31312         174.642         28.4756         195.021 
        1.31925         173.493         28.1643          194.14 
        1.32537           172.9         27.8581         193.493 
        1.33151         171.614         27.5553         192.367 
        1.33765         170.351         27.2572         191.314 
        1.34378         169.705         26.9641         190.539 
        1.34992         168.306         26.6751         189.169 
        1.35606         167.481         26.3898         188.076 
         1.3622         166.326         26.1091         187.448 
        1.36833         165.067         25.8332         186.417 
        1.37445          164.95         25.5615         185.147 
        1.38059         163.037         25.2928         184.332 
        1.38675         162.123         25.0273          183.59 
        1.39288         161.077         24.7667         181.918 
        1.39901          159.89           24.51         181.542 
        1.40515         159.454         24.2563         180.925 
         1.4113         158.135         24.0064         179.875 
        1.41742         156.929         23.7609         179.074 
        1.42355         156.842         23.5184         178.245 
         1.4297         155.353         23.2785         177.295 
        1.43585         154.699         23.0421         176.231 
        1.44198         153.104         22.8099         175.584 
        1.44809         152.564         22.5814         174.664 
        1.45423         151.722         22.3551         173.519 
        1.46036         150.648         22.1324          172.72 
        1.46649         149.665         21.9126         172.179 
        1.47263         149.062         21.6957         171.484 
        1.47877         147.877         21.4818         170.304 
        1.48491         146.792         21.2704         169.416 
        1.49104         145.431         21.0623         169.052 
        1.49718         145.163         20.8569         167.788 
        1.50333         143.946         20.6539         166.854 
        1.50947         143.285          20.454         166.299 
         1.5156          142.22         20.2571         165.469 
        1.52172         141.634         20.0627         164.403 
        1.52787         140.798         19.8706         163.784 
          1.534         139.986         19.6811         163.068 
        1.54013         138.928         19.4944         162.328 
        1.54627         138.163         19.3097         161.682 
        1.55241         137.514         19.1275         160.862 
        1.55855         136.879         18.9478         159.889 
        1.56467         135.845         18.7709         159.106 
         1.5708         134.689         18.5958         158.509 
        1.57695         134.252         18.4227         157.777 
        1.58308         133.177         18.2522         156.952 
        1.58922         132.529         18.0838         156.231 
        1.59535         131.611         17.9175         155.563 
         1.6015         130.791         17.7531         154.706 
        1.60764         129.949         17.5908         153.867 
        1.61376         129.109         17.4311         153.374 
        1.61989          128.61         17.2731         152.808 
        1.62604         127.528         17.1168         151.793 
        1.63218          127.01         16.9625         151.051 
        1.63831         126.052         16.8105         150.543 
        1.64444         125.144         16.6603         149.585 
        1.65059         124.652         16.5116         149.124 
        1.65673         123.966         16.3648         148.384 
        1.66285         123.419         16.2202         147.574 
        1.66898         122.423         16.0774         147.088 
        1.67512         121.588          15.936         146.391 
        1.68127         121.108         15.7961         145.785 
         1.6874         120.124         15.6583         145.229 
        1.69353         119.711         15.5221         144.446 
        1.69967         118.741         15.3873          143.65 
        1.70581          118.31         15.2542         143.046 
        1.71193         117.416         15.1231         142.445 
        1.71806         116.332         14.9933         141.554 
        1.72421         115.978         14.8647         140.979 
        1.73035         115.305         14.7379          140.44 
        1.73649         114.363         14.6125         139.736 
        1.74262          114.04         14.4887         139.139 
        1.74876         113.206         14.3662         138.522 
        1.75489         112.793         14.2454          137.86 
        1.76101         111.811          14.126         137.242 
        1.76715          111.04         14.0079         136.713 
        1.77329         110.446         13.8909         135.965 
        1.77943         109.721         13.7753         135.205 
        1.78557         109.262         13.6611         134.725 
        1.79171         108.552         13.5482         134.242 
        1.79785         107.715         13.4366         133.647 
        1.80399         107.293         13.3262         132.981 
        1.81012         106.405         13.2172         132.282 
        1.81625         105.971         13.1095         131.733 
        1.82239         105.367         13.0028         131.243 
        1.82853         104.595         12.8974         130.555 
        1.83466         103.822         12.7933          129.88 
        1.84078         103.551         12.6904         129.377 
        1.84692         103.169         12.5884         128.978 
        1.85306         102.284         12.4875         128.318 
         1.8592         101.812         12.3879          127.63 
        1.86533          100.99         12.2893         127.229 
        1.87147         100.633         12.1918         126.671 
        1.87761         99.7859         12.0952         126.062 
