# k  (h/Mpc)    P(k)  (Mpc/h)^3    P_linear(k)  (Mpc/h)^3     P_NL(k)  ShotnoiseSubtracted = false
     0.00783031         17249.3         17321.9         17245.8 
       0.013688         21074.4         21680.4         21530.6 
       0.019231         21860.3         22245.1         22036.2 
      0.0249154         20823.4         20814.2         20583.5 
      0.0312784         17927.3         18177.6         17931.2 
      0.0375637         15151.9         15492.8         15271.9 
      0.0433917         13277.3         13406.6         13176.6 
      0.0492413           11636           11840         11627.6 
      0.0555754         10568.5           10675         10487.7 
      0.0619321          9460.7          9880.3         9697.61 
       0.067871         9021.98         9289.55         9116.32 
      0.0738098         8530.39         8700.83         8435.83 
      0.0800417         7851.47         8002.15         7758.31 
      0.0862327         7061.84         7222.93         7082.14 
      0.0921407         6374.65         6454.48         6347.28 
      0.0982031         5770.36         5716.38         5734.11 
       0.104506         5085.35         5069.93         5192.37 
       0.110769          4660.7         4581.64         4676.06 
       0.116806         4419.94         4250.29         4342.99 
       0.122832         4159.01         4023.98         4125.57 
       0.129052         3944.03         3852.58         3937.79 
       0.135211         3861.46          3697.1         3760.48 
       0.141259         3604.28         3523.46            3615 
       0.147318         3367.45         3313.82         3441.59 
       0.153489         3171.19          3069.1         3165.31 
       0.159709          3033.2         2811.49         2978.59 
       0.165845         2758.94         2571.66         2835.68 
       0.171974         2662.84         2366.23         2654.45 
       0.178125         2561.83         2203.99         2552.16 
       0.184229         2355.13         2085.37         2411.88 
        0.19034          2325.8          1999.4         2313.35 
       0.196428         2264.76         1932.38         2218.04 
       0.202534         2139.66          1869.4          2152.8 
       0.208729         2101.74         1798.47         2051.21 
       0.214876         2010.99         1715.73         2008.47 
       0.220989          1916.2          1622.4         1948.01 
       0.227147         1859.14         1523.24         1881.97 
        0.23329         1782.66          1427.1          1822.3 
       0.239377         1769.74         1341.51         1745.99 
       0.245482         1685.25         1269.39         1665.01 
       0.251667          1623.5            1211         1620.23 
       0.257832         1595.37         1165.18         1562.98 
       0.263955         1526.97         1127.62         1516.75 
       0.270079         1490.67         1093.15         1475.65 
        0.27624         1429.54          1057.6         1433.95 
       0.282372          1415.1         1018.93            1410 
        0.28843         1387.08         977.294         1381.71 
       0.294538         1326.36         933.178         1343.79 
       0.300721         1302.93         888.743         1303.99 
        0.30691         1268.45         846.936         1284.58 
       0.313033         1221.35         809.979         1241.82 
       0.319153         1208.74         778.133         1204.94 
       0.325316         1193.39         750.822         1183.26 
        0.33145         1166.58         727.268         1141.01 
       0.337538         1129.91         705.939         1122.61 
       0.343633         1105.08         685.191         1110.46 
       0.349808         1086.39         663.799         1093.81 
       0.355968          1063.5         641.585         1075.58 
       0.362074         1032.74         618.969         1056.32 
       0.368217         1029.35         596.145         1030.76 
       0.374374         1012.92         574.027         1010.99 
       0.380519         978.662         553.365          990.14 
       0.386598         974.092         534.693         976.766 
       0.392688          947.93         517.874         953.791 
        0.39888         931.167         502.385         938.315 
       0.405048          911.59         488.187         922.576 
       0.411186         908.844         474.764         906.166 
       0.417313         903.215         461.609         894.828 
       0.423458         877.195         448.458         879.918 
       0.429607         854.492         435.257         865.506 
       0.435692         846.649         422.238         847.793 
       0.441815         830.246         409.425         844.494 
       0.447964         821.202         397.067         833.162 
       0.454126         810.398         385.342         809.462 
       0.460267         800.814          374.43         807.546 
       0.466387         786.302         364.307         792.885 
        0.47254          774.74          354.74         781.773 
       0.478662         763.557         345.694         770.047 
       0.484765         755.066          337.01         761.427 
       0.490885          747.14         328.509          747.63 
       0.497035         732.556         320.078         741.043 
       0.503198         731.518         311.766         732.747 
       0.509342         717.898         303.663         720.369 
       0.515458         703.765         295.824          715.69 
       0.521598         703.192         288.233         708.237 
       0.527764         686.365          280.94         700.947 
       0.533884         678.445         274.061         692.467 
           0.54         674.124         267.516         683.784 
       0.546137         664.925         261.222         675.684 
       0.552299         660.217          255.13         666.405 
       0.558452         651.998         249.238         661.363 
       0.564573         648.489         243.537         655.693 
       0.570708         640.677         237.958         647.909 
       0.576825         628.062         232.516         638.857 
       0.582926         626.313          227.22         634.193 
       0.589034         617.827         222.072          624.42 
       0.595184         610.923         217.063         618.724 
       0.601379         601.806         212.207         613.028 
       0.607522         592.908         207.564         604.114 
       0.613639         592.174         203.099          602.43 
       0.619772         586.881         198.768         600.743 
       0.625918         578.108         194.561         591.857 
       0.632068         575.296         190.475          588.56 
       0.638161         567.388          186.54         579.341 
         0.6443          561.28         182.679          575.13 
       0.650464         556.893           178.9         566.813 
       0.656582         552.314         175.244         563.683 
       0.662703         545.992         171.683         559.901 
       0.668861         539.346           168.2         557.109 
       0.675024         537.096         164.817         552.918 
       0.681124         525.882         161.571         544.174 
       0.687237         526.298         158.417         539.303 
       0.693381         517.675          155.34         534.641 
       0.699536         518.635         152.342         531.073 
       0.705665         510.042         149.436         524.508 
       0.711789         509.048         146.606         520.794 
       0.717957         502.259         143.825         520.003 
        0.72409         498.006         141.128         514.157 
       0.730186         496.799         138.514          508.95 
       0.736317          489.53         135.952         505.284 
       0.742472         484.445         133.445         501.449 
       0.748622         483.378         131.007         496.643 
        0.75476         476.349         128.637         497.492 
       0.760888         474.531         126.332         491.015 
       0.767043         471.364         124.077         485.327 
       0.773185         467.129         121.883         482.372 
       0.779291         462.506         119.755         478.324 
       0.785407         458.927         117.676         475.745 
       0.791564          456.62         115.632         473.479 
       0.797719         449.386         113.637         468.552 
       0.803834             450         111.702         466.164 
       0.809972         442.923         109.804         463.105 
       0.816124         439.828         107.946         457.036 
       0.822261         436.876         106.136          455.17 
       0.828378          435.08         104.374         451.826 
       0.834502         427.911          102.65         450.326 
       0.840667         426.777         100.954          446.25 
       0.846816         422.821         99.3021         442.941 
       0.852925         422.304         97.6981         440.395 
       0.859047         417.163         96.1267         436.319 
       0.865192         414.945         94.5851         433.174 
       0.871341         409.927         93.0766          430.93 
       0.877463         409.235         91.6083         428.192 
       0.883569         405.285         90.1756         426.308 
       0.889708         400.688         88.7664         422.024 
       0.895864         396.394         87.3839         419.744 
       0.902008         395.552         86.0338         416.745 
       0.908149         391.592         84.7131         412.969 
       0.914301         390.117         83.4182         409.712 
       0.920448         385.157         82.1516         408.433 
       0.926574         383.375          80.916         405.369 
       0.932687          382.03         79.7084         402.163 
       0.938823         377.712         78.5213          401.61 
       0.944975         376.468         77.3558          398.06 
       0.951105         373.015         76.2183         395.058 
       0.957225         368.429         75.1058         393.076 
       0.963368         368.508         74.0118          390.73 
       0.969511         363.499         72.9397         388.321 
       0.975621         361.122         71.8948         385.481 
       0.981748         359.757         70.8677         383.323 
       0.987916         357.177         69.8545         381.563 
        0.99406         353.259          68.865         378.983 
        1.00019         349.988         67.8967         375.456 
        1.00632         349.202          66.948         373.165 
        1.01246         345.976         66.0163         370.615 
        1.01859         343.203         65.1038         368.217 
        1.02471         341.339         64.2098         366.567 
        1.03085         339.594         63.3297         365.246 
        1.03698         337.261          62.468         363.669 
        1.04314         334.588         61.6187         360.868 
        1.04929          333.42         60.7873         357.664 
        1.05541         329.659         59.9746          355.49 
        1.06154         327.255         59.1749         353.831 
        1.06769         324.734         58.3886         351.324 
        1.07382         321.759         57.6193         349.315 
        1.07993         321.459         56.8657         347.675 
        1.08607         319.504         56.1225         344.971 
        1.09222         316.204         55.3918         343.093 
        1.09836         314.399         54.6752         341.914 
        1.10449         312.016         53.9721         339.864 
        1.11063         310.778         53.2806         337.121 
        1.11677         307.152         52.6016         335.362 
         1.1229         306.076         51.9356         333.474 
        1.12903         303.251         51.2806         331.794 
        1.13518         301.654         50.6364          329.32 
        1.14131          299.78         50.0037          327.84 
        1.14745         296.939         49.3822         325.353 
        1.15359         294.417         48.7711         324.389 
        1.15973          293.01         48.1702         322.318 
        1.16584         291.398         47.5821         320.933 
        1.17197         289.337         47.0031          319.27 
        1.17811         286.013          46.432         317.076 
        1.18424         285.235          45.872         315.446 
        1.19038         283.588         45.3197         314.327 
        1.19652         280.688         44.7768         311.806 
        1.20267         279.467         44.2428         310.165 
        1.20881         277.804         43.7176          308.66 
        1.21495         275.368         43.2018         306.562 
        1.22108         274.218         42.6945         304.535 
         1.2272         270.653         42.1966         303.137 
        1.23334         269.442         41.7054         301.354 
        1.23949         267.788          41.221         299.957 
        1.24562         266.579         40.7456         298.147 
        1.25174         264.945         40.2785         296.669 
        1.25789         262.277         39.8173         294.899 
        1.26402         261.224         39.3642         294.006 
        1.27014         259.575         38.9192         291.736 
        1.27628         257.854         38.4799         291.029 
        1.28244          255.08         38.0465         289.724 
        1.28858         254.272         37.6204          287.79 
        1.29471         252.627         37.2018         285.374 
        1.30084         251.976         36.7899         284.059 
        1.30697         248.947         36.3837         283.007 
        1.31312         247.597         35.9831         281.232 
        1.31925         246.217         35.5898         279.759 
        1.32537         245.128         35.2028         277.917 
        1.33151         242.415         34.8202          276.75 
        1.33765         240.703         34.4435         275.569 
        1.34378          240.03         34.0732         273.896 
        1.34992         237.376          33.708         272.241 
        1.35606         236.059         33.3474         270.534 
         1.3622         234.191         32.9928         269.702 
        1.36833         234.017         32.6442         268.685 
        1.37445          232.68         32.3007         266.107 
        1.38059         229.594         31.9612         265.539 
        1.38675          228.21         31.6258          264.55 
        1.39288         227.672         31.2965         262.337 
        1.39901         225.399         30.9721         260.978 
        1.40515         224.317         30.6515          259.49 
         1.4113         222.621         30.3356         257.977 
        1.41742         221.034         30.0254         256.935 
        1.42355          219.87          29.719         255.447 
         1.4297         218.405         29.4159         253.946 
        1.43585         216.919         29.1172         253.473 
        1.44198          215.49         28.8238         251.786 
        1.44809         214.261          28.535         250.647 
        1.45423         212.945         28.2491         248.663 
        1.46036         212.187         27.9676         247.725 
        1.46649         210.325         27.6899         246.824 
        1.47263          208.58         27.4157         245.182 
        1.47877         207.486         27.1454         243.665 
        1.48491          205.89         26.8783         242.237 
        1.49104         203.873         26.6154         241.343 
        1.49718         203.256         26.3558         240.685 
        1.50333         201.721         26.0993         239.212 
        1.50947         200.333         25.8467         237.991 
         1.5156         199.215         25.5978         236.825 
        1.52172         197.808         25.3523         235.226 
        1.52787         196.618         25.1094         234.335 
          1.534         195.976         24.8701         233.135 
        1.54013         194.084         24.6341         231.974 
        1.54627         193.095         24.4008         231.111 
        1.55241         192.054         24.1704         230.016 
        1.55855         190.614         23.9434         228.675 
        1.56467         189.429         23.7199         227.318 
         1.5708         187.915         23.4986         226.174 
        1.57695         187.331         23.2799         225.101 
        1.58308         186.143         23.0644         223.896 
        1.58922         184.441         22.8516         222.756 
        1.59535         183.246         22.6414           221.9 
         1.6015         182.366         22.4337         220.996 
        1.60764         180.936         22.2287         219.753 
        1.61376         179.671         22.0268         218.473 
        1.61989         178.538         21.8272         217.426 
        1.62604         177.682         21.6297          216.27 
        1.63218         176.271         21.4347         215.238 
        1.63831         175.451         21.2426         214.345 
        1.64444         173.973         21.0528         213.292 
        1.65059         173.084         20.8648         212.376 
        1.65673          171.98         20.6794          211.29 
        1.66285          170.79         20.4967         210.094 
        1.66898         169.897         20.3162         209.046 
        1.67512         168.652         20.1375          208.16 
        1.68127         167.604         19.9608         207.198 
         1.6874         166.562         19.7866         206.207 
        1.69353         165.904         19.6146         205.309 
        1.69967         164.453         19.4442         204.257 
        1.70581         163.665         19.2759         203.357 
        1.71193         162.378         19.1103         202.433 
        1.71806         161.312         18.9463         201.073 
        1.72421         160.406         18.7838         200.199 
        1.73035         159.278         18.6235         199.384 
        1.73649          157.99         18.4651         198.323 
        1.74262         157.274         18.3086         197.431 
        1.74876         156.328         18.1538         196.524 
        1.75489         155.726         18.0012         195.643 
        1.76101         154.585         17.8504         194.862 
        1.76715         153.481         17.7011         194.021 
        1.77329         152.373         17.5533         193.064 
        1.77943         151.402         17.4071         192.047 
        1.78557          150.31         17.2629         191.069 
        1.79171         149.719         17.1202         190.222 
        1.79785          148.47         16.9791         189.355 
        1.80399         147.711         16.8396         188.397 
        1.81012         147.237         16.7019         187.785 
        1.81625         145.581         16.5658         186.961 
        1.82239         145.257          16.431         185.811 
        1.82853         144.125         16.2978         184.945 
        1.83466         142.909         16.1662         184.022 
        1.84078         142.267         16.0362         183.115 
        1.84692         141.634         15.9074         182.586 
        1.85306         140.545         15.7799         181.582 
         1.8592         139.805         15.6539         180.493 
        1.86533         138.454         15.5294         180.087 
        1.87147         137.697         15.4061         179.493 
        1.87761         137.117         15.2842          178.52 
