# k  (h/Mpc)    P(k)  (Mpc/h)^3    P_linear(k)  (Mpc/h)^3     P_NL(k)  ShotnoiseSubtracted = false
     0.00783031         14698.6         14763.5         14701.2 
       0.013688         17998.7         18479.3         18360.1 
       0.019231         18663.5         18961.1         18796.8 
      0.0249154         17757.8         17741.8         17566.2 
      0.0312784         15311.6         15494.5         15313.5 
      0.0375637           12950         13206.1         13044.9 
      0.0433917         11341.4         11427.9         11261.4 
      0.0492413         9942.95         10092.5         9939.49 
      0.0555754         9032.78         9099.51          8964.1 
      0.0619321         8101.32         8422.11          8289.5 
       0.067871          7724.3         7918.56         7792.24 
      0.0738098         7294.56         7416.73         7222.47 
      0.0800417         6718.64         6821.17            6642 
      0.0862327         6041.16         6156.96         6054.55 
      0.0921407         5444.88         5501.92          5424.1 
      0.0982031         4919.51         4872.76         4888.92 
       0.104506         4332.18         4321.71         4416.11 
       0.110769         3964.14         3905.48         3976.63 
       0.116806         3757.59         3623.04         3692.87 
       0.122832         3530.66         3430.12         3507.21 
       0.129052         3356.86         3284.02         3347.91 
       0.135211         3281.25         3151.49         3200.07 
       0.141259         3067.15         3003.47          3072.2 
       0.147318          2860.9         2824.77         2923.16 
       0.153489         2691.12         2616.16         2688.26 
       0.159709         2564.55         2396.57         2522.68 
       0.165845         2327.14         2192.14         2393.78 
       0.171974         2245.46         2017.03         2234.83 
       0.178125         2152.08         1878.73         2143.49 
       0.184229          1980.8         1777.61         2026.51 
        0.19034         1951.86         1704.33         1942.82 
       0.196428         1899.32          1647.2         1860.75 
       0.202534          1790.2         1593.52         1805.57 
       0.208729         1761.39         1533.05         1721.46 
       0.214876         1686.15         1462.53         1684.81 
       0.220989         1598.14         1382.97         1629.85 
       0.227147         1551.51         1298.44         1568.89 
        0.23329         1486.53         1216.49         1517.39 
       0.239377         1470.94         1143.54         1452.15 
       0.245482         1397.25         1082.05         1382.22 
       0.251667         1344.96         1032.28         1344.45 
       0.257832         1323.33         993.229          1295.6 
       0.263955         1263.29         961.209          1255.6 
       0.270079         1229.92         931.824         1221.13 
        0.27624          1179.5         901.523         1185.58 
       0.282372         1164.45         868.563         1161.92 
        0.28843         1145.83         833.068         1135.28 
       0.294538         1091.51         795.463         1104.55 
       0.300721         1068.81         757.585         1071.81 
        0.30691         1043.53         721.948         1053.13 
       0.313033         1001.01         690.445          1016.8 
       0.319153         988.785         663.299         986.822 
       0.325316         976.102         640.018          967.43 
        0.33145         954.417          619.94          932.26 
       0.337538         922.349         601.759         915.488 
       0.343633          900.48         584.073         905.993 
       0.349808         883.103         565.838         891.034 
       0.355968         865.707         546.902         875.856 
       0.362074         837.605         527.624         858.609 
       0.368217         835.163         508.168         835.643 
       0.374374         822.068         489.314         819.188 
       0.380519         792.006         471.701         800.855 
       0.386598         786.832         455.785         790.705 
       0.392688         766.846         441.448         769.545 
        0.39888         750.099         428.245         757.589 
       0.405048           735.1         416.142          745.81 
       0.411186         733.333           404.7         729.802 
       0.417313          728.16         393.486         718.841 
       0.423458         706.445         382.276         708.054 
       0.429607         686.883         371.023         695.019 
       0.435692         679.866         359.926         680.938 
       0.441815         667.096         349.003         676.994 
       0.447964         657.385         338.469          666.45 
       0.454126         649.333         328.475         648.067 
       0.460267         640.028         319.173          645.89 
       0.466387          628.91         310.543         633.786 
        0.47254          619.18         302.389         625.078 
       0.478662         609.335         294.678         614.349 
       0.484765         602.489         287.275         605.739 
       0.490885         596.156         280.029         595.767 
       0.497035         583.943         272.842         589.885 
       0.503198          583.21         265.757         582.506 
       0.509342         571.962         258.849         573.824 
       0.515458         560.654         252.167         569.685 
       0.521598         557.405         245.697         562.066 
       0.527764         545.235          239.48         555.898 
       0.533884         540.354         233.616         548.834 
           0.54         535.343         228.037          541.05 
       0.546137         526.705         222.672         534.436 
       0.552299         524.392         217.479         527.178 
       0.558452          516.68         212.457         522.729 
       0.564573         512.643         207.597         518.524 
       0.570708         506.838         202.841         513.129 
       0.576825         496.905         198.202         504.541 
       0.582926         495.305         193.688         500.173 
       0.589034         487.523         189.299         492.773 
       0.595184         483.088          185.03         487.612 
       0.601379         475.612          180.89          482.95 
       0.607522         467.481         176.932         476.569 
       0.613639         466.588         173.127         474.712 
       0.619772         463.748         169.435         473.222 
       0.625918         455.088         165.849         465.446 
       0.632068          452.87         162.366         461.657 
       0.638161         447.772         159.011         456.089 
         0.6443         442.377          155.72         452.512 
       0.650464         438.029         152.499         444.891 
       0.656582         434.375         149.382         442.032 
       0.662703         430.312         146.346         439.893 
       0.668861         423.988         143.378         436.747 
       0.675024          422.09         140.494         432.957 
       0.681124         414.536         137.727         425.851 
       0.687237         413.637         135.039         422.226 
       0.693381         407.274         132.415         418.668 
       0.699536         406.675          129.86         415.905 
       0.705665         400.948         127.383          410.79 
       0.711789         399.523         124.971         408.327 
       0.717957         394.087           122.6         406.752 
        0.72409         389.957         120.301         402.431 
       0.730186         390.734         118.073         398.502 
       0.736317         383.864         115.889         395.007 
       0.742472         380.734         113.752         391.352 
       0.748622         378.301         111.673         387.954 
        0.75476         374.922         109.653         388.465 
       0.760888         372.075         107.689         383.018 
       0.767043         368.813         105.766         379.717 
       0.773185         366.023         103.896         376.936 
       0.779291         361.888         102.082         373.362 
       0.785407         359.459          100.31         371.409 
       0.791564         357.156         98.5675         368.727 
       0.797719         351.446         96.8671         365.257 
       0.803834         353.057         95.2172         363.782 
       0.809972         347.083         93.5996         361.007 
       0.816124         343.951         92.0159         356.335 
       0.822261         341.435         90.4731         354.866 
       0.828378         339.932         88.9705         352.115 
       0.834502         334.386          87.501         350.421 
       0.840667         334.545         86.0556         347.059 
       0.846816         329.384         84.6475         345.021 
       0.852925         329.738         83.2802         342.758 
       0.859047         326.401         81.9406          340.22 
       0.865192         324.765         80.6265         337.367 
       0.871341         320.338         79.3407         335.505 
       0.877463         318.857         78.0891         333.406 
       0.883569         316.285         76.8678         331.926 
       0.889708         313.183         75.6666         328.553 
       0.895864         309.818         74.4881         326.593 
       0.902008          308.57         73.3372         324.327 
       0.908149         305.636         72.2115         321.484 
       0.914301         304.127         71.1077         319.157 
       0.920448         301.484          70.028         317.228 
       0.926574         299.546         68.9747         315.012 
       0.932687         298.442         67.9454          312.86 
       0.938823         294.979         66.9335         312.184 
       0.944975          294.23           65.94         309.673 
       0.951105         291.129         64.9703         307.348 
       0.957225         287.918         64.0219         305.438 
       0.963368         288.283         63.0894          303.59 
       0.969511         283.002         62.1755         301.404 
       0.975621         281.782         61.2848         299.721 
       0.981748         280.837         60.4093         298.086 
       0.987916         278.935         59.5456         296.447 
        0.99406         276.062         58.7021         294.502 
        1.00019         273.778         57.8767         291.891 
        1.00632         273.342         57.0681         290.059 
        1.01246         270.791         56.2738         287.829 
        1.01859         267.832          55.496         286.216 
        1.02471         266.122          54.734         285.037 
        1.03085         265.092         53.9837         283.818 
        1.03698         263.653         53.2492         282.716 
        1.04314         262.197         52.5252         280.319 
        1.04929         260.613         51.8165         278.027 
        1.05541         257.954         51.1238         276.434 
        1.06154         256.067         50.4421         275.011 
        1.06769         253.976         49.7719         273.402 
        1.07382         252.366         49.1161         271.681 
        1.07993         250.813         48.4736         270.384 
        1.08607         249.497         47.8401         268.377 
        1.09222         247.114         47.2173         266.891 
        1.09836          246.28         46.6064          265.93 
        1.10449         244.488         46.0071         264.436 
        1.11063         242.652         45.4177         262.728 
        1.11677         240.335         44.8388         260.797 
         1.1229         239.918         44.2711         259.583 
        1.12903         237.485         43.7128         258.421 
        1.13518         235.882         43.1637         256.582 
        1.14131          234.98         42.6243         255.155 
        1.14745         232.339         42.0945         253.639 
        1.15359         230.674         41.5737         252.355 
        1.15973         229.788         41.0614         250.896 
        1.16584         228.156         40.5601         249.216 
        1.17197         226.926         40.0666         248.468 
        1.17811         224.701         39.5797         247.006 
        1.18424         223.488         39.1024           245.4 
        1.19038         222.564         38.6316          244.65 
        1.19652         219.774         38.1688         243.075 
        1.20267         219.321         37.7136         241.331 
        1.20881         217.444         37.2659         240.417 
        1.21495         216.864         36.8263         238.831 
        1.22108         215.107         36.3938         237.364 
         1.2272         212.883         35.9693         235.636 
        1.23334         212.098         35.5507          234.78 
        1.23949         210.787         35.1378         234.017 
        1.24562         209.425         34.7325         232.246 
        1.25174         208.225         34.3343         231.257 
        1.25789         206.199         33.9412         229.795 
        1.26402         205.773          33.555          228.96 
        1.27014         204.714         33.1757         227.618 
        1.27628         202.981         32.8012         227.056 
        1.28244         201.293         32.4317         225.782 
        1.28858         200.229         32.0685         224.259 
        1.29471          198.96         31.7117         222.482 
        1.30084         198.175         31.3606         221.627 
        1.30697          196.19         31.0144         220.728 
        1.31312         195.052         30.6729         219.062 
        1.31925         193.785         30.3376         218.021 
        1.32537         193.098         30.0077         217.106 
        1.33151         191.531         29.6816         215.954 
        1.33765         190.133         29.3605         214.806 
        1.34378         189.397         29.0448         213.907 
        1.34992         187.589         28.7335         212.358 
        1.35606         186.835         28.4262         211.103 
         1.3622         185.348         28.1238         210.416 
        1.36833         184.401         27.8267         209.393 
        1.37445         184.041         27.5339         207.683 
        1.38059         181.744         27.2445         206.965 
        1.38675         180.589         26.9586         206.175 
        1.39288         179.649         26.6779         204.222 
        1.39901         178.136         26.4013         203.702 
        1.40515         177.625         26.1281         202.902 
         1.4113         176.265         25.8588         201.664 
        1.41742         174.855         25.5944         200.761 
        1.42355         174.556         25.3332         199.744 
         1.4297         173.113         25.0748         198.715 
        1.43585         172.353         24.8202         197.759 
        1.44198          170.68         24.5701         196.894 
        1.44809         169.986         24.3239         195.881 
        1.45423         168.945         24.0802         194.447 
        1.46036          167.88         23.8402         193.618 
        1.46649         166.724         23.6035         193.023 
        1.47263         166.022         23.3698         192.098 
        1.47877         164.783         23.1394         190.802 
        1.48491         163.445         22.9117         189.724 
        1.49104          161.97         22.6876         189.292 
        1.49718         161.616         22.4663         188.103 
        1.50333         160.032         22.2477         187.061 
        1.50947         159.406         22.0323         186.402 
         1.5156          158.35         21.8202          185.41 
        1.52172         157.538         21.6109         184.063 
        1.52787         156.606         21.4039         183.469 
          1.534         155.851         21.1998         182.648 
        1.54013          154.52         20.9987         181.744 
        1.54627         153.816         20.7998         181.074 
        1.55241         152.954         20.6034         180.181 
        1.55855         152.148         20.4099         179.018 
        1.56467         151.074         20.2194         178.174 
         1.5708         149.797         20.0308         177.431 
        1.57695         149.216         19.8443         176.558 
        1.58308         148.108         19.6607         175.712 
        1.58922         147.227         19.4792         174.872 
        1.59535         146.125         19.3001         174.126 
         1.6015         145.438          19.123         173.203 
        1.60764         144.374         18.9482         172.236 
        1.61376         143.381         18.7761         171.563 
        1.61989         142.766          18.606         170.862 
        1.62604         141.766         18.4376         169.825 
        1.63218         141.062         18.2715         169.022 
        1.63831         140.144         18.1077         168.391 
        1.64444         138.968         17.9459         167.397 
        1.65059         138.381         17.7857         166.843 
        1.65673         137.488         17.6276         165.974 
        1.66285         136.863         17.4719         165.026 
        1.66898         135.909          17.318         164.415 
        1.67512         134.913         17.1657         163.643 
        1.68127          134.33          17.015         163.005 
         1.6874         133.336         16.8665         162.382 
        1.69353         132.837         16.7199         161.457 
        1.69967         131.771         16.5747         160.584 
        1.70581         131.245         16.4313         159.945 
        1.71193         130.249         16.2901         159.244 
        1.71806         129.098         16.1502          158.15 
        1.72421         128.582         16.0118         157.535 
        1.73035         127.809         15.8751         156.985 
        1.73649          126.84           15.74         156.174 
        1.74262         126.337         15.6067         155.456 
        1.74876          125.57         15.4748         154.784 
        1.75489         125.084         15.3447         154.087 
        1.76101         123.848         15.2161         153.393 
        1.76715         123.118         15.0888         152.764 
        1.77329         122.311         14.9628         151.913 
        1.77943         121.532         14.8383         151.058 
        1.78557         120.879         14.7153         150.488 
        1.79171         120.174         14.5937         149.896 
        1.79785         119.314         14.4734         149.211 
        1.80399         118.745         14.3545         148.516 
        1.81012         118.066         14.2371         147.801 
        1.81625         117.291         14.1211         147.155 
        1.82239         116.704         14.0062         146.516 
        1.82853         115.741         13.8927         145.731 
        1.83466         114.843         13.7805         144.972 
        1.84078         114.525         13.6696          144.39 
        1.84692         114.031         13.5598         143.947 
        1.85306         113.107         13.4511         143.197 
         1.8592          112.55         13.3438         142.405 
        1.86533         111.631         13.2376         141.992 
        1.87147         111.078         13.1326         141.488 
        1.87761          110.33         13.0286         140.786 
