# k  (h/Mpc)    P(k)  (Mpc/h)^3    P_linear(k)  (Mpc/h)^3     P_NL(k)  ShotnoiseSubtracted = false
     0.00783031         8495.92         8539.07         8506.26 
       0.013688           10470         10690.3           10633 
       0.019231         10844.5         10969.9         10894.1 
      0.0249154         10282.3         10264.9         10193.7 
      0.0312784         8903.15         8965.03         8902.14 
      0.0375637         7545.58         7641.14         7587.13 
      0.0433917         6595.34         6612.34         6559.31 
      0.0492413         5789.49         5839.72         5792.24 
      0.0555754          5259.3          5265.2         5222.45 
      0.0619321         4746.21         4873.27         4830.85 
       0.067871         4519.04         4581.92         4540.34 
      0.0738098          4254.9         4291.56         4226.02 
      0.0800417         3923.86         3946.96         3886.39 
      0.0862327          3527.5         3562.63         3529.52 
      0.0921407         3166.86         3183.61          3159.5 
      0.0982031         2846.28         2819.56            2830 
       0.104506         2503.07         2500.71         2539.46 
       0.110769         2280.98         2259.86          2288.3 
       0.116806         2156.07         2096.43         2124.25 
       0.122832         2021.14         1984.81         2015.73 
       0.129052         1933.55         1900.27         1925.41 
       0.135211         1880.11         1823.58         1844.22 
       0.141259         1766.15         1737.93          1764.9 
       0.147318         1643.73         1634.53         1675.06 
       0.153489         1540.82         1513.82         1542.09 
       0.159709         1451.44         1386.76         1435.51 
       0.165845         1311.47         1268.46         1347.78 
       0.171974         1259.06         1167.14            1250 
       0.178125         1193.14         1087.12         1188.89 
       0.184229         1104.97          1028.6         1125.68 
        0.19034         1081.52         986.199         1078.08 
       0.196428         1049.83         953.143          1031.6 
       0.202534          987.74         922.079         1000.23 
       0.208729         972.646         887.091         957.027 
       0.214876         933.881         846.285         932.479 
       0.220989         873.662          800.25         895.297 
       0.227147         848.333         751.336         853.154 
        0.23329         810.177         703.916         820.002 
       0.239377         790.407         661.701         782.169 
       0.245482         746.832         626.124          740.97 
       0.251667         716.094         597.324         718.453 
       0.257832         706.758         574.727         691.261 
       0.263955         670.485         556.198         668.218 
       0.270079         649.168         539.195         648.769 
        0.27624         622.956         521.662         627.824 
       0.282372         609.999         502.589         611.183 
        0.28843         604.365          482.05         592.582 
       0.294538         572.804          460.29         575.832 
       0.300721         554.114         438.373         558.748 
        0.30691         543.591         417.751         543.511 
       0.313033          518.52         399.522         522.921 
       0.319153         509.247         383.814         507.527 
       0.325316         499.102         370.343         495.554 
        0.33145         487.396         358.725         477.311 
       0.337538         470.167         348.205         465.655 
       0.343633         456.251         337.971         459.773 
       0.349808         445.068         327.419         450.553 
       0.355968           436.1         316.462         441.703 
       0.362074         422.261         305.307         430.703 
       0.368217          418.55         294.049          417.06 
       0.374374         409.468         283.139         407.457 
       0.380519         392.816         272.948         396.869 
       0.386598         387.696         263.738         390.005 
       0.392688         378.202         255.442         379.333 
        0.39888         368.562         247.802         371.318 
       0.405048          361.54         240.798         366.257 
       0.411186         359.312         234.178         356.615 
       0.417313         353.183         227.689         348.203 
       0.423458         343.554         221.202         342.489 
       0.429607          334.62         214.691         335.922 
       0.435692         328.762         208.269         328.873 
       0.441815          323.08         201.949         325.573 
       0.447964          314.81         195.854         318.884 
       0.454126         310.469         190.071         310.088 
       0.460267         305.937         184.688         307.527 
       0.466387         300.081         179.695         301.165 
        0.47254         296.032         174.976         296.301 
       0.478662           288.2         170.514         290.586 
       0.484765          284.77         166.231         284.034 
       0.490885         281.201         162.037         280.528 
       0.497035         276.395         157.879         277.034 
       0.503198         274.456         153.779         272.707 
       0.509342         267.252         149.782         269.193 
       0.515458         263.587         145.915         266.446 
       0.521598         258.076         142.171         260.813 
       0.527764         255.011         138.574         256.826 
       0.533884         253.923         135.181         253.435 
           0.54         248.767         131.953         249.474 
       0.546137         243.207         128.848         246.659 
       0.552299         241.811         125.843         242.208 
       0.558452         237.568         122.937         239.085 
       0.564573         235.778         120.125         236.978 
       0.570708         230.987         117.373         234.064 
       0.576825         227.513         114.689         229.477 
       0.582926         225.311         112.077         226.805 
       0.589034         221.945         109.537         224.502 
       0.595184         220.191         107.067         220.406 
       0.601379         216.171         104.671         219.134 
       0.607522         211.951         102.381         215.816 
       0.613639         210.554         100.179         213.717 
       0.619772         208.822         98.0426         211.137 
       0.625918         206.411         95.9676         208.673 
       0.632068         202.326         93.9522         205.375 
       0.638161         200.583         92.0109          204.37 
         0.6443         199.127         90.1064         201.819 
       0.650464         195.424         88.2426         198.074 
       0.656582         193.984         86.4391         196.612 
       0.662703         192.217         84.6826         194.613 
       0.668861         188.474         82.9649           192.5 
       0.675024         188.201         81.2961         190.093 
       0.681124         185.564         79.6953         188.199 
       0.687237         183.446         78.1395         186.012 
       0.693381         181.345         76.6214         183.898 
       0.699536         179.515         75.1428         182.289 
       0.705665         177.483         73.7097         181.285 
       0.711789         175.415         72.3138         178.662 
       0.717957         173.476          70.942         176.976 
        0.72409         171.729         69.6117         176.051 
       0.730186         171.958         68.3224          174.31 
       0.736317         169.049         67.0584         172.035 
       0.742472         166.738         65.8221         170.507 
       0.748622         164.253         64.6191         168.546 
        0.75476          164.89         63.4504         167.193 
       0.760888         162.784         62.3136         165.028 
       0.767043         160.136         61.2012         164.124 
       0.773185         158.655         60.1189         163.141 
       0.779291         156.719         59.0695         161.325 
       0.785407         155.657         58.0437         159.461 
       0.791564         154.367         57.0357         158.462 
       0.797719         152.189         56.0518         157.534 
       0.803834          152.31         55.0971         155.613 
       0.809972         150.906          54.161         154.375 
       0.816124           148.6         53.2446          153.35 
       0.822261         147.295         52.3519         151.879 
       0.828378         147.058         51.4824         150.055 
       0.834502         144.826         50.6321         149.238 
       0.840667         144.356         49.7957         148.456 
       0.846816         142.614         48.9809         146.978 
       0.852925         141.341         48.1897         145.746 
       0.859047         139.968         47.4146         144.591 
       0.865192         139.289         46.6542         143.588 
       0.871341         137.713         45.9102         142.152 
       0.877463         136.621         45.1859          141.39 
       0.883569         136.393         44.4792         140.455 
       0.889708          135.04         43.7841         139.312 
       0.895864         133.752         43.1022         138.575 
       0.902008         132.351         42.4363         137.074 
       0.908149         130.821         41.7849         135.921 
       0.914301         130.649         41.1461         135.181 
       0.920448         130.213         40.5214         134.311 
       0.926574         127.908         39.9119         132.833 
       0.932687         127.697         39.3163         131.918 
       0.938823         126.703         38.7308         131.235 
       0.944975         125.457         38.1559         130.323 
       0.951105         124.329         37.5948          129.24 
       0.957225         124.002          37.046         128.455 
       0.963368         122.664         36.5064         127.073 
       0.969511         121.631         35.9776         126.395 
       0.975621         120.508         35.4622         126.591 
       0.981748         119.671         34.9556         125.232 
       0.987916         118.975         34.4558         124.509 
        0.99406         118.389         33.9677         123.444 
        1.00019         117.259         33.4901          122.42 
        1.00632         116.431         33.0222         121.654 
        1.01246         115.596         32.5626         120.626 
        1.01859         114.935         32.1125         120.256 
        1.02471         114.094         31.6716         119.845 
        1.03085         113.081         31.2375          118.82 
        1.03698         112.221         30.8124          117.83 
        1.04314         111.616         30.3935         117.246 
        1.04929         111.084         29.9834         116.731 
        1.05541         110.252         29.5826         116.083 
        1.06154         109.417         29.1881         115.437 
        1.06769         108.647         28.8003         114.733 
        1.07382         107.904         28.4208         114.004 
        1.07993         107.277         28.0491         113.269 
        1.08607          106.45         27.6825         112.616 
        1.09222         105.883         27.3221         111.847 
        1.09836         104.937         26.9686         111.055 
        1.10449         104.274         26.6218         110.481 
        1.11063         103.589         26.2807         109.522 
        1.11677         102.908         25.9458         108.985 
         1.1229         102.112         25.6173         108.659 
        1.12903         101.643         25.2942         107.821 
        1.13518         100.901         24.9765         107.231 
        1.14131         100.271         24.6644         106.521 
        1.14745         99.7317         24.3578         106.026 
        1.15359         98.5704         24.0564         105.316 
        1.15973         98.3301           23.76         105.114 
        1.16584         97.6785           23.47         104.116 
        1.17197          97.136         23.1843         103.737 
        1.17811         96.2803         22.9026         103.153 
        1.18424         95.7124         22.6264         102.662 
        1.19038         95.4428          22.354         102.045 
        1.19652         94.6795         22.0862         101.391 
        1.20267         94.0111         21.8228         100.876 
        1.20881         93.3953         21.5638         100.348 
        1.21495         92.8859         21.3094          99.613 
        1.22108         92.4383         21.0591          99.403 
         1.2272         91.5969         20.8135          98.699 
        1.23334         91.3829         20.5713         98.3476 
        1.23949         90.7688         20.3323         97.5333 
        1.24562         89.9605         20.0978         97.0964 
        1.25174         89.4653         19.8674         96.6675 
        1.25789          89.131         19.6399         96.1287 
        1.26402         88.6173         19.4164         95.6853 
        1.27014         88.0594          19.197         95.5069 
        1.27628         87.2437         18.9803         94.9934 
        1.28244          87.146         18.7665         94.0337 
        1.28858         86.3115         18.5563         93.5806 
        1.29471         85.8159         18.3498         93.3272 
        1.30084         85.1786         18.1467         92.6011 
        1.30697         85.0557         17.9463         92.2795 
        1.31312         84.3822         17.7487         91.9166 
        1.31925         83.8271         17.5547         91.3529 
        1.32537         83.4194         17.3639         90.9331 
        1.33151         83.1709         17.1751         90.4326 
        1.33765         82.4547         16.9893         90.0425 
        1.34378         82.1212         16.8066         89.5736 
        1.34992         81.7694         16.6265         89.1577 
        1.35606         81.1268         16.4487         88.6606 
         1.3622         80.9191         16.2737         88.2564 
        1.36833         80.1382         16.1018         87.7004 
        1.37445         79.6923         15.9324         87.2848 
        1.38059         79.3769         15.7649         87.0624 
        1.38675         78.5936         15.5995         86.3643 
        1.39288         78.4399          15.437         86.1609 
        1.39901         77.7437          15.277         85.7618 
        1.40515         77.4409         15.1189         85.4646 
         1.4113         77.1096         14.9631         85.1304 
        1.41742         76.5164         14.8101         84.5008 
        1.42355          76.284         14.6589          83.987 
         1.4297          75.759         14.5094          83.676 
        1.43585         75.2737         14.3621         83.3161 
        1.44198         74.8737         14.2174         83.0487 
        1.44809         74.2853         14.0749         82.4246 
        1.45423         74.1184         13.9339         82.1087 
        1.46036         73.5409         13.7951         81.8297 
        1.46649          73.097         13.6581         81.5455 
        1.47263         72.8304         13.5229         81.1668 
        1.47877         72.4341         13.3895         80.5345 
        1.48491         71.9631         13.2578         80.3566 
        1.49104         71.3789         13.1281         79.9231 
        1.49718         71.1884         13.0001         79.5396 
        1.50333         70.8186         12.8735         79.1277 
        1.50947         70.5367         12.7489         78.7523 
         1.5156         70.2401         12.6262         78.4676 
        1.52172         69.6004          12.505         78.1725 
        1.52787         69.1988         12.3853         77.8124 
          1.534         68.8604         12.2672         77.4888 
        1.54013         68.6655         12.1508         77.0798 
        1.54627         68.0102         12.0357         76.7371 
        1.55241         67.7766         11.9221         76.4416 
        1.55855         67.3409         11.8101          75.971 
        1.56467         66.7538         11.6999         75.6706 
         1.5708         66.6117         11.5907         75.4622 
        1.57695         66.2384         11.4828         75.1734 
        1.58308         65.9212         11.3766         74.8358 
        1.58922          65.611         11.2716         74.4457 
        1.59535          65.398         11.1679         74.0894 
         1.6015         65.0791         11.0655         73.7215 
        1.60764         64.6398         10.9643         73.5112 
        1.61376         64.2431         10.8647         73.3738 
        1.61989          63.756         10.7663          72.926 
        1.62604         63.5606         10.6689         72.4568 
        1.63218         63.2738         10.5727         72.1456 
        1.63831         62.9549         10.4779          71.956 
        1.64444         62.6958         10.3843         71.6361 
        1.65059         62.2349         10.2916         71.1775 
        1.65673         61.8328         10.2001         70.9423 
        1.66285         61.4673           10.11         70.7518 
        1.66898         61.0772          10.021         70.4003 
        1.67512          60.884         9.93284         70.1801 
        1.68127         60.6455         9.84568         69.7951 
         1.6874         60.2338         9.75976         69.3861 
        1.69353         59.8985         9.67491         69.2531 
        1.69967         59.6835         9.59088         69.0171 
        1.70581         59.3045         9.50788         68.6967 
        1.71193         58.9756         9.42618         68.3964 
        1.71806         58.6374         9.34527         68.1348 
        1.72421         58.4393         9.26515         67.8087 
        1.73035         58.1701         9.18606         67.5545 
        1.73649         57.7423         9.10792          67.355 
        1.74262         57.3017         9.03075         66.9844 
        1.74876         57.2498         8.95442         66.6675 
        1.75489         56.8041         8.87913         66.4298 
        1.76101         56.5031         8.80473         66.1636 
        1.76715         56.3657         8.73108         65.8259 
        1.77329           55.88         8.65819         65.5909 
        1.77943         55.7694          8.5861          65.358 
        1.78557         55.4589         8.51493         64.9964 
        1.79171         55.1695         8.44456         64.7162 
        1.79785         54.8546         8.37497         64.5202 
        1.80399         54.5585         8.30619         64.2929 
        1.81012         54.2923         8.23826         64.0147 
        1.81625         54.0422         8.17113         63.7202 
        1.82239           53.75         8.10464          63.491 
        1.82853         53.3957         8.03893         63.3425 
        1.83466         53.1937         7.97401         63.0292 
        1.84078         52.9121         7.90988         62.6712 
        1.84692         52.7154         7.84635         62.5978 
        1.85306         52.4037         7.78344         62.3492 
         1.8592         52.1432         7.72132          61.983 
        1.86533         51.8455         7.65991         61.8238 
        1.87147         51.5847         7.59911         61.5576 
        1.87761         51.3144         7.53893         61.2287 
