# k  (h/Mpc)    P(k)  (Mpc/h)^3    P_linear(k)  (Mpc/h)^3     P_NL(k)  ShotnoiseSubtracted = false
     0.00783031         10490.2         10540.9         10499.2 
       0.013688         12898.9         13195.5         13120.3 
       0.019231         13365.9         13540.2         13439.1 
      0.0249154           12689         12669.8         12569.8 
      0.0312784         10971.2         11065.2         10970.9 
      0.0375637         9291.46         9431.15          9348.7 
      0.0433917          8127.4         8161.29         8078.37 
      0.0492413         7130.86         7207.66         7132.53 
      0.0555754         6478.73         6498.54         6431.45 
      0.0619321         5833.31         6014.79         5948.56 
       0.067871         5557.65         5655.18         5591.17 
      0.0738098         5237.94          5296.8         5196.98 
      0.0800417         4828.89         4871.48         4779.23 
      0.0862327         4340.98         4397.13         4345.76 
      0.0921407          3902.2         3929.32         3891.05 
      0.0982031         3513.59            3480         3492.68 
       0.104506          3090.9         3086.46          3141.1 
       0.110769         2820.58          2789.2         2829.43 
       0.116806         2669.47         2587.49         2626.91 
       0.122832         2503.55         2449.71         2493.52 
       0.129052         2390.46         2345.37         2381.14 
       0.135211         2328.95         2250.72         2279.29 
       0.141259          2183.8         2145.01         2183.53 
       0.147318         2033.12         2017.39         2074.51 
       0.153489         1908.22         1868.41         1908.72 
       0.159709         1805.08         1711.58         1781.81 
       0.165845         1632.77         1565.58         1679.47 
       0.171974         1571.43         1440.52         1560.91 
       0.178125         1495.12         1341.75         1489.31 
       0.184229         1381.09         1269.53          1409.4 
        0.19034         1354.98          1217.2         1350.22 
       0.196428         1316.61          1176.4         1291.86 
       0.202534         1238.43         1138.06         1252.92 
       0.208729            1220         1094.87         1197.13 
       0.214876         1170.01         1044.51         1168.85 
       0.220989         1098.93         987.692         1125.24 
       0.227147          1067.5         927.321         1075.93 
        0.23329         1020.86         868.793         1036.89 
       0.239377         1001.61         816.691         990.263 
       0.245482         947.785          772.78          939.51 
       0.251667         910.283         737.234         912.299 
       0.257832         897.773         709.344         878.091 
       0.263955         853.185         686.476         849.386 
       0.270079         827.208          665.49          825.23 
        0.27624         793.583          643.85         799.529 
       0.282372         779.345          620.31         779.742 
        0.28843         771.128          594.96         757.824 
       0.294538         731.289         568.103         737.168 
       0.300721           710.8         541.052         715.554 
        0.30691         696.746         515.601         698.671 
       0.313033         665.292         493.102         673.007 
       0.319153         654.664         473.715          653.27 
       0.325316         644.068         457.088         638.694 
        0.33145         629.587         442.749         615.125 
       0.337538         607.191         429.764         601.506 
       0.343633         590.363         417.133         594.891 
       0.349808         576.838          404.11         583.644 
       0.355968         565.775         390.586         572.831 
       0.362074         546.633         376.818         559.583 
       0.368217         543.763         362.923          542.62 
       0.374374         533.491         349.459         530.849 
       0.380519         512.283          336.88         517.726 
       0.386598         506.916         325.512         510.205 
       0.392688         494.795         315.273         495.666 
        0.39888         481.959         305.844          486.79 
       0.405048         472.902           297.2         480.161 
       0.411186         471.083         289.029         467.631 
       0.417313         465.031          281.02         458.019 
       0.423458         451.735         273.014         451.115 
       0.429607         439.292         264.977         442.328 
       0.435692          432.58         257.052         433.204 
       0.441815         425.305         249.251         429.469 
       0.447964         416.019         241.728         421.443 
       0.454126         410.952          234.59         409.987 
       0.460267         404.277         227.947         407.387 
       0.466387         397.168         221.784         399.289 
        0.47254         391.394          215.96         393.421 
       0.478662         382.673         210.453         385.813 
       0.484765         378.268         205.166         378.104 
       0.490885         374.099         199.991         373.134 
       0.497035         366.565         194.858         368.776 
       0.503198         365.669         189.798         363.382 
       0.509342         356.801         184.865         358.874 
       0.515458         351.003         180.093         355.508 
       0.521598         345.249         175.472         348.783 
       0.527764         340.169         171.032         344.277 
       0.533884         338.362         166.844         339.779 
           0.54         333.145          162.86         334.489 
       0.546137         326.009         159.028         330.615 
       0.552299         325.013         155.319         325.459 
       0.558452         319.446         151.732         321.854 
       0.564573         316.635         148.262         319.141 
       0.570708         311.686         144.865         315.767 
       0.576825         306.247         141.552         309.597 
       0.582926         304.026         138.328         306.367 
       0.589034         299.254         135.194         302.796 
       0.595184         297.081         132.145         297.831 
       0.601379         292.233         129.188         295.808 
       0.607522         286.425         126.362         292.025 
       0.613639         285.068         123.644         289.615 
       0.619772         283.603         121.007         287.271 
       0.625918         278.941         118.446         283.242 
       0.632068         275.242         115.958         279.205 
       0.638161         273.043         113.562         277.671 
         0.6443         270.282         111.212         274.694 
       0.650464         265.995         108.912         269.758 
       0.656582         263.593         106.686         267.628 
       0.662703         261.724         104.518         265.999 
       0.668861         256.857         102.398         263.117 
       0.675024         255.943         100.338         260.284 
       0.681124         252.786         98.3622         257.011 
       0.687237         250.543         96.4419         254.472 
       0.693381          247.14         94.5683         251.882 
       0.699536         245.291         92.7433         249.846 
       0.705665         242.665         90.9746          247.93 
       0.711789         240.347         89.2517         245.431 
       0.717957         237.663         87.5586         243.401 
        0.72409         234.812         85.9166         241.687 
       0.730186         236.081         84.3254         239.433 
       0.736317         231.814         82.7653         236.632 
       0.742472         229.148         81.2394         234.408 
       0.748622         226.168         79.7547         232.018 
        0.75476         226.509         78.3122         231.123 
       0.760888          223.49         76.9091         227.933 
       0.767043         220.485         75.5362         226.564 
       0.773185          219.04         74.2005         224.989 
       0.779291         216.005         72.9052         222.481 
       0.785407         215.017         71.6391         220.544 
       0.791564         212.981          70.395         219.046 
       0.797719         209.619         69.1806          217.76 
       0.803834         210.814         68.0023          215.88 
       0.809972         208.091          66.847         214.095 
       0.816124         204.958          65.716         212.272 
       0.822261         203.335         64.6141         210.629 
       0.828378         203.095          63.541         208.496 
       0.834502         200.094         62.4915         207.192 
       0.840667         200.026         61.4593         205.658 
       0.846816         196.546         60.4536          204.19 
       0.852925          195.86         59.4771         202.639 
       0.859047         193.808         58.5204         201.223 
       0.865192          193.46         57.5819         199.558 
       0.871341         190.892         56.6636         197.893 
       0.877463         189.211         55.7697         196.885 
       0.883569         188.901         54.8975         195.767 
       0.889708         186.923         54.0396         193.959 
       0.895864         185.243         53.1979         192.966 
       0.902008         183.403          52.376         191.183 
       0.908149         181.766         51.5721         189.484 
       0.914301         180.795         50.7837         188.458 
       0.920448         180.391         50.0127         187.006 
       0.926574         178.006         49.2604         185.385 
       0.932687         177.346         48.5253         184.242 
       0.938823         175.914         47.8026         183.431 
       0.944975         174.784          47.093          182.39 
       0.951105         172.967         46.4005          180.82 
       0.957225         171.997         45.7232         179.494 
       0.963368         170.955         45.0572         177.893 
       0.969511         168.632         44.4046         176.781 
       0.975621         167.406         43.7684         176.666 
       0.981748         166.559         43.1432         175.204 
       0.987916         165.697         42.5263         174.086 
        0.99406         164.411         41.9239         172.893 
        1.00019         163.358         41.3345         171.559 
        1.00632         162.375         40.7569         170.166 
        1.01246         161.036         40.1897          168.77 
        1.01859         159.729         39.6342          168.39 
        1.02471          158.51           39.09         167.798 
        1.03085         157.521         38.5541         166.552 
        1.03698          156.33         38.0295         165.464 
        1.04314         155.929         37.5125         164.396 
        1.04929         154.913         37.0064         163.464 
        1.05541         153.788         36.5116         162.552 
        1.06154         152.306         36.0248          161.65 
        1.06769         151.488         35.5461          160.82 
        1.07382         150.831         35.0778         159.782 
        1.07993         149.349         34.6189         158.714 
        1.08607          148.55         34.1665          157.98 
        1.09222         147.403         33.7217         157.265 
        1.09836         146.643         33.2854         156.221 
        1.10449         145.365         32.8574         155.263 
        1.11063         144.401         32.4364         154.025 
        1.11677         143.737          32.023         153.221 
         1.1229         142.537         31.6176         152.452 
        1.12903          141.74         31.2188         151.569 
        1.13518         140.616         30.8267         150.757 
        1.14131         139.964         30.4415         149.639 
        1.14745         138.914         30.0631         149.014 
        1.15359         137.552         29.6911         148.088 
        1.15973         137.241         29.3253         147.525 
        1.16584         136.364         28.9673         146.197 
        1.17197         135.581         28.6148         145.702 
        1.17811         134.268         28.2671         145.151 
        1.18424         133.718         27.9262         144.086 
        1.19038         132.895         27.5899         143.553 
        1.19652         131.903         27.2594         142.796 
        1.20267         131.092         26.9343         141.876 
        1.20881         130.085         26.6146         141.231 
        1.21495         129.682         26.3006         140.229 
        1.22108         128.721         25.9918         139.875 
         1.2272         127.763         25.6886         138.713 
        1.23334         127.331         25.3896         138.406 
        1.23949         126.689         25.0947         137.389 
        1.24562         125.642         24.8053         136.476 
        1.25174         124.939         24.5209         135.934 
        1.25789         123.953         24.2402         135.257 
        1.26402         123.717         23.9643         134.525 
        1.27014         122.794         23.6934         134.343 
        1.27628         121.587          23.426         133.898 
        1.28244         121.317         23.1621         132.563 
        1.28858         120.277         22.9027         131.809 
        1.29471         119.563         22.6479         131.283 
        1.30084         118.764         22.3971         130.488 
        1.30697         118.119         22.1499         130.006 
        1.31312         117.311          21.906         129.168 
        1.31925         116.461         21.6665         128.571 
        1.32537         116.046         21.4309         128.116 
        1.33151         115.561          21.198         127.323 
        1.33765         114.437         20.9687         126.801 
        1.34378         114.241         20.7432         126.153 
        1.34992         113.623         20.5209         125.426 
        1.35606         112.777         20.3014         124.733 
         1.3622         112.488         20.0855         124.222 
        1.36833         111.168         19.8733         123.441 
        1.37445         111.023         19.6642         122.861 
        1.38059         110.288         19.4575         122.276 
        1.38675         109.481         19.2533         121.538 
        1.39288         108.766         19.0528         120.924 
        1.39901         108.123         18.8553         120.574 
        1.40515         107.689         18.6602         120.122 
         1.4113         107.027         18.4679         119.576 
        1.41742         106.305          18.279         119.031 
        1.42355          106.05         18.0925         118.343 
         1.4297         105.127          17.908         117.806 
        1.43585         104.546         17.7261         117.037 
        1.44198         103.677         17.5475         116.594 
        1.44809         103.038         17.3717         116.102 
        1.45423         102.901         17.1976         115.412 
        1.46036         101.939         17.0262         114.916 
        1.46649         101.368         16.8572         114.566 
        1.47263         100.939         16.6903         114.049 
        1.47877         100.187         16.5257         113.181 
        1.48491         99.7744         16.3631           112.9 
        1.49104         98.6582         16.2031         112.547 
        1.49718         98.5154          16.045         111.618 
        1.50333         98.1029         15.8888         111.122 
        1.50947         97.5207         15.7351         110.707 
         1.5156          97.012         15.5836         110.197 
        1.52172         96.2433         15.4341         109.754 
        1.52787         95.8254         15.2862         109.146 
          1.534         95.2298         15.1405         108.721 
        1.54013         94.7906         14.9969         108.234 
        1.54627         94.0029         14.8548         107.731 
        1.55241         93.8108         14.7146         107.299 
        1.55855         93.0192         14.5764          106.71 
        1.56467         92.3675         14.4403         106.207 
         1.5708         91.7646         14.3056         105.797 
        1.57695         91.5257         14.1724         105.336 
        1.58308         90.9098         14.0413         104.821 
        1.58922         90.8462         13.9117         104.309 
        1.59535         90.3455         13.7838         103.871 
         1.6015         89.4391         13.6573         103.352 
        1.60764         88.9151         13.5325         102.941 
        1.61376         88.5048         13.4096          102.73 
        1.61989         88.0571         13.2881         102.259 
        1.62604         87.5361         13.1678         101.512 
        1.63218         87.1553         13.0491         101.038 
        1.63831         86.5636         12.9322         100.859 
        1.64444         86.0056         12.8166         100.305 
        1.65059         85.5414         12.7022         99.6979 
        1.65673         85.2372         12.5893         99.3547 
        1.66285         84.6652         12.4781         99.0294 
        1.66898         84.0703         12.3682         98.5033 
        1.67512         83.6595         12.2594         98.1202 
        1.68127          83.296         12.1518         97.6225 
         1.6874          82.639         12.0458         97.1365 
        1.69353         82.1653          11.941         96.8955 
        1.69967         81.8143         11.8373         96.4538 
        1.70581         81.4952         11.7349         95.9211 
        1.71193         80.8851         11.6341         95.5245 
        1.71806         80.4824         11.5342         95.3064 
        1.72421         79.9776         11.4353         94.8631 
        1.73035          79.666         11.3377         94.2857 
        1.73649         79.0787         11.2412         93.8251 
        1.74262         78.6769          11.146          93.591 
        1.74876         78.2356         11.0518         93.2013 
        1.75489         77.8141         10.9589         92.6946 
        1.76101         77.3395          10.867         92.2461 
        1.76715         76.9268         10.7761          91.862 
        1.77329         76.5234         10.6862         91.5357 
        1.77943         76.1941         10.5972         91.1534 
        1.78557         75.7749         10.5094         90.6757 
        1.79171         75.3036         10.4225         90.3134 
        1.79785         74.7411         10.3366         90.0213 
        1.80399           74.65         10.2517         89.6428 
        1.81012         73.9984         10.1679         89.1972 
        1.81625         73.5979          10.085          88.783 
        1.82239         73.2645          10.003         88.4526 
        1.82853         72.7816         9.92187         88.1585 
        1.83466         72.2995         9.84174         87.7568 
        1.84078         72.0949         9.76259         87.3579 
        1.84692         71.8875         9.68418          87.175 
        1.85306         71.3742         9.60654         86.7757 
         1.8592         70.9956         9.52987         86.2696 
        1.86533         70.5591         9.45408         85.9498 
        1.87147         70.1733         9.37903         85.4425 
        1.87761          69.602         9.30476         85.0475 
