# k  (h/Mpc)    P(k)  (Mpc/h)^3    P_linear(k)  (Mpc/h)^3     P_NL(k)  ShotnoiseSubtracted = false
     0.00783031         1644.89         1655.77         1649.65 
       0.013688         2049.42         2073.88         2065.09 
       0.019231         2117.23         2128.55         2117.86 
      0.0249154         1993.41         1991.98         1984.51 
      0.0312784         1737.26         1739.86         1736.54 
      0.0375637         1477.97         1482.99         1481.02 
      0.0433917         1285.79         1283.36          1282.5 
      0.0492413          1132.1         1133.43         1133.04 
      0.0555754         1025.46         1021.94         1021.23 
      0.0619321         937.416         945.876         944.952 
       0.067871         887.316         889.334         887.844 
      0.0738098         832.247         832.983         830.277 
      0.0800417         767.153         766.101         763.603 
      0.0862327         690.673         691.507         690.273 
      0.0921407          617.35         617.941         617.401 
      0.0982031         550.094          547.28         548.385 
       0.104506          484.77         485.392         487.806 
       0.110769         439.144         438.645         440.567 
       0.116806         410.911         406.923         408.661 
       0.122832         386.428         385.257         387.056 
       0.129052         371.101         368.848         370.225 
       0.135211         357.523         353.964         355.123 
       0.141259         338.737          337.34         338.678 
       0.147318         316.599         317.269          319.37 
       0.153489          294.72         293.839         295.364 
       0.159709         272.089         269.176         271.669 
       0.165845         246.562         246.215         250.224 
       0.171974         231.352         226.547         230.565 
       0.178125         215.882         211.014         215.886 
       0.184229         202.805         199.657         204.423 
        0.19034         196.259         191.426         195.841 
       0.196428         189.426          185.01         188.547 
       0.202534          180.57          178.98         182.476 
       0.208729         175.706         172.189         175.481 
       0.214876         168.815         164.268         168.446 
       0.220989          157.44         155.333         159.884 
       0.227147         150.697         145.838         150.556 
        0.23329         142.152         136.634         142.145 
       0.239377          134.87          128.44         134.317 
       0.245482         127.361         121.534         126.973 
       0.251667         121.079         115.944         121.741 
       0.257832         118.214         111.558         117.107 
       0.263955             113         107.961         113.167 
       0.270079         109.394         104.661         109.647 
        0.27624         105.169         101.258         105.961 
       0.282372         101.702         97.5555         102.509 
        0.28843          99.338         93.5688         98.6414 
       0.294538          94.658         89.3451         94.6639 
       0.300721         89.8429         85.0907         90.7806 
        0.30691         87.0451          81.088         86.9227 
       0.313033         83.1045         77.5496         83.2514 
       0.319153         81.0973         74.5007         80.3625 
       0.325316         77.3758         71.8859         77.8325 
        0.33145         74.9113         69.6307         75.2362 
       0.337538         72.8637         67.5886         72.9943 
       0.343633         70.8944         65.6022         71.0228 
       0.349808         68.6141         63.5541         69.1024 
       0.355968         66.3734         61.4272         67.3488 
       0.362074         64.8335         59.2619         65.0433 
       0.368217         62.6854         57.0767         62.5749 
       0.374374         61.0332         54.9591         60.7064 
       0.380519         58.3002         52.9808         58.6198 
       0.386598         56.4714         51.1931         56.8931 
       0.392688         54.6873         49.5828         55.3022 
        0.39888         53.5709         48.0999         53.6776 
       0.405048         52.2659         46.7405         52.1833 
       0.411186         50.8401         45.4554         51.1631 
       0.417313         49.4208         44.1958         49.6457 
       0.423458         47.9866         42.9368         48.4669 
       0.429607         47.0851         41.6728         47.1087 
       0.435692         46.1115         40.4264         45.9586 
       0.441815         44.3393         39.1996           44.94 
       0.447964         42.8725         38.0164         43.5967 
       0.454126         42.0744         36.8939         42.3781 
       0.460267         41.5126         35.8491         41.4636 
       0.466387           40.28         34.8798          40.325 
        0.47254         39.6111         33.9639         39.4613 
       0.478662         38.3581         33.0978         38.5157 
       0.484765         37.5212         32.2664         37.5887 
       0.490885          36.449         31.4525         36.9696 
       0.497035         35.7682         30.6453         36.2118 
       0.503198         34.9625         29.8495         35.1942 
       0.509342         33.9651         29.0736         34.4996 
       0.515458         33.4636         28.3231         33.9174 
       0.521598         32.6449         27.5963         32.9063 
       0.527764         32.1529         26.8981         32.0844 
       0.533884         31.3149         26.2395         31.4324 
           0.54         30.6699         25.6128           30.78 
       0.546137         29.7352         25.0102         30.2601 
       0.552299         29.2163          24.427         29.4835 
       0.558452         28.5752         23.8629         28.8923 
       0.564573         28.2266          23.317         28.4977 
       0.570708         27.4899         22.7829         27.9177 
       0.576825         27.0767         22.2618         27.3529 
       0.582926         26.5451         21.7548         26.8608 
       0.589034         26.0028         21.2619         26.4245 
       0.595184         25.6329         20.7824         25.7446 
       0.601379         24.9217         20.3173         25.4173 
       0.607522         24.4992         19.8728         24.8489 
       0.613639         24.0436         19.4454         24.3879 
       0.619772         23.6302         19.0307         24.0065 
       0.625918         23.1245         18.6279         23.5845 
       0.632068         22.8973         18.2367         23.1023 
       0.638161         22.3936         17.8599         22.7006 
         0.6443         22.0085         17.4902         22.2682 
       0.650464         21.4529         17.1285         21.9799 
       0.656582         21.2853         16.7784          21.594 
       0.662703         20.9898         16.4374         21.1846 
       0.668861         20.4205          16.104           20.91 
       0.675024         20.1184         15.7801          20.466 
       0.681124         20.0078         15.4694         20.1359 
       0.687237         19.5757         15.1674         19.7569 
       0.693381         19.1192         14.8727         19.4341 
       0.699536         19.0035         14.5857         19.1642 
       0.705665         18.6234         14.3075         18.9414 
       0.711789         18.2674         14.0366         18.5647 
       0.717957         17.8728         13.7703         18.2708 
        0.72409         17.7149         13.5121         18.0309 
       0.730186         17.5912         13.2618         17.7127 
       0.736317         17.1931         13.0165         17.4359 
       0.742472         16.9717         12.7765         17.2679 
       0.748622         16.6824          12.543          16.954 
        0.75476         16.2489         12.3161         16.6873 
       0.760888          16.162         12.0955         16.4731 
       0.767043         15.8559         11.8795         16.2636 
       0.773185         15.6617         11.6695         16.0242 
       0.779291          15.522         11.4658         15.8184 
       0.785407         15.2306         11.2667         15.5673 
       0.791564         15.0747          11.071         15.3618 
       0.797719         14.7422           10.88         15.1193 
       0.803834         14.6619         10.6947         14.8943 
       0.809972         14.3659          10.513         14.7631 
       0.816124         14.1915         10.3351         14.5116 
       0.822261         14.0151         10.1618         14.3068 
       0.828378          13.834         9.99307          14.123 
       0.834502         13.6679         9.82802         13.9663 
       0.840667         13.5196         9.66568         13.7525 
       0.846816         13.2178         9.50752         13.5955 
       0.852925          13.134         9.35394         13.4794 
       0.859047         12.9541         9.20349          13.266 
       0.865192         12.7628         9.05589         13.0896 
       0.871341         12.5815         8.91147         12.9582 
       0.877463         12.4294         8.77088           12.77 
       0.883569         12.3283         8.63371         12.6254 
       0.889708         12.1143         8.49879         12.4656 
       0.895864         11.9587         8.36642         12.2949 
       0.902008            11.8         8.23716         12.1733 
       0.908149         11.6315         8.11072         12.0206 
       0.914301         11.5548         7.98674         11.9226 
       0.920448         11.3742         7.86547         11.7213 
       0.926574         11.2922         7.74717         11.6002 
       0.932687         11.1095         7.63155         11.4051 
       0.938823         10.9516          7.5179         11.3204 
       0.944975         10.8678         7.40631         11.1899 
       0.951105         10.7121          7.2974         11.0221 
       0.957225         10.6394         7.19088         10.9619 
       0.963368         10.4722         7.08614         10.8071 
       0.969511         10.3531         6.98349         10.7023 
       0.975621         10.2372         6.88345          10.556 
       0.981748         10.0861         6.78512         10.4531 
       0.987916          10.005          6.6881         10.3383 
        0.99406         9.90303         6.59336         10.2338 
        1.00019         9.80759         6.50066         10.1428 
        1.00632         9.70826         6.40983         10.0242 
        1.01246         9.59124         6.32062         9.95378 
        1.01859         9.46737         6.23326          9.8142 
        1.02471         9.33925         6.14767         9.67541 
        1.03085         9.29939          6.0634         9.59572 
        1.03698         9.19378         5.98089         9.51319 
        1.04314         9.07733         5.89958         9.39935 
        1.04929         8.94276         5.81998         9.31531 
        1.05541          8.8865         5.74217         9.23403 
        1.06154          8.7981         5.66561          9.1291 
        1.06769         8.73679         5.59033         9.04304 
        1.07382         8.58387         5.51667         8.95676 
        1.07993         8.50316         5.44451         8.86422 
        1.08607         8.45183         5.37335         8.76945 
        1.09222         8.33074          5.3034         8.68543 
        1.09836          8.3054         5.23479         8.58242 
        1.10449         8.14785         5.16747         8.50655 
        1.11063         8.11966         5.10127         8.43439 
        1.11677         8.04228         5.03625         8.35111 
         1.1229         7.96466         4.97249         8.28245 
        1.12903         7.89398         4.90978         8.22732 
        1.13518         7.77372          4.8481         8.14027 
        1.14131          7.7103         4.78752         8.04665 
        1.14745           7.604         4.72802         7.95767 
        1.15359          7.5404         4.66951         7.90008 
        1.15973         7.46897         4.61198         7.82547 
        1.16584         7.40725         4.55568          7.7788 
        1.17197         7.32905         4.50024         7.70007 
        1.17811         7.25809         4.44555         7.61489 
        1.18424         7.19951         4.39194         7.55491 
        1.19038         7.14559         4.33906         7.48529 
        1.19652         7.08331         4.28708         7.42642 
        1.20267         7.01852         4.23595         7.34648 
        1.20881         6.93328         4.18567         7.30594 
        1.21495         6.87822         4.13629         7.23714 
        1.22108         6.82323         4.08772         7.17793 
         1.2272         6.75139         4.04004         7.09729 
        1.23334           6.728         3.99302         7.05127 
        1.23949         6.63912         3.94664         7.00084 
        1.24562         6.58472         3.90113          6.9313 
        1.25174         6.54234          3.8564         6.87281 
        1.25789         6.43977         3.81224         6.81296 
        1.26402         6.41605         3.76886         6.74743 
        1.27014          6.3718         3.72626         6.70389 
        1.27628         6.28621         3.68419         6.65242 
        1.28244         6.26347          3.6427         6.60129 
        1.28858         6.21588          3.6019          6.5428 
        1.29471         6.12439         3.56182         6.49413 
        1.30084         6.07359         3.52239         6.45532 
        1.30697         6.05398         3.48351         6.38803 
        1.31312         5.98813         3.44515         6.34275 
        1.31925         5.93808         3.40749         6.30671 
        1.32537         5.89609         3.37044         6.25697 
        1.33151          5.8398         3.33381         6.20362 
        1.33765         5.78965         3.29774         6.14594 
        1.34378         5.77481         3.26228         6.10884 
        1.34992         5.70798         3.22732         6.06121 
        1.35606         5.66431          3.1928         6.00187 
         1.3622         5.61289         3.15884         5.95814 
        1.36833         5.56932         3.12546         5.93801 
        1.37445         5.51875         3.09258         5.88391 
        1.38059         5.47517         3.06008         5.83057 
        1.38675         5.43379         3.02796         5.79288 
        1.39288         5.39268         2.99643         5.75668 
        1.39901           5.338         2.96537          5.7155 
        1.40515         5.30466         2.93468         5.67089 
         1.4113         5.26133         2.90444         5.62874 
        1.41742         5.22814         2.87474         5.58946 
        1.42355         5.17938          2.8454         5.54446 
         1.4297         5.14854         2.81638         5.51117 
        1.43585         5.11466         2.78778         5.47995 
        1.44198         5.06619         2.75969          5.4274 
        1.44809         5.03715         2.73204         5.40046 
        1.45423         4.99007         2.70466          5.3589 
        1.46036          4.9636         2.67772         5.32216 
        1.46649         4.91982         2.65113         5.29019 
        1.47263         4.89357         2.62488         5.25363 
        1.47877         4.85346           2.599         5.21214 
        1.48491         4.82404         2.57343         5.18087 
        1.49104         4.77835         2.54825         5.14312 
        1.49718         4.75621          2.5234         5.10965 
        1.50333          4.7154         2.49884         5.07892 
        1.50947         4.66827         2.47465         5.04523 
         1.5156         4.65456         2.45083         5.01347 
        1.52172         4.61876         2.42731         4.98199 
        1.52787         4.58757         2.40406         4.93514 
          1.534         4.55023         2.38115         4.90601 
        1.54013         4.52683         2.35855         4.87872 
        1.54627         4.49041         2.33621         4.84818 
        1.55241          4.4497         2.31416         4.81723 
        1.55855         4.43411         2.29242         4.77552 
        1.56467         4.40199         2.27103         4.75633 
         1.5708         4.36807         2.24984         4.73244 
        1.57695         4.32633          2.2289         4.69287 
        1.58308         4.29444         2.20827          4.6668 
        1.58922         4.28175         2.18789         4.64492 
        1.59535         4.25013         2.16777         4.61476 
         1.6015         4.21019         2.14788          4.5801 
        1.60764         4.19292         2.12825          4.5533 
        1.61376         4.16463         2.10892         4.53269 
        1.61989         4.12229         2.08981         4.50393 
        1.62604         4.10364          2.0709         4.47178 
        1.63218         4.08181         2.05223         4.44772 
        1.63831         4.06071         2.03384         4.42512 
        1.64444         4.02377         2.01567         4.39118 
        1.65059         4.00358         1.99767         4.36678 
        1.65673         3.97759         1.97992         4.34135 
        1.66285         3.95192         1.96243         4.31517 
        1.66898         3.92295         1.94514         4.29199 
        1.67512         3.89618         1.92803         4.26681 
        1.68127         3.86918         1.91111         4.24468 
         1.6874         3.85164         1.89444         4.22342 
        1.69353         3.81545         1.87797           4.196 
        1.69967         3.80047         1.86166         4.16545 
        1.70581         3.77208         1.84555         4.14466 
        1.71193          3.7514         1.82969         4.12892 
        1.71806         3.72843         1.81398         4.10191 
        1.72421         3.70379         1.79843         4.07549 
        1.73035         3.67999         1.78308         4.05165 
        1.73649         3.65608         1.76791         4.02897 
        1.74262         3.63484         1.75293         4.00881 
        1.74876         3.62082         1.73811            3.99 
        1.75489         3.59167          1.7235          3.9657 
        1.76101         3.56547         1.70906         3.93641 
        1.76715         3.55708         1.69476         3.91544 
        1.77329         3.53101         1.68061         3.89861 
        1.77943         3.50119         1.66662         3.87893 
        1.78557         3.48904         1.65281         3.85537 
        1.79171         3.46914         1.63915         3.83203 
        1.79785         3.45028         1.62564         3.81122 
        1.80399         3.41818         1.61229         3.79314 
        1.81012         3.40642          1.5991         3.77619 
        1.81625         3.38228         1.58607         3.75638 
        1.82239         3.36765         1.57317         3.73625 
        1.82853         3.34412         1.56041         3.72136 
        1.83466         3.31503         1.54781         3.70485 
        1.84078         3.29926         1.53536         3.68241 
        1.84692         3.28148         1.52303         3.65611 
        1.85306         3.26125         1.51082         3.63416 
         1.8592         3.25013         1.49876         3.61932 
        1.86533         3.22933         1.48684         3.60562 
        1.87147          3.2126         1.47504         3.58757 
        1.87761         3.19772         1.46336         3.56817 
