# k  (h/Mpc)    Pcb(k)  (Mpc/h)^3    Pcb_linear(k) (Mpc/h)^3    Pcb_NL(k) (Mpc/h)^3   ShotnoiseSubtracted = false
     0.00783031           17391         17464.2         17387.5 
       0.013688         21247.6         21858.6         21707.6 
       0.019231           22040         22427.9         22217.3 
      0.0249154         20994.5         20985.2         20752.6 
      0.0312784         18074.7           18327         18078.5 
      0.0375637         15276.4         15620.1         15397.4 
      0.0433917         13386.4         13516.8         13284.9 
      0.0492413         11731.7         11937.3         11723.2 
      0.0555754         10655.4         10762.7         10573.9 
      0.0619321         9538.45          9961.5          9777.3 
       0.067871         9096.13          9365.9         9191.24 
      0.0738098         8600.49         8772.33         8505.16 
      0.0800417            7916         8067.91         7822.07 
      0.0862327         7119.88         7282.29         7140.35 
      0.0921407         6427.03         6507.52         6399.44 
      0.0982031         5817.78         5763.36         5781.24 
       0.104506         5127.15          5111.6         5235.04 
       0.110769            4699         4619.29         4714.49 
       0.116806         4456.27         4285.22         4378.68 
       0.122832         4193.19         4057.05         4159.48 
       0.129052         3976.44         3884.24         3970.15 
       0.135211         3893.19         3727.49         3791.39 
       0.141259          3633.9         3552.42         3644.71 
       0.147318         3395.12         3341.05         3469.88 
       0.153489         3197.25         3094.32         3191.32 
       0.159709         3058.13         2834.59         3003.07 
       0.165845         2781.61         2592.79         2858.98 
       0.171974         2684.72         2385.67         2676.27 
       0.178125         2582.88          2222.1         2573.13 
       0.184229         2374.49          2102.5          2431.7 
        0.19034         2344.91         2015.83         2332.36 
       0.196428         2283.37         1948.26         2236.26 
       0.202534         2157.24         1884.76          2170.5 
       0.208729         2119.01         1813.25         2068.07 
       0.214876         2027.52         1729.84         2024.98 
       0.220989         1931.95         1635.74         1964.02 
       0.227147         1874.42         1535.76         1897.44 
        0.23329         1797.31         1438.83         1837.28 
       0.239377         1784.29         1352.54         1760.34 
       0.245482          1699.1         1279.82         1678.69 
       0.251667         1636.85         1220.95         1633.55 
       0.257832         1608.48         1174.76         1575.82 
       0.263955         1539.51         1136.89         1529.22 
       0.270079         1502.92         1102.13         1487.78 
        0.27624         1441.29         1066.29         1445.73 
       0.282372         1426.73         1027.31         1421.59 
        0.28843         1398.48         985.325         1393.07 
       0.294538         1337.26         940.846         1354.83 
       0.300721         1313.64         896.047         1314.71 
        0.30691         1278.87         853.896         1295.14 
       0.313033         1231.39         816.633         1252.02 
       0.319153         1218.67         784.527         1214.84 
       0.325316          1203.2         756.996         1192.99 
        0.33145         1176.17         733.244         1150.39 
       0.337538         1139.19         711.739         1131.83 
       0.343633         1114.16         690.824         1119.59 
       0.349808         1095.32         669.251         1102.79 
       0.355968         1072.24         646.857         1084.42 
       0.362074         1041.23         624.056            1065 
       0.368217         1037.81         601.044         1039.23 
       0.374374         1021.25         578.746         1019.31 
       0.380519         986.705         557.913         998.277 
       0.386598         982.097         539.087         984.793 
       0.392688          955.72          522.13          961.63 
        0.39888          938.82         506.515         946.028 
       0.405048         919.082         492.198         930.158 
       0.411186         916.313         478.664          913.61 
       0.417313         910.637         465.403         902.183 
       0.423458         884.404         452.145         887.152 
       0.429607         861.515         438.833         872.616 
       0.435692         853.607         425.708         854.761 
       0.441815         837.069          412.79         851.434 
       0.447964         827.951         400.331          840.01 
       0.454126         817.059         388.508         816.113 
       0.460267         807.396         377.508         814.185 
       0.466387         792.764           367.3           799.4 
        0.47254         781.107         357.655         788.198 
       0.478662         769.832         348.535         776.375 
       0.484765         761.272         339.781         767.686 
       0.490885          753.28         331.206         753.769 
       0.497035         738.576         322.709         747.135 
       0.503198          737.53         314.328         738.769 
       0.509342         723.798         306.158         726.289 
       0.515458         709.548         298.255         721.572 
       0.521598         708.971         290.602         714.057 
       0.527764         692.006         283.249         706.709 
       0.533884         684.021         276.313         698.157 
           0.54         679.664         269.715         689.404 
       0.546137         670.389         263.369         681.237 
       0.552299         665.643         257.227         671.881 
       0.558452         657.356         251.286         666.798 
       0.564573         653.818         245.539         661.083 
       0.570708         645.942         239.913         653.231 
       0.576825         633.223         234.427         644.108 
       0.582926          631.46         229.088         639.405 
       0.589034         622.905         223.897          629.55 
       0.595184         615.944         218.848         623.811 
       0.601379         606.752          213.95         618.065 
       0.607522         597.781          209.27         609.079 
       0.613639         597.041         204.768         607.381 
       0.619772         591.704         200.402          605.68 
       0.625918         582.859          196.16         596.721 
       0.632068         580.024         192.041         593.396 
       0.638161         572.051         188.073         584.103 
         0.6443         565.892          184.18         579.855 
       0.650464          561.47          180.37         571.471 
       0.656582         556.853         176.684         568.316 
       0.662703         550.479         173.093         564.502 
       0.668861         543.779         169.582         561.688 
       0.675024          541.51         166.172         557.462 
       0.681124         530.204         162.899         548.646 
       0.687237         530.623         159.719         543.735 
       0.693381         521.929         156.616         539.035 
       0.699536         522.897         153.594         535.437 
       0.705665         514.233         150.665         528.818 
       0.711789         513.231         147.811         525.073 
       0.717957         506.386         145.007         524.276 
        0.72409         502.099         142.288         518.383 
       0.730186         500.882         139.653         513.132 
       0.736317         493.553         137.069         509.437 
       0.742472         488.427         134.542          505.57 
       0.748622          487.35         132.083         500.724 
        0.75476         480.264         129.694          501.58 
       0.760888         478.431         127.371          495.05 
       0.767043         475.237         125.097         489.315 
       0.773185         470.968         122.885         486.336 
       0.779291         466.307         120.739         482.255 
       0.785407         462.698         118.643         479.655 
       0.791564         460.373         116.582          477.37 
       0.797719         453.079         114.571         472.402 
       0.803834         453.698          112.62         469.995 
       0.809972         446.563         110.706         466.911 
       0.816124         443.443         108.833         460.792 
       0.822261         440.467         107.009          458.91 
       0.828378         438.655         105.231         455.539 
       0.834502         431.428         103.493         454.026 
       0.840667         430.284         101.784         449.917 
       0.846816         426.295         100.118         446.582 
       0.852925         425.774          98.501         444.014 
       0.859047         420.592         96.9167         439.904 
       0.865192         418.355         95.3624         436.734 
       0.871341         413.296         93.8416         434.471 
       0.877463         412.598         92.3611         431.711 
       0.883569         408.616         90.9166         429.811 
       0.889708         403.981         89.4959         425.492 
       0.895864         399.652          88.102         423.193 
       0.902008         398.802         86.7408          420.17 
       0.908149          394.81         85.4093         416.363 
       0.914301         393.323         84.1038         413.079 
       0.920448         388.323         82.8268          411.79 
       0.926574         386.526         81.5809         408.701 
       0.932687          385.17         80.3635         405.468 
       0.938823         380.816         79.1666          404.91 
       0.944975         379.562         77.9916         401.332 
       0.951105          376.08         76.8447         398.304 
       0.957225         371.457          75.723         396.307 
       0.963368         371.537           74.62         393.941 
       0.969511         366.486         73.5391         391.512 
       0.975621         364.089         72.4856         388.649 
       0.981748         362.714         71.4502         386.473 
       0.987916         360.112         70.4286         384.699 
        0.99406         356.162         69.4309         382.097 
        1.00019         352.865         68.4547         378.541 
        1.00632         352.072         67.4982         376.232 
        1.01246         348.819         66.5588         373.661 
        1.01859         346.024         65.6388         371.243 
        1.02471         344.144         64.7375          369.58 
        1.03085         342.385         63.8501         368.248 
        1.03698         340.033         62.9813         366.658 
        1.04314         337.338         62.1251         363.834 
        1.04929          336.16         61.2869         360.603 
        1.05541         332.368         60.4675         358.411 
        1.06154         329.944         59.6612         356.739 
        1.06769         327.403         58.8685         354.211 
        1.07382         324.404         58.0928         352.186 
        1.07993         324.101          57.333         350.533 
        1.08607          322.13         56.5837         347.806 
        1.09222         318.803         55.8471         345.913 
        1.09836         316.983         55.1245         344.724 
        1.10449          314.58         54.4156         342.657 
        1.11063         313.332         53.7185         339.892 
        1.11677         309.676         53.0339         338.118 
         1.1229         308.592         52.3624         336.214 
        1.12903         305.743         51.7021         334.521 
        1.13518         304.133         51.0526         332.027 
        1.14131         302.244         50.4146         330.534 
        1.14745         299.379          49.788         328.027 
        1.15359         296.836         49.1719         327.055 
        1.15973         295.418         48.5661         324.967 
        1.16584         293.793         47.9732         323.571 
        1.17197         291.715         47.3894         321.893 
        1.17811         288.364         46.8135         319.682 
        1.18424          287.58          46.249         318.038 
        1.19038         285.918         45.6922          316.91 
        1.19652         282.995         45.1448         314.369 
        1.20267         281.764         44.6064         312.714 
        1.20881         280.087         44.0769         311.196 
        1.21495         277.631         43.5569         309.081 
        1.22108         276.472         43.0454         307.038 
         1.2272         272.877         42.5433         305.629 
        1.23334         271.656         42.0482         303.831 
        1.23949         269.988         41.5598         302.422 
        1.24562          268.77         41.0805         300.597 
        1.25174         267.122         40.6095         299.107 
        1.25789         264.433         40.1445         297.322 
        1.26402          263.37         39.6877         296.422 
        1.27014         261.708         39.2391         294.133 
        1.27628         259.973         38.7961          293.42 
        1.28244         257.177         38.3591         292.105 
        1.28858         256.362         37.9295         290.155 
        1.29471         254.703         37.5075         287.719 
        1.30084         254.046         37.0923         286.393 
        1.30697         250.993         36.6828         285.333 
        1.31312         249.632         36.2789         283.544 
        1.31925         248.241         35.8823         282.058 
        1.32537         247.143         35.4921         280.201 
        1.33151         244.407         35.1064         279.025 
        1.33765         242.681         34.7266         277.833 
        1.34378         242.003         34.3532         276.147 
        1.34992         239.327          33.985         274.479 
        1.35606         237.999         33.6215         272.757 
         1.3622         236.116         33.2639         271.919 
        1.36833          235.94         32.9124         270.894 
        1.37445         234.592         32.5662         268.294 
        1.38059          231.48         32.2239         267.721 
        1.38675         230.086         31.8857         266.724 
        1.39288         229.543         31.5537         264.493 
        1.39901         227.252         31.2266         263.123 
        1.40515          226.16         30.9034         261.623 
         1.4113         224.451         30.5849         260.097 
        1.41742         222.851         30.2722         259.047 
        1.42355         221.677         29.9632         257.547 
         1.4297           220.2         29.6577         256.033 
        1.43585         218.702         29.3565         255.556 
        1.44198         217.261         29.0607         253.855 
        1.44809         216.022         28.7695         252.707 
        1.45423         214.695         28.4812         250.706 
        1.46036         213.931         28.1974         249.761 
        1.46649         212.053         27.9174         248.852 
        1.47263         210.294          27.641         247.197 
        1.47877         209.191         27.3685         245.667 
        1.48491         207.582         27.0992         244.228 
        1.49104         205.548         26.8341         243.327 
        1.49718         204.927         26.5724         242.663 
        1.50333         203.379         26.3138         241.178 
        1.50947         201.979         26.0591         239.947 
         1.5156         200.852         25.8082         238.772 
        1.52172         199.433         25.5606         237.159 
        1.52787         198.234         25.3158          236.26 
          1.534         197.586         25.0745         235.051 
        1.54013         195.679         24.8365          233.88 
        1.54627         194.682         24.6013         233.011 
        1.55241         193.633         24.3691         231.906 
        1.55855          192.18         24.1402         230.554 
        1.56467         190.986         23.9148         229.186 
         1.5708         189.459         23.6918         228.033 
        1.57695         188.871         23.4712         226.951 
        1.58308         187.672          23.254         225.736 
        1.58922         185.957         23.0394         224.586 
        1.59535         184.752         22.8275         223.724 
         1.6015         183.864         22.6181         222.812 
        1.60764         182.422         22.4113         221.559 
        1.61376         181.148         22.2078         220.268 
        1.61989         180.006         22.0066         219.213 
        1.62604         179.142         21.8074         218.047 
        1.63218         177.719         21.6109         217.007 
        1.63831         176.893         21.4172         216.107 
        1.64444         175.403         21.2258         215.045 
        1.65059         174.507         21.0363         214.121 
        1.65673         173.393         20.8493         213.026 
        1.66285         172.194         20.6651         211.821 
        1.66898         171.293         20.4831         210.764 
        1.67512         170.038          20.303         209.871 
        1.68127         168.981         20.1248           208.9 
         1.6874         167.931         19.9492         207.902 
        1.69353         167.267         19.7758         206.996 
        1.69967         165.805          19.604         205.936 
        1.70581          165.01         19.4343         205.029 
        1.71193         163.713         19.2673         204.096 
        1.71806         162.637          19.102         202.725 
        1.72421         161.724         18.9382         201.844 
        1.73035         160.587         18.7765         201.023 
        1.73649         159.289         18.6168         199.953 
        1.74262         158.567         18.4591         199.054 
        1.74876         157.613          18.303         198.139 
        1.75489         157.006         18.1492         197.251 
        1.76101         155.855         17.9971         196.463 
        1.76715         154.743         17.8465         195.616 
        1.77329         153.625         17.6975         194.651 
        1.77943         152.646         17.5502         193.625 
        1.78557         151.545         17.4047         192.639 
        1.79171         150.949         17.2609         191.785 
        1.79785          149.69         17.1186         190.911 
        1.80399         148.925          16.978         189.945 
        1.81012         148.447         16.8392         189.328 
        1.81625         146.777          16.702         188.498 
        1.82239         146.451         16.5661         187.338 
        1.82853          145.31         16.4318         186.465 
        1.83466         144.083         16.2991         185.534 
        1.84078         143.437          16.168         184.619 
        1.84692         142.798         16.0381         184.087 
        1.85306           141.7         15.9095         183.074 
         1.8592         140.954         15.7826         181.976 
        1.86533         139.592          15.657         181.567 
        1.87147         138.829         15.5328         180.968 
