# k  (h/Mpc)    P(k)  (Mpc/h)^3    P_linear(k)  (Mpc/h)^3     P_NL(k)  ShotnoiseSubtracted = false
     0.00783031         4586.45         4612.82         4595.86 
       0.013688         5681.86            5776         5748.87 
       0.019231         5878.46         5927.59         5893.01 
      0.0249154         5555.95         5546.92         5518.68 
      0.0312784         4826.36         4844.64         4825.01 
      0.0375637         4097.77          4129.3         4113.74 
      0.0433917         3574.49         3573.37         3559.84 
      0.0492413         3141.92         3155.87         3144.45 
      0.0555754         2851.59         2845.41         2834.63 
      0.0619321          2588.5         2633.62         2622.64 
       0.067871         2459.11         2476.18         2464.54 
      0.0738098          2310.7         2319.27         2300.14 
      0.0800417         2131.41         2133.04          2115.4 
      0.0862327          1916.9         1925.35         1916.25 
      0.0921407         1716.52         1720.52         1714.63 
      0.0982031         1536.28         1523.77         1528.83 
       0.104506         1351.26         1351.46          1365.4 
       0.110769         1227.59          1221.3         1231.72 
       0.116806         1155.59         1132.98         1143.03 
       0.122832         1083.79         1072.65         1083.69 
       0.129052         1040.07         1026.97         1035.88 
       0.135211         1006.63         985.523         993.215 
       0.141259         949.657         939.237         948.607 
       0.147318         884.713         883.355         897.642 
       0.153489         826.645         818.121         828.076 
       0.159709          770.89         749.451         765.975 
       0.165845         696.332         685.522         712.313 
       0.171974         662.485         630.761         658.034 
       0.178125         622.353         587.515         620.964 
       0.184229         580.452         555.893         588.287 
        0.19034          565.01         532.976         563.345 
       0.196428         546.896         515.111         540.178 
       0.202534         516.761         498.324         523.299 
       0.208729         506.785         479.415         502.284 
       0.214876         487.491         457.362         486.119 
       0.220989         453.665         432.483         463.912 
       0.227147         438.709         406.048          439.08 
        0.23329         416.922         380.421         418.632 
       0.239377         401.023         357.607         397.788 
       0.245482         378.361         338.379         376.043 
       0.251667         361.088         322.815         362.845 
       0.257832         355.652         310.603         349.007 
       0.263955         337.443         300.589         337.112 
       0.270079         326.367           291.4         326.823 
        0.27624         313.445         281.925         315.731 
       0.282372         304.856         271.617         306.478 
        0.28843         301.286         260.517         295.937 
       0.294538         286.116         248.757          286.08 
       0.300721         273.613         236.912         276.533 
        0.30691         267.707         225.768         266.714 
       0.313033         255.289         215.916         255.957 
       0.319153         250.092         207.427         248.072 
       0.325316         241.823         200.147         241.363 
        0.33145         234.987         193.868         232.788 
       0.337538         227.528         188.182          226.15 
       0.343633         220.644         182.652          221.73 
       0.349808         214.375         176.949          216.63 
       0.355968         208.936         171.027         211.912 
       0.362074         203.935         164.999         205.682 
       0.368217         199.619         158.915         198.445 
       0.374374         194.465         153.019          193.35 
       0.380519         186.046         147.511         187.552 
       0.386598         182.124         142.533         182.917 
       0.392688         176.949          138.05         178.407 
        0.39888         173.381         133.921          173.37 
       0.405048         169.595         130.136         170.112 
       0.411186         166.779         126.558         166.472 
       0.417313         162.644         123.051         161.612 
       0.423458         158.593         119.546         158.415 
       0.429607         155.239         116.027         154.958 
       0.435692         152.363         112.556         151.569 
       0.441815         148.136         109.141         149.341 
       0.447964         143.576         105.846          145.46 
       0.454126         140.906         102.721         141.374 
       0.460267         139.601         99.8121         139.429 
       0.466387         136.287         97.1134         136.099 
        0.47254         134.656         94.5632         133.629 
       0.478662         130.032         92.1519          130.93 
       0.484765         128.131         89.8371         127.623 
       0.490885         125.403         87.5708         125.956 
       0.497035         124.234         85.3234         124.065 
       0.503198         121.509         83.1078         121.491 
       0.509342         118.334         80.9476          119.56 
       0.515458         116.811          78.858         118.141 
       0.521598         113.916         76.8345         115.014 
       0.527764          112.68         74.8903         112.358 
       0.533884         111.718         73.0568         110.702 
           0.54         108.661         71.3119         108.935 
       0.546137         106.051         69.6341         107.568 
       0.552299         104.532         68.0102         105.125 
       0.558452         102.553         66.4396         103.237 
       0.564573         102.046         64.9199         102.135 
       0.570708         99.0665         63.4328         100.481 
       0.576825         98.0303         61.9819         98.6991 
       0.582926         96.8751         60.5703          97.113 
       0.589034         95.1374          59.198         96.0605 
       0.595184          93.907         57.8628         94.3837 
       0.601379          91.615         56.5681         93.2916 
       0.607522         90.1441         55.3305         91.2229 
       0.613639         89.2928         54.1404          90.219 
       0.619772         87.7269         52.9858         88.6553 
       0.625918          86.755         51.8644         87.8589 
       0.632068         85.3251         50.7752         86.2602 
       0.638161          83.828         49.7261         85.3795 
         0.6443         83.2674         48.6968         83.9062 
       0.650464          81.482         47.6895         82.4157 
       0.656582          81.098         46.7149         81.7841 
       0.662703         79.9515         45.7656         80.3323 
       0.668861         78.1778         44.8372          79.489 
       0.675024         77.9442         43.9354          78.257 
       0.681124         76.7678         43.0703         77.2173 
       0.687237         75.2554         42.2294         76.2015 
       0.693381         74.6742          41.409         75.1131 
       0.699536         73.8077         40.6099         74.6619 
       0.705665         72.6393         39.8354         73.8128 
       0.711789         71.5897          39.081         72.2766 
       0.717957         70.6215         38.3397         71.7744 
        0.72409         70.0192         37.6207         71.2075 
       0.730186           69.52         36.9239         70.2296 
       0.736317         68.2437         36.2408         69.1858 
       0.742472          67.437         35.5727         68.4444 
       0.748622         66.3842         34.9225         67.5596 
        0.75476         65.7033         34.2909         66.8102 
       0.760888         65.4587         33.6765         65.9845 
       0.767043         64.1335         33.0753         65.5994 
       0.773185         63.3968         32.4905         64.9525 
       0.779291         62.6465         31.9233         64.2129 
       0.785407         61.7702         31.3689         63.2734 
       0.791564          61.738         30.8242         62.5967 
       0.797719         60.7805         30.2924         62.1657 
       0.803834         60.2097         29.7765          61.298 
       0.809972         59.5966         29.2706         60.7039 
       0.816124         58.9337         28.7753         60.2087 
       0.822261         58.1042         28.2929         59.3868 
       0.828378         57.8808          27.823         58.5908 
       0.834502         57.0647         27.3634         58.4131 
       0.840667         56.6408         26.9114         57.7998 
       0.846816         55.8904         26.4711         57.2124 
       0.852925         55.4156         26.0435         56.7555 
       0.859047         55.1689         25.6246         55.9938 
       0.865192         54.2159         25.2136         55.5509 
       0.871341         53.6285         24.8115         55.0291 
       0.877463         53.2548         24.4201         54.5415 
       0.883569         53.0252         24.0382         54.1874 
       0.889708         52.4325         23.6626         53.5479 
       0.895864         51.9096          23.294         53.0483 
       0.902008         51.3503         22.9341         52.5694 
       0.908149          50.859         22.5821         52.2118 
       0.914301          50.482         22.2369         51.8316 
       0.920448         50.1738         21.8993          51.244 
       0.926574         49.2599         21.5699         50.6909 
       0.932687         48.9568          21.248         50.3892 
       0.938823         48.4577         20.9315         49.8142 
       0.944975          47.951         20.6208         49.3618 
       0.951105         47.5884         20.3176         49.1384 
       0.957225         47.3464          20.021         48.6588 
       0.963368         46.8388         19.7294         48.1409 
       0.969511         46.4365         19.4436         47.7484 
       0.975621         46.0785         19.1651         47.5665 
       0.981748          45.571         18.8913          47.117 
       0.987916         45.2289         18.6212         46.7561 
        0.99406         44.8429         18.3574         46.3756 
        1.00019         44.4683         18.0993         45.9773 
        1.00632         44.1082         17.8464         45.6347 
        1.01246         43.7502          17.598         45.2576 
        1.01859         43.4306         17.3548         44.9658 
        1.02471         42.9435         17.1165         44.6439 
        1.03085         42.7394         16.8819         44.2446 
        1.03698         42.4343         16.6522         43.8823 
        1.04314         42.0954         16.4258         43.4539 
        1.04929         41.5857         16.2041          43.279 
        1.05541         41.4472         15.9875         43.1206 
        1.06154         41.1772         15.7743         42.6259 
        1.06769         40.5553         15.5647          42.317 
        1.07382          40.416         15.3597         42.0648 
        1.07993         40.1014         15.1587         41.6685 
        1.08607         39.8038         14.9606         41.4024 
        1.09222         39.5547         14.7659         41.1864 
        1.09836         39.1869         14.5748         40.8899 
        1.10449         39.0133         14.3874         40.5169 
        1.11063         38.6052         14.2031         40.2654 
        1.11677         38.5349         14.0221          39.976 
         1.1229         38.1196         13.8445         39.7058 
        1.12903         37.8934         13.6699         39.4436 
        1.13518         37.7769         13.4982         39.1154 
        1.14131         37.3542         13.3295         38.9157 
        1.14745         36.9851         13.1639         38.6656 
        1.15359         36.6353          13.001         38.4441 
        1.15973         36.5239         12.8408         38.2034 
        1.16584         36.2623          12.684         37.9013 
        1.17197         35.8109         12.5297         37.6674 
        1.17811         35.6856         12.3774         37.3022 
        1.18424         35.2288         12.2282         37.1174 
        1.19038         35.1407         12.0809         37.0288 
        1.19652         34.9216         11.9362         36.6646 
        1.20267          34.727         11.7938         36.5077 
        1.20881         34.4543         11.6539         36.2564 
        1.21495         34.2994         11.5164         36.1273 
        1.22108         34.1748         11.3811          35.798 
         1.2272         33.8681         11.2484         35.6468 
        1.23334         33.6444         11.1175         35.4132 
        1.23949         33.3952         10.9883         35.1114 
        1.24562         33.0993         10.8616         34.9594 
        1.25174         32.9162         10.7371         34.7661 
        1.25789         32.8445         10.6141         34.5302 
        1.26402         32.5963         10.4934         34.3031 
        1.27014         32.3857         10.3747         34.1491 
        1.27628         32.0679         10.2576         33.9112 
        1.28244         32.0272         10.1421         33.8168 
        1.28858         31.7246         10.0285          33.552 
        1.29471          31.518         9.91692         33.3684 
        1.30084         31.2917         9.80714         33.1691 
        1.30697         31.1694         9.69886         32.9257 
        1.31312         30.8914         9.59207         32.7953 
        1.31925         30.6757         9.48723         32.6077 
        1.32537         30.4969         9.38406          32.448 
        1.33151         30.2869         9.28207         32.2845 
        1.33765         30.2198         9.18166         32.1068 
        1.34378         30.0593         9.08293         31.9221 
        1.34992         29.8062         8.98559         31.7748 
        1.35606         29.6387         8.88947         31.6187 
         1.3622         29.4289         8.79493         31.4595 
        1.36833         29.3194         8.70199         31.2883 
        1.37445          29.084         8.61045         31.0549 
        1.38059         28.9363         8.51994         30.9361 
        1.38675          28.693         8.43052         30.7933 
        1.39288         28.5961         8.34275         30.6266 
        1.39901         28.3881         8.25626         30.4769 
        1.40515         28.2617         8.17081         30.2858 
         1.4113         28.1983         8.08661         30.1114 
        1.41742         28.0105         8.00392         29.9973 
        1.42355         27.7459         7.92223         29.8057 
         1.4297         27.5996         7.84144         29.6333 
        1.43585         27.4184         7.76181         29.5459 
        1.44198           27.31         7.68359         29.3809 
        1.44809         27.1436          7.6066         29.2428 
        1.45423         27.0264         7.53039         29.0363 
        1.46036         26.8782         7.45536         28.8997 
        1.46649         26.7084         7.38133         28.7976 
        1.47263         26.5215         7.30825         28.6855 
        1.47877         26.4262         7.23619         28.5734 
        1.48491         26.3012         7.16499         28.3661 
        1.49104         26.0907         7.09491         28.2377 
        1.49718         26.0345         7.02571         28.1121 
        1.50333          25.922         6.95732         28.0028 
        1.50947         25.7119         6.88999         27.8956 
         1.5156         25.5861         6.82365          27.748 
        1.52172         25.4036         6.75819         27.5727 
        1.52787         25.3017         6.69345         27.4412 
          1.534         25.1747         6.62965          27.334 
        1.54013         25.1039         6.56674          27.185 
        1.54627         24.8679         6.50454         27.0368 
        1.55241         24.7557         6.44314         26.9274 
        1.55855         24.6697         6.38262         26.8316 
        1.56467         24.5736         6.32305         26.7153 
         1.5708         24.4071         6.26407         26.5858 
        1.57695         24.3056         6.20575         26.4409 
        1.58308           24.07         6.14832         26.3207 
        1.58922         23.9607         6.09157         26.2433 
        1.59535         23.8766         6.03556         26.1293 
         1.6015         23.7687         5.98018         25.9908 
        1.60764         23.6531         5.92552         25.8507 
        1.61376         23.5263          5.8717         25.7299 
        1.61989         23.3388         5.81851         25.6504 
        1.62604         23.2581         5.76585         25.5892 
        1.63218         23.1653         5.71388          25.489 
        1.63831         23.0399         5.66267         25.3592 
        1.64444          22.917         5.61207         25.2542 
        1.65059         22.7998         5.56197         25.1201 
        1.65673         22.7116         5.51253         25.0051 
        1.66285         22.5951         5.46383         24.9161 
        1.66898         22.4723         5.41571         24.8161 
        1.67512         22.4194         5.36807         24.6828 
        1.68127         22.2919         5.32097         24.5948 
         1.6874         22.1723         5.27453         24.4915 
        1.69353         22.0376         5.22868         24.3073 
        1.69967         21.9403         5.18327         24.2418 
        1.70581         21.8047         5.13841         24.1954 
        1.71193         21.6694         5.09426          24.097 
        1.71806         21.6203         5.05053         23.9834 
        1.72421         21.5446         5.00723         23.8847 
        1.73035         21.3932         4.96449         23.7984 
        1.73649         21.2867         4.92226         23.6988 
        1.74262         21.1645         4.88055         23.5633 
        1.74876         21.0811          4.8393         23.4663 
        1.75489         20.9954         4.79861         23.3999 
        1.76101         20.8854          4.7584         23.3177 
        1.76715         20.8157          4.7186         23.1985 
        1.77329         20.6661         4.67921         23.0817 
        1.77943         20.6138         4.64024         22.9991 
        1.78557         20.5122         4.60178         22.9388 
        1.79171          20.395         4.56375          22.846 
        1.79785         20.3053         4.52615         22.7543 
        1.80399         20.1991         4.48897         22.6966 
        1.81012          20.152         4.45226          22.573 
        1.81625         20.0012         4.41598         22.4704 
        1.82239         19.9161         4.38005         22.4207 
        1.82853         19.8276         4.34454          22.328 
        1.83466         19.7253         4.30945         22.2347 
        1.84078          19.652         4.27479         22.1574 
        1.84692         19.5992         4.24046         22.0688 
        1.85306         19.4657         4.20646         21.9827 
         1.8592         19.4276         4.17289         21.9033 
        1.86533         19.2478          4.1397         21.8185 
        1.87147         19.1698         4.10684         21.7287 
        1.87761         19.1071         4.07432         21.6464 
