# k  (h/Mpc)    Pcb(k)  (Mpc/h)^3    Pcb_linear(k) (Mpc/h)^3    Pcb_NL(k) (Mpc/h)^3   ShotnoiseSubtracted = false
     0.00783031          5576.5         5607.48          5586.7 
       0.013688         6898.58         7021.08         6987.02 
       0.019231          7139.6         7205.17         7161.29 
      0.0249154         6753.92         6742.36         6705.05 
      0.0312784         5862.02         5888.68         5860.63 
      0.0375637         4974.65         5019.15         4996.24 
      0.0433917         4341.93         4343.41         4322.53 
      0.0492413         3815.04         3835.93         3817.89 
      0.0555754         3463.64         3458.56         3441.87 
      0.0619321         3138.92         3201.13          3184.3 
       0.067871         2984.12         3009.75         2992.48 
      0.0738098         2805.47         2819.03         2791.04 
      0.0800417         2587.82         2592.68         2566.84 
      0.0862327         2327.01         2340.23         2326.67 
      0.0921407         2085.04         2091.25         2082.08 
      0.0982031         1868.21         1852.12         1858.61 
       0.104506         1642.91         1642.67         1661.91 
       0.110769         1493.73         1484.47         1498.72 
       0.116806          1407.9         1377.11         1390.94 
       0.122832         1319.98         1303.79         1319.06 
       0.129052         1265.94         1248.26         1260.63 
       0.135211         1226.76         1197.88         1208.44 
       0.141259         1156.01         1141.62         1154.71 
       0.147318         1076.43          1073.7         1093.62 
       0.153489         1006.68         994.407         1008.24 
       0.159709         941.329         910.942         934.161 
       0.165845         850.095         833.236         870.972 
       0.171974         811.088         766.676         805.335 
       0.178125         763.625          714.11         761.584 
       0.184229         710.806         675.675         721.477 
        0.19034         692.923          647.82         690.859 
       0.196428         671.238         626.106         661.923 
       0.202534         633.228         605.701         641.407 
       0.208729         621.939         582.719         615.168 
       0.214876         598.083         555.914         596.568 
       0.220989         557.003         525.674         570.212 
       0.227147         539.514         493.542         540.577 
        0.23329          513.53         462.393         516.633 
       0.239377          495.82         434.663          491.49 
       0.245482         467.877         411.292         464.781 
       0.251667          447.09         392.375         449.128 
       0.257832         440.861         377.531         432.011 
       0.263955         417.995          365.36          417.33 
       0.270079         404.265          354.19         404.724 
        0.27624         388.186         342.671         391.085 
       0.282372          378.21         330.144         379.895 
        0.28843         374.349         316.653         367.175 
       0.294538         355.207         302.358         355.549 
       0.300721          340.68         287.961         344.197 
        0.30691         333.784         274.415         332.696 
       0.313033         318.248          262.44         319.475 
       0.319153          311.92         252.122         309.818 
       0.325316         302.835         243.275         301.754 
        0.33145          294.72         235.642         290.891 
       0.337538         284.999         228.731         282.841 
       0.343633         276.249         222.009         277.921 
       0.349808           268.7         215.077         271.766 
       0.355968         262.358          207.88         265.986 
       0.362074         255.551         200.552         258.509 
       0.368217         251.075         193.157         249.674 
       0.374374         244.725         185.991         243.428 
       0.380519         234.335         179.296         236.422 
       0.386598         229.968         173.246         231.007 
       0.392688         223.696         167.796         225.246 
        0.39888         218.868         162.778         219.204 
       0.405048         214.274         158.177         215.548 
       0.411186         211.416         153.828         210.568 
       0.417313         206.528         149.566         204.668 
       0.423458         201.318         145.305         200.783 
       0.429607         196.797         141.027          196.68 
       0.435692         193.124          136.81          192.43 
       0.441815         188.524         132.658         189.882 
       0.447964         182.864         128.654         185.241 
       0.454126         179.629         124.855          180.03 
       0.460267         177.787          121.32         177.859 
       0.466387          173.82         118.039         173.784 
        0.47254         171.734         114.939          170.68 
       0.478662         166.065         112.008         167.341 
       0.484765         163.837         109.195          163.16 
       0.490885         160.812          106.44         161.093 
       0.497035         159.141         103.709         158.829 
       0.503198         156.176         101.016         155.839 
       0.509342         152.035           98.39         153.482 
       0.515458         150.128         95.8501         151.746 
       0.521598         146.457         93.3905         147.953 
       0.527764         144.937         91.0276         144.826 
       0.533884         144.029         88.7987         142.799 
           0.54          140.15         86.6781         140.561 
       0.546137         136.936         84.6386         138.889 
       0.552299         135.239         82.6648         135.863 
       0.558452         132.747         80.7558         133.597 
       0.564573         132.073         78.9087         132.266 
       0.570708         128.448         77.1008         130.231 
       0.576825         126.985         75.3377         127.869 
       0.582926          125.58         73.6218         125.956 
       0.589034         123.471         71.9536         124.697 
       0.595184          122.06         70.3311         122.532 
       0.601379         119.234         68.7571         121.348 
       0.607522         117.237          67.253         118.826 
       0.613639         116.201         65.8063         117.599 
       0.619772         114.397          64.403         115.621 
       0.625918         113.371         63.0399         114.566 
       0.632068         111.107         61.7161         112.599 
       0.638161         109.456         60.4409         111.673 
         0.6443         108.875         59.1898         109.858 
       0.650464         106.628         57.9655         107.786 
       0.656582         106.133         56.7809         107.087 
       0.662703         104.691          55.627         105.325 
       0.668861         102.464         54.4986         104.239 
       0.675024         102.358         53.4025         102.712 
       0.681124         100.676         52.3509         101.494 
       0.687237         98.8649         51.3289         100.197 
       0.693381         98.2099         50.3317         98.8442 
       0.699536         96.9669         49.3604         98.2084 
       0.705665         95.5576          48.419         97.3065 
       0.711789         94.2665          47.502         95.3548 
       0.717957         93.1033          46.601         94.6261 
        0.72409          92.374         45.7271         94.0481 
       0.730186         91.7773         44.8801         92.8636 
       0.736317          90.139         44.0498         91.4829 
       0.742472         89.0081         43.2377         90.5719 
       0.748622         87.6252         42.4475         89.4749 
        0.75476         87.2431         41.6798         88.4489 
       0.760888         86.6937          40.933         87.3383 
       0.767043          84.985         40.2023         86.9438 
       0.773185         83.9556         39.4914         86.2424 
       0.779291         83.0265          38.802          85.242 
       0.785407         81.9776         38.1282         84.0315 
       0.791564         81.8221          37.466         83.2538 
       0.797719         80.7124         36.8197         82.7099 
       0.803834         80.0095         36.1926          81.543 
       0.809972         79.3802         35.5777         80.8257 
       0.816124         78.4028         34.9757         80.2871 
       0.822261          77.334         34.3893          79.255 
       0.828378         77.1263         33.8182          78.189 
       0.834502         75.9831         33.2596         77.9292 
       0.840667         75.4798         32.7102         77.3274 
       0.846816         74.7013          32.175         76.4999 
       0.852925         73.8866         31.6553         75.7893 
       0.859047         73.5797         31.1461         74.9157 
       0.865192         72.4371         30.6466         74.4366 
       0.871341         71.6707         30.1578         73.6594 
       0.877463          71.212         29.6821         73.1102 
       0.883569           70.96         29.2179         72.6348 
       0.889708         70.2348         28.7613         71.8832 
       0.895864         69.5971         28.3133         71.3114 
       0.902008         68.8701         27.8759         70.6124 
       0.908149         68.0909          27.448         70.1127 
       0.914301         67.7513         27.0284         69.6469 
       0.920448         67.4827          26.618         68.9699 
       0.926574         66.1174         26.2177         68.2095 
       0.932687         65.8241         25.8264         67.8215 
       0.938823         65.2537         25.4418         67.1122 
       0.944975         64.4839         25.0641         66.5677 
       0.951105         63.9942         24.6956         66.2604 
       0.957225         63.7956         24.3351         65.7081 
       0.963368         63.1279         23.9806         64.9559 
       0.969511         62.5909         23.6333         64.5048 
       0.975621         62.1069         23.2947          64.403 
       0.981748         61.4709         22.9619         63.7201 
       0.987916         60.9971         22.6336         63.3645 
        0.99406          60.661          22.313         62.7987 
        1.00019         59.9805         21.9993         62.2862 
        1.00632         59.5328         21.6919         61.8429 
        1.01246          59.108           21.39         61.3161 
        1.01859         58.8192         21.0943         60.9707 
        1.02471         58.1318         20.8047          60.617 
        1.03085         57.7511         20.5195         60.0764 
        1.03698         57.3757         20.2403         59.6059 
        1.04314         56.9408         19.9651         59.0986 
        1.04929         56.3788         19.6957         58.8616 
        1.05541         56.1133         19.4324         58.6424 
        1.06154         55.7621         19.1733         58.0918 
        1.06769         55.0333         18.9186         57.7128 
        1.07382         54.7203         18.6693         57.3084 
        1.07993         54.4501         18.4251         56.8597 
        1.08607         54.0222         18.1843         56.5018 
        1.09222         53.7485         17.9476         56.0934 
        1.09836         53.2626         17.7154         55.7557 
        1.10449         52.9854         17.4875         55.3327 
        1.11063         52.4677         17.2635         54.9089 
        1.11677         52.3212         17.0435         54.5484 
         1.1229          51.777         16.8277         54.3124 
        1.12903           51.58         16.6155          53.945 
        1.13518         51.4026         16.4068         53.5532 
        1.14131         50.8176         16.2017         53.2816 
        1.14745         50.3913         16.0004         52.9303 
        1.15359         49.8671         15.8024         52.6941 
        1.15973         49.8252         15.6077         52.3214 
        1.16584         49.4381         15.4171         51.8998 
        1.17197         48.8719         15.2295         51.6286 
        1.17811         48.6846         15.0445         51.2167 
        1.18424         48.0536          14.863         50.9181 
        1.19038         47.9678         14.6841         50.7866 
        1.19652         47.7371         14.5082         50.3281 
        1.20267         47.3911         14.3351         50.1554 
        1.20881         47.0465          14.165         49.7929 
        1.21495         46.8634         13.9979         49.6016 
        1.22108         46.6869         13.8335         49.2329 
         1.2272         46.2093         13.6722         49.0201 
        1.23334         45.9441          13.513         48.6844 
        1.23949          45.659         13.3561         48.3158 
        1.24562         45.3051          13.202         48.1072 
        1.25174         45.0079         13.0507         47.8849 
        1.25789         44.9767         12.9012         47.5415 
        1.26402         44.5845         12.7544          47.253 
        1.27014         44.3693         12.6103         47.0703 
        1.27628         43.9009         12.4679         46.7822 
        1.28244         43.8379         12.3275         46.5649 
        1.28858         43.4716         12.1894         46.2884 
        1.29471         43.1921         12.0538         46.0829 
        1.30084         42.8413         11.9203         45.6916 
        1.30697         42.8004         11.7887         45.4098 
        1.31312         42.3902         11.6589         45.3075 
        1.31925         42.0659         11.5315         45.0094 
        1.32537         41.8644         11.4061         44.7802 
        1.33151         41.5881         11.2821         44.5713 
        1.33765         41.4248         11.1601         44.3383 
        1.34378          41.258         11.0401         44.0863 
        1.34992         40.9061         10.9218         43.8872 
        1.35606          40.654         10.8049          43.731 
         1.3622         40.4217           10.69         43.4907 
        1.36833         40.2599         10.5771         43.2535 
        1.37445          39.884         10.4658         42.9948 
        1.38059         39.7718         10.3558         42.8995 
        1.38675         39.3631         10.2471         42.6211 
        1.39288          39.338         10.1404         42.4528 
        1.39901         39.0196         10.0353         42.2295 
        1.40515         38.8395         9.93143         41.9723 
         1.4113         38.8044         9.82908          41.754 
        1.41742         38.4979         9.72857         41.5861 
        1.42355         38.1561         9.62928         41.3443 
         1.4297         37.9948         9.53108         41.0963 
        1.43585           37.73         9.43429         40.9802 
        1.44198         37.5174         9.33922         40.7947 
        1.44809         37.2855         9.24565         40.5173 
        1.45423         37.1694         9.15301         40.2946 
        1.46036         36.9824         9.06181         40.1384 
        1.46649         36.7652         8.97183         39.9915 
        1.47263         36.5174           8.883         39.8242 
        1.47877         36.3722         8.79542          39.639 
        1.48491         36.2139         8.70888         39.4122 
        1.49104         35.9009         8.62369         39.2233 
        1.49718         35.8175         8.53958         39.0363 
        1.50333         35.6835         8.45646         38.8962 
        1.50947         35.3726         8.37462         38.7444 
         1.5156         35.2342         8.29398         38.5537 
        1.52172         34.9702         8.21441         38.3555 
        1.52787         34.8464         8.13573         38.1767 
          1.534         34.6276         8.05818         38.0287 
        1.54013          34.579         7.98172         37.8363 
        1.54627         34.2372         7.90612         37.6371 
        1.55241         34.0713         7.83148         37.4821 
        1.55855         34.0038         7.75792         37.3409 
        1.56467         33.8009         7.68551         37.1824 
         1.5708         33.6264         7.61382         37.0284 
        1.57695         33.4622         7.54294         36.8429 
        1.58308         33.1683         7.47313         36.6543 
        1.58922         33.0128         7.40416         36.5251 
        1.59535         32.9067         7.33608         36.3829 
         1.6015          32.824         7.26877          36.192 
        1.60764         32.5917         7.20233         36.0176 
        1.61376          32.379         7.13691         35.8873 
        1.61989         32.1766         7.07226         35.7325 
        1.62604         32.0403         7.00825         35.6161 
        1.63218         31.8899         6.94509         35.4989 
        1.63831         31.7779         6.88284         35.3399 
        1.64444         31.5853         6.82134         35.1743 
        1.65059         31.4172         6.76044         35.0182 
        1.65673         31.2773         6.70035         34.8586 
        1.66285         31.1927         6.64116         34.7264 
        1.66898         30.9248         6.58267         34.6245 
        1.67512         30.8787         6.52477         34.4729 
        1.68127         30.6846         6.46751           34.31 
         1.6874         30.5124         6.41107         34.1378 
        1.69353         30.4318         6.35534         33.9545 
        1.69967         30.2895         6.30014         33.8521 
        1.70581          30.025         6.24562         33.7834 
        1.71193         29.8843         6.19195         33.6575 
        1.71806         29.8104          6.1388         33.4353 
        1.72421         29.6655         6.08617          33.288 
        1.73035          29.483         6.03422         33.2151 
        1.73649         29.2923         5.98288         33.1122 
        1.74262         29.1141         5.93219         32.8918 
        1.74876         29.0659         5.88205         32.7426 
        1.75489         28.8973          5.8326         32.6661 
        1.76101         28.7967         5.78372         32.5703 
        1.76715         28.6868         5.73535          32.418 
        1.77329         28.4352         5.68746         32.2709 
        1.77943         28.4054         5.64011         32.1506 
        1.78557          28.265         5.59336         32.0335 
        1.79171         28.1441         5.54713         31.9039 
        1.79785         27.9852         5.50142         31.8054 
        1.80399         27.8514         5.45624         31.7381 
        1.81012         27.7741         5.41162         31.5279 
        1.81625         27.5224         5.36752         31.3445 
        1.82239         27.4304         5.32385         31.2783 
        1.82853         27.3098         5.28068         31.1808 
        1.83466         27.1728         5.23803          31.069 
        1.84078         27.0369         5.19591         30.9628 
        1.84692         26.9428         5.15417         30.8517 
        1.85306         26.7524         5.11285         30.7366 
         1.8592         26.7261         5.07204         30.6172 
        1.86533         26.5393         5.03171         30.4957 
        1.87147         26.4036         4.99176         30.3802 
