# k  (h/Mpc)    P(k)  (Mpc/h)^3    P_linear(k)  (Mpc/h)^3     P_NL(k)  ShotnoiseSubtracted = false
     0.00783031         19169.6         19247.8         19160.3 
       0.013688         23383.2         24089.9         23915.2 
       0.019231         24260.7         24716.9         24471.6 
      0.0249154         23128.2         23126.8         22850.1 
      0.0312784         19889.8         20197.1         19895.4 
      0.0375637         16802.6           17214         16942.5 
      0.0433917         14729.1           14896         14612.1 
      0.0492413         12905.7         13155.2         12892.6 
      0.0555754           11719         11860.9         11629.8 
      0.0619321         10477.5         10977.8           10753 
       0.067871         9991.86         10321.5         10108.8 
      0.0738098         9456.14         9667.34         9342.98 
      0.0800417         8698.78         8891.04         8593.26 
      0.0862327         7825.98         8025.26         7852.38 
      0.0921407         7072.38         7171.44         7039.94 
      0.0982031         6410.61         6351.36         6370.21 
       0.104506         5653.17          5633.1         5778.53 
       0.110769         5186.99         5090.57         5204.97 
       0.116806         4920.15         4722.41         4834.82 
       0.122832         4635.01         4470.96         4593.33 
       0.129052         4387.01         4280.52         4384.19 
       0.135211         4299.84         4107.77         4183.94 
       0.141259         4009.77         3914.84         4026.24 
       0.147318         3751.63         3681.91         3834.25 
       0.153489         3535.55            3410          3527.2 
       0.159709         3390.03         3123.78         3325.44 
       0.165845         3089.54         2857.31         3172.72 
       0.171974         2981.29         2629.06         2975.81 
       0.178125         2875.52         2448.81         2865.46 
       0.184229         2642.29            2317         2707.44 
        0.19034         2613.11         2221.48          2597.7 
       0.196428         2545.81         2147.02         2493.07 
       0.202534         2410.09         2077.05         2420.11 
       0.208729         2363.98         1998.23         2305.61 
       0.214876          2261.8         1906.31         2257.57 
       0.220989         2163.06         1802.62         2193.58 
       0.227147         2097.92         1692.43         2124.52 
        0.23329         2012.54         1585.62         2058.17 
       0.239377         2001.38         1490.53         1973.83 
       0.245482         1909.41         1410.38         1884.75 
       0.251667          1840.4         1345.51         1834.32 
       0.257832         1806.98         1294.61         1771.05 
       0.263955         1732.66         1252.87         1720.49 
       0.270079         1694.69         1214.57         1674.23 
        0.27624         1625.39         1175.08          1627.7 
       0.282372         1611.97         1132.11         1604.49 
        0.28843          1575.4         1085.85         1575.36 
       0.294538         1511.14         1036.83         1531.61 
       0.300721          1487.3         987.461         1486.74 
        0.30691         1444.87         941.011         1466.73 
       0.313033         1395.44         899.948         1419.07 
       0.319153         1382.67         864.566         1376.63 
       0.325316         1364.58         834.221         1353.47 
        0.33145         1333.63          808.05         1305.92 
       0.337538         1294.02         784.352         1286.46 
       0.343633         1266.86           761.3         1271.93 
       0.349808         1247.59         737.532         1254.29 
       0.355968         1219.79          712.85         1233.69 
       0.362074         1188.71         687.722         1212.91 
       0.368217         1183.78         662.363         1185.78 
       0.374374         1163.83         637.788         1163.18 
       0.380519         1127.13         614.831         1141.05 
       0.386598         1123.21         594.085         1124.31 
       0.392688         1092.19         575.397         1101.22 
        0.39888          1076.5         558.188         1082.28 
       0.405048         1053.12         542.413         1063.43 
       0.411186         1048.76         527.499         1047.26 
       0.417313         1041.96         512.883          1035.6 
       0.423458         1013.29         498.271         1016.81 
       0.429607         989.165         483.603         1001.94 
       0.435692         979.786         469.139         981.115 
       0.441815         960.756         454.902         978.581 
       0.447964         952.766         441.172         967.119 
       0.454126          939.85         428.145         939.275 
       0.460267         929.729          416.02         937.228 
       0.466387          912.78         404.772         920.614 
        0.47254         900.172         394.143         907.536 
       0.478662         887.409         384.092         895.326 
       0.484765         877.706         374.444         886.617 
       0.490885         868.641         364.998           869.9 
       0.497035         851.893         355.631         862.986 
       0.503198         851.084         346.396          853.98 
       0.509342         834.967         337.393         838.786 
       0.515458         819.072         328.683         833.346 
       0.521598          820.58         320.249         825.807 
       0.527764         800.568         312.145         817.842 
       0.533884         790.022         304.503         808.532 
           0.54         786.486         297.231         799.338 
       0.546137         776.634         290.237         790.465 
       0.552299          769.64         283.469          779.67 
       0.558452         761.246         276.923         773.947 
       0.564573          758.68         270.588         766.835 
       0.570708         748.519          264.39         756.787 
       0.576825         734.334         258.343         747.756 
       0.582926         732.061         252.459         742.945 
       0.589034          723.64         246.739         731.845 
       0.595184         714.146         241.174         725.218 
       0.601379         703.851         235.778         719.003 
       0.607522         694.859         230.619         708.092 
       0.613639         693.708         225.659         705.895 
       0.619772         685.871         220.846         703.684 
       0.625918         678.653         216.172         694.547 
       0.632068         674.207         211.633         691.221 
       0.638161         664.085          207.26         679.637 
         0.6443          657.96          202.97         674.405 
       0.650464         653.079         198.771         666.436 
       0.656582         647.523         194.709         662.606 
       0.662703         639.764         190.752          657.49 
       0.668861         632.763         186.883         654.782 
       0.675024         629.759         183.124          650.37 
       0.681124         616.855         179.518         640.747 
       0.687237         617.099         176.014         634.972 
       0.693381         606.948         172.594         629.109 
       0.699536         609.101         169.263         624.929 
       0.705665          598.25         166.035         617.496 
       0.711789         597.155         162.891         612.545 
       0.717957          589.71         159.801          612.06 
        0.72409         584.736         156.804         605.502 
       0.730186         582.736           153.9         599.083 
       0.736317         575.162         151.053         595.289 
       0.742472         568.458         148.268         591.685 
       0.748622         568.208         145.558          585.52 
        0.75476         558.112         142.926         585.846 
       0.760888         557.072         140.365         579.267 
       0.767043         553.767         137.859         571.472 
       0.773185         548.627         135.421         568.223 
       0.779291         543.184         133.057         563.687 
       0.785407          539.01         130.747          560.37 
       0.791564         536.405         128.476         558.867 
       0.797719         527.752          126.26         553.346 
       0.803834         527.721         124.109         549.597 
       0.809972         520.162         122.001         546.218 
       0.816124         516.766         119.936         539.823 
       0.822261         512.784         117.926         537.144 
       0.828378          511.57         115.967         533.357 
       0.834502         503.651         114.052         531.703 
       0.840667         500.608         112.168         527.579 
       0.846816         497.966         110.332         523.275 
       0.852925         496.008          108.55         520.185 
       0.859047         489.491         106.804          514.83 
       0.865192           487.4         105.091         511.846 
       0.871341         482.171         103.415         508.687 
       0.877463         481.227         101.784         505.812 
       0.883569         477.045         100.192         503.304 
       0.889708          470.78         98.6262         498.277 
       0.895864         466.272         97.0901         495.609 
       0.902008         465.339         95.5901         492.221 
       0.908149         460.682         94.1228          487.36 
       0.914301         458.522          92.684         483.519 
       0.920448         452.955         91.2767         482.787 
       0.926574         450.821         89.9038         479.474 
       0.932687         448.341         88.5621         474.967 
       0.938823         444.155         87.2432         474.003 
       0.944975         442.185         85.9482          470.62 
       0.951105         438.677         84.6844         466.922 
       0.957225         433.392         83.4482         464.498 
       0.963368         432.558         82.2327         461.462 
       0.969511         428.383         81.0416          458.73 
       0.975621         424.747         79.8805         455.512 
       0.981748         422.897         78.7395         452.954 
       0.987916         419.809         77.6136         450.815 
        0.99406         415.241         76.5142         447.732 
        1.00019         411.823         75.4384         443.784 
        1.00632         409.892         74.3844         440.946 
        1.01246         406.085         73.3491         438.443 
        1.01859         403.779         72.3353         435.468 
        1.02471         402.004          71.342         433.127 
        1.03085         398.859         70.3641         431.808 
        1.03698         396.082         69.4067         429.935 
        1.04314          392.53         68.4631         426.613 
        1.04929         391.739         67.5393         422.768 
        1.05541         387.195         66.6364         420.106 
        1.06154          384.23         65.7478         418.063 
        1.06769         381.424         64.8742         414.993 
        1.07382         377.817         64.0194         412.534 
        1.07993          378.05         63.1821          410.49 
        1.08607         375.427         62.3563         407.691 
        1.09222         371.413         61.5446         405.327 
        1.09836         368.995         60.7483         403.849 
        1.10449         365.794         59.9671         401.865 
        1.11063         364.583         59.1988         398.124 
        1.11677         360.801         58.4443         396.479 
         1.1229         358.565         57.7044         393.831 
        1.12903         355.509         56.9767         391.622 
        1.13518         354.678         56.2609         388.557 
        1.14131          351.65         55.5579         387.371 
        1.14745           348.7         54.8673          383.95 
        1.15359         345.512         54.1884         383.295 
        1.15973         344.058         53.5208         380.543 
        1.16584         342.486         52.8674         379.126 
        1.17197         339.665          52.224          376.95 
        1.17811         335.566         51.5894         374.091 
        1.18424         334.869         50.9673         372.242 
        1.19038         332.974         50.3537         370.832 
        1.19652         329.384         49.7504         367.674 
        1.20267         327.519         49.1571         366.093 
        1.20881         326.257         48.5736         364.176 
        1.21495          322.25         48.0005         361.777 
        1.22108         322.114         47.4368         359.356 
         1.2272         317.837         46.8836         358.309 
        1.23334         315.977         46.3379         355.717 
        1.23949         314.027         45.7997         353.705 
        1.24562         312.623         45.2715          351.73 
        1.25174         310.567         44.7525         349.956 
        1.25789         307.583           44.24         347.932 
        1.26402         306.286         43.7366         346.697 
        1.27014          303.99         43.2422         344.014 
        1.27628         302.019         42.7541         343.113 
        1.28244         298.961         42.2725         341.515 
        1.28858         297.718         41.7991         339.358 
        1.29471         296.112          41.334         336.956 
        1.30084         294.921         40.8764         334.769 
        1.30697         291.666         40.4251         333.609 
        1.31312         289.903           39.98         331.947 
        1.31925         288.063          39.543         329.886 
        1.32537         286.798          39.113          327.62 
        1.33151         283.557         38.6879         326.417 
        1.33765         281.901         38.2694         325.014 
        1.34378         280.753         37.8579         322.546 
        1.34992         278.056         37.4522         320.898 
        1.35606         275.949         37.0515         318.935 
         1.3622         274.084         36.6575         317.972 
        1.36833         273.645         36.2701         316.833 
        1.37445         272.069         35.8886         314.038 
        1.38059         268.579         35.5113         313.132 
        1.38675         267.123         35.1386          311.87 
        1.39288         266.267         34.7728         309.757 
        1.39901         263.864         34.4123         307.704 
        1.40515         262.556         34.0562         305.777 
         1.4113         260.482         33.7052         304.076 
        1.41742         258.822         33.3605          302.77 
        1.42355         257.004           33.02          301.29 
         1.4297         255.598         32.6833         299.128 
        1.43585         253.319         32.3514         298.746 
        1.44198         251.865         32.0254         296.672 
        1.44809         250.288         31.7045          295.18 
        1.45423         248.744         31.3869         293.034 
        1.46036         248.212         31.0741         291.878 
        1.46649         245.749         30.7656         290.596 
        1.47263         243.507          30.461          288.56 
        1.47877         242.477         30.1606         286.906 
        1.48491         240.526         29.8639         285.235 
        1.49104          238.05         29.5717         283.974 
        1.49718         237.172         29.2833         283.634 
        1.50333         235.722         28.9983         281.473 
        1.50947         233.951         28.7176         279.753 
         1.5156         232.595         28.4411         278.813 
        1.52172         230.588         28.1683         277.353 
        1.52787         229.439         27.8985         275.917 
          1.534         228.435         27.6325         274.346 
        1.54013         226.394         27.3703         273.092 
        1.54627          224.93         27.1111         272.031 
        1.55241         224.112         26.8552         270.786 
        1.55855         222.128         26.6029         269.387 
        1.56467         220.493         26.3546         267.516 
         1.5708         219.054         26.1088         266.034 
        1.57695         218.476         25.8657         264.799 
        1.58308         216.926         25.6263         263.284 
        1.58922         214.977         25.3898         262.044 
        1.59535         213.537         25.1564         261.038 
         1.6015         212.571         24.9255         260.167 
        1.60764          211.12         24.6977         258.669 
        1.61376         209.384         24.4734         256.792 
        1.61989         208.088         24.2517          255.68 
        1.62604         207.017         24.0322          254.39 
        1.63218         205.301         23.8156         253.129 
        1.63831         204.138         23.6021         251.986 
        1.64444          202.67         23.3912         250.654 
        1.65059         201.779         23.1824         249.663 
        1.65673         200.261         22.9764         248.532 
        1.66285         198.941         22.7734         247.066 
        1.66898         197.549         22.5728         245.588 
        1.67512         196.271         22.3743         244.584 
        1.68127         194.895         22.1779         243.369 
         1.6874         193.693         21.9844         242.152 
        1.69353         193.114         21.7933         241.378 
        1.69967         191.462          21.604         240.101 
        1.70581         189.997          21.417         238.834 
        1.71193         188.827          21.233         237.701 
        1.71806         187.274         21.0507         236.297 
        1.72421           186.5         20.8703         235.153 
        1.73035         185.123         20.6921         234.058 
        1.73649         183.741         20.5161         232.843 
        1.74262         183.086         20.3422         231.738 
        1.74876         181.185         20.1703         230.661 
        1.75489         180.673         20.0007         229.725 
        1.76101         179.366         19.8331         228.869 
        1.76715         178.357         19.6672         227.687 
        1.77329         176.908          19.503         226.696 
        1.77943          175.78         19.3406         225.665 
        1.78557         174.674         19.1803         224.261 
        1.79171         173.543         19.0218         223.197 
        1.79785         172.204         18.8651         222.249 
        1.80399         171.303         18.7101         221.037 
        1.81012         170.609         18.5571         220.337 
        1.81625         169.209         18.4059         219.445 
        1.82239         168.215         18.2561         218.116 
        1.82853         167.055         18.1081         217.134 
        1.83466         165.839         17.9619         216.089 
        1.84078         164.829         17.8174         214.992 
        1.84692         164.196         17.6743         214.237 
        1.85306         162.979         17.5326         213.157 
         1.8592         161.883         17.3927         211.969 
        1.86533          160.54         17.2544         211.212 
        1.87147         159.871         17.1174         210.285 
        1.87761         158.799         16.9819         209.263 
