# k  (h/Mpc)    Pcb(k)  (Mpc/h)^3    Pcb_linear(k) (Mpc/h)^3    Pcb_NL(k) (Mpc/h)^3   ShotnoiseSubtracted = false
     0.00783031         3742.03         3764.31         3750.52 
       0.013688         4642.44         4713.82         4692.32 
       0.019231         4801.41         4837.66         4810.58 
      0.0249154         4533.78         4527.05         4505.83 
      0.0312784         3941.75         3953.93         3940.47 
      0.0375637         3348.38         3370.13         3359.89 
      0.0433917         2918.97         2916.42         2908.11 
      0.0492413         2566.77         2575.68         2568.92 
      0.0555754         2328.66          2322.3          2315.7 
      0.0619321         2117.43         2149.45         2142.61 
       0.067871         2009.98         2020.95         2013.36 
      0.0738098         1887.74         1892.89         1880.19 
      0.0800417         1741.14         1740.91          1729.2 
      0.0862327         1566.23         1571.39         1565.46 
      0.0921407         1401.71         1404.22          1400.6 
      0.0982031          1253.1         1243.65         1247.46 
       0.104506         1102.52         1103.01         1112.83 
       0.110769         1000.84          996.78          1004.2 
       0.116806         940.823         924.695         931.795 
       0.122832         882.803         875.459         883.194 
       0.129052         847.574         838.172         844.394 
       0.135211         819.321         804.347         809.751 
       0.141259         773.822         766.571         773.049 
       0.147318          721.37         720.962         730.857 
       0.153489         673.399          667.72         674.658 
       0.159709          626.28         611.675         623.071 
       0.165845         565.977         559.498         577.916 
       0.171974         536.749         514.804         533.449 
       0.178125         503.206         479.508         502.329 
       0.184229         470.253         453.699         475.882 
        0.19034         457.063         434.996          455.74 
       0.196428         442.059         420.415         437.409 
       0.202534           418.5         406.714         423.628 
       0.208729         409.702         391.282         406.895 
       0.214876         394.138         373.283         392.968 
       0.220989         366.707         352.977         374.444 
       0.227147          353.89         331.402         353.863 
        0.23329         335.724         310.486         336.539 
       0.239377         321.717         291.866         319.362 
       0.245482         303.534         276.173         301.851 
       0.251667          289.32         263.471         290.798 
       0.257832          284.51         253.503         279.708 
       0.263955         270.276          245.33         270.169 
       0.270079         261.451          237.83         261.853 
        0.27624         251.143         230.095         252.942 
       0.282372         243.854         221.684         245.347 
        0.28843         240.472         212.625         236.696 
       0.294538         228.575         203.027         228.389 
       0.300721         218.012         193.359         220.367 
        0.30691         212.908         184.264         212.101 
       0.313033         203.086         176.223         203.432 
       0.319153         198.841         169.294         197.009 
       0.325316         191.473         163.353          191.47 
        0.33145         185.801         158.228         184.769 
       0.337538         180.148         153.587         179.385 
       0.343633          174.84         149.074         175.486 
       0.349808         169.684         144.419         171.281 
       0.355968         165.046         139.586         167.454 
       0.362074         161.337         134.666         162.306 
       0.368217         157.343           129.7         156.435 
       0.374374         153.252         124.889         152.303 
       0.380519         146.493         120.393         147.547 
       0.386598         143.015         116.331         143.675 
       0.392688         138.807         112.671         140.097 
        0.39888         136.143         109.302         136.018 
       0.405048         133.068         106.212         133.122 
       0.411186         130.416         103.292         130.474 
       0.417313         127.007          100.43         126.563 
       0.423458         123.815         97.5692         123.959 
       0.429607         121.342         94.6966         121.041 
       0.435692         119.113         91.8645         118.351 
       0.441815         115.319         89.0768         116.415 
       0.447964         111.705         86.3882         113.224 
       0.454126         109.597          83.837         110.056 
       0.460267         108.604         81.4633         108.335 
       0.466387         105.853         79.2604         105.637 
        0.47254          104.54         77.1792         103.679 
       0.478662         100.908          75.211         101.492 
       0.484765         99.2664          73.322         98.9365 
       0.490885         96.8818         71.4717         97.5903 
       0.497035          95.942         69.6381          96.007 
       0.503198         93.6482         67.8296         93.8091 
       0.509342         91.2058         66.0666         92.2488 
       0.515458         90.0071         64.3611         91.0809 
       0.521598         87.7688         62.7096         88.5455 
       0.527764         86.7403          61.123         86.3774 
       0.533884         85.7055         59.6263         85.0055 
           0.54         83.4434         58.2023         83.5895 
       0.546137         81.2825         56.8329         82.4698 
       0.552299         80.0101         55.5075         80.5305 
       0.558452         78.4414         54.2257         79.0055 
       0.564573         78.0081         52.9854         78.1041 
       0.570708          75.662         51.7714         76.7749 
       0.576825          74.901         50.5875         75.4125 
       0.582926         73.9128         49.4354         74.1451 
       0.589034         72.5096         48.3152         73.2489 
       0.595184         71.4979         47.2257         71.8868 
       0.601379         69.6764         46.1688         70.9655 
       0.607522         68.5844         45.1588         69.3443 
       0.613639         67.8607         44.1874         68.4822 
       0.619772         66.5937         43.2451         67.3059 
       0.625918         65.6561         42.3299         66.6496 
       0.632068         64.8225         41.4409         65.3659 
       0.638161         63.5467         40.5847         64.5584 
         0.6443         62.9691         39.7446         63.4059 
       0.650464         61.5452         38.9225         62.3865 
       0.656582         61.2158          38.127         61.7652 
       0.662703         60.3624         37.3522         60.6243 
       0.668861         58.9551         36.5946         59.9686 
       0.675024          58.609         35.8585          58.956 
       0.681124         57.8602         35.1524         58.1158 
       0.687237         56.6791         34.4662          57.305 
       0.693381         56.0568         33.7966         56.4516 
       0.699536         55.5182         33.1444         56.0657 
       0.705665         54.5699         32.5123         55.3493 
       0.711789         53.7231         31.8965         54.1902 
       0.717957         52.8859         31.2915         53.7889 
        0.72409         52.3947         30.7047          53.255 
       0.730186         52.0447          30.136         52.4733 
       0.736317         51.0606         29.5785         51.7061 
       0.742472         50.4681         29.0331         51.1346 
       0.748622          49.663         28.5026         50.3989 
        0.75476         48.8591          27.987         49.8466 
       0.760888          48.752         27.4856         49.2503 
       0.767043         47.7835         26.9949         48.8529 
       0.773185          47.285         26.5176         48.2754 
       0.779291         46.6772         26.0547         47.7456 
       0.785407         45.9904         25.6022         47.0422 
       0.791564         45.9428         25.1576         46.4935 
       0.797719         45.1017         24.7236         46.1148 
       0.803834         44.7399         24.3025         45.4629 
       0.809972         44.1317         23.8896         44.9974 
       0.816124         43.6701         23.4854         44.5364 
       0.822261         43.0905         23.0916         43.9169 
       0.828378          42.837         22.7081         43.3393 
       0.834502         42.2864         22.3331         43.1796 
       0.840667         41.9204         21.9642         42.6177 
       0.846816         41.2063         21.6048         42.1877 
       0.852925         40.9813         21.2558         41.9211 
       0.859047         40.7026         20.9139         41.2797 
       0.865192          40.018         20.5785         40.8786 
       0.871341          39.569         20.2503         40.5355 
       0.877463         39.2387         19.9308         40.1181 
       0.883569         39.0402         19.6191         39.8264 
       0.889708         38.5488         19.3125         39.3087 
       0.895864         38.1062         19.0117         38.8939 
       0.902008         37.6831          18.718         38.5629 
       0.908149         37.3457         18.4307         38.2915 
       0.914301         37.0568          18.149         37.9978 
       0.920448         36.6886         17.8734         37.5116 
       0.926574         36.1367         17.6046          37.097 
       0.932687         35.8519         17.3418         36.8176 
       0.938823         35.4266         17.0836         36.4117 
       0.944975         35.1181           16.83         36.0542 
       0.951105         34.8276         16.5825         35.7977 
       0.957225         34.6094         16.3405         35.4647 
       0.963368         34.1671         16.1024         35.1016 
       0.969511         33.8919         15.8692         34.7808 
       0.975621         33.6076         15.6419         34.5699 
       0.981748          33.215         15.4184         34.2847 
       0.987916         32.9933          15.198         33.9313 
        0.99406          32.612         14.9827         33.6615 
        1.00019         32.4073          14.772         33.3522 
        1.00632         32.1181         14.5656         33.1162 
        1.01246         31.8481         14.3629         32.8632 
        1.01859          31.521         14.1644         32.5977 
        1.02471         31.2146         13.9699         32.3144 
        1.03085         31.0836         13.7784         32.0268 
        1.03698         30.8316         13.5909         31.7521 
        1.04314         30.5342         13.4061         31.4244 
        1.04929         30.1578         13.2252         31.2786 
        1.05541         30.0574         13.0484          31.141 
        1.06154         29.8529         12.8744         30.7399 
        1.06769         29.3966         12.7034         30.4838 
        1.07382          29.259          12.536         30.3232 
        1.07993         28.9908          12.372         30.0249 
        1.08607         28.7959         12.2103         29.8197 
        1.09222          28.563         12.0514         29.6671 
        1.09836         28.2892         11.8955          29.416 
        1.10449         28.1641         11.7425         29.1347 
        1.11063         27.8901          11.592         28.9701 
        1.11677         27.8155         11.4443         28.7246 
         1.1229         27.5162         11.2994         28.5129 
        1.12903         27.2923         11.1569         28.3107 
        1.13518         27.1778         11.0168         28.0425 
        1.14131         26.9223         10.8791         27.8828 
        1.14745         26.6113         10.7439         27.7164 
        1.15359         26.3648         10.6109         27.5083 
        1.15973         26.2257         10.4802         27.3451 
        1.16584          26.037         10.3523         27.1492 
        1.17197         25.7312         10.2263         26.9834 
        1.17811         25.6271          10.102         26.6596 
        1.18424         25.3448         9.98019         26.5531 
        1.19038         25.2595         9.86003         26.4497 
        1.19652         25.0267          9.7419         26.1822 
        1.20267         24.9113         9.62572          26.036 
        1.20881         24.6965         9.51147         25.8814 
        1.21495         24.5532         9.39925         25.7506 
        1.22108         24.4768         9.28888          25.523 
         1.2272         24.2715         9.18054         25.3783 
        1.23334         24.0963         9.07369         25.2407 
        1.23949         23.8894         8.96829         25.0055 
        1.24562          23.649         8.86487         24.8687 
        1.25174         23.5576         8.76323         24.7269 
        1.25789         23.4476         8.66289         24.5588 
        1.26402         23.2961         8.56431         24.3753 
        1.27014          23.131          8.4675         24.2536 
        1.27628         22.9001         8.37191         24.0658 
        1.28244         22.8795         8.27762         24.0071 
        1.28858         22.6337         8.18491         23.7971 
        1.29471         22.4429         8.09384         23.6424 
        1.30084         22.3028         8.00424         23.5588 
        1.30697         22.1993         7.91587         23.3674 
        1.31312         22.0071         7.82871         23.2196 
        1.31925         21.8777         7.74314         23.1189 
        1.32537         21.7109         7.65894         23.0006 
        1.33151         21.5663          7.5757         22.8521 
        1.33765         21.5212         7.49374         22.7185 
        1.34378         21.3753         7.41317         22.5882 
        1.34992         21.2129         7.33372         22.4762 
        1.35606         21.0579         7.25527         22.3195 
         1.3622         20.9002         7.17811         22.2039 
        1.36833         20.8418         7.10226         22.1015 
        1.37445         20.6949         7.02754         21.9203 
        1.38059         20.5547         6.95368          21.789 
        1.38675         20.4065          6.8807         21.7068 
        1.39288         20.2785         6.80905          21.567 
        1.39901         20.1545         6.73847         21.4605 
        1.40515         20.0567         6.66873          21.339 
         1.4113         19.9577             6.6         21.2216 
        1.41742         19.8491         6.53251         21.1234 
        1.42355          19.672         6.46584         20.9681 
         1.4297         19.5526          6.3999         20.8624 
        1.43585         19.4417         6.33491         20.7943 
        1.44198         19.3703         6.27108         20.6689 
        1.44809         19.2473         6.20824         20.5805 
        1.45423          19.132         6.14604         20.4266 
        1.46036         19.0163          6.0848         20.3072 
        1.46649         18.8959         6.02438         20.2265 
        1.47263         18.7856         5.96473         20.1564 
        1.47877          18.711         5.90592         20.0717 
        1.48491         18.5925         5.84781         19.8915 
        1.49104         18.4645         5.79061         19.8072 
        1.49718         18.3996         5.73413         19.7371 
        1.50333         18.3148         5.67832         19.6392 
        1.50947         18.1919         5.62337          19.553 
         1.5156         18.0909         5.56922           19.45 
        1.52172         17.9623         5.51579         19.3168 
        1.52787         17.8897         5.46296         19.2233 
          1.534         17.8143         5.41088         19.1355 
        1.54013         17.7305         5.35954          19.007 
        1.54627         17.5694         5.30878         18.9034 
        1.55241          17.466         5.25866         18.8374 
        1.55855          17.403         5.20927         18.7576 
        1.56467         17.3467         5.16065         18.6684 
         1.5708         17.2456         5.11251          18.588 
        1.57695         17.1505         5.06492          18.495 
        1.58308         16.9987         5.01804         18.4093 
        1.58922         16.9331         4.97172         18.3473 
        1.59535         16.8476         4.92601         18.2534 
         1.6015         16.7291         4.88081         18.1591 
        1.60764         16.6687          4.8362          18.057 
        1.61376         16.6079         4.79228         17.9541 
        1.61989          16.465         4.74886          17.907 
        1.62604         16.4173         4.70588         17.8586 
        1.63218         16.3426         4.66347         17.7695 
        1.63831         16.2211         4.62167         17.6762 
        1.64444         16.1396         4.58037         17.6135 
        1.65059         16.0584         4.53948         17.5042 
        1.65673         16.0071         4.49913         17.4315 
        1.66285         15.8758         4.45939          17.369 
        1.66898         15.8486         4.42011         17.2656 
        1.67512         15.7971         4.38123         17.1759 
        1.68127         15.6809         4.34279         17.1105 
         1.6874         15.6302         4.30489         17.0333 
        1.69353         15.4717         4.26746         16.9286 
        1.69967         15.4242          4.2304         16.8841 
        1.70581         15.3633         4.19379         16.8379 
        1.71193          15.255         4.15775         16.7597 
        1.71806         15.2135         4.12206         16.6846 
        1.72421         15.1382         4.08673         16.6251 
        1.73035         15.0498         4.05184         16.5532 
        1.73649         14.9997         4.01737         16.4651 
        1.74262         14.8847         3.98333         16.3925 
        1.74876         14.8372         3.94966         16.3204 
        1.75489         14.7832         3.91646         16.2451 
        1.76101          14.678         3.88364         16.1764 
        1.76715         14.6321         3.85115         16.1213 
        1.77329          14.546           3.819         16.0391 
        1.77943         14.4722          3.7872         15.9658 
        1.78557         14.4337         3.75581         15.9337 
        1.79171         14.3303         3.72477         15.8638 
        1.79785         14.2797         3.69408         15.7818 
        1.80399         14.1942         3.66374         15.7372 
        1.81012         14.1594         3.63378         15.6622 
        1.81625         14.0627         3.60417         15.6044 
        1.82239         13.9978         3.57484         15.5693 
        1.82853         13.9348         3.54586         15.4866 
        1.83466         13.8472         3.51722         15.4134 
        1.84078         13.8158         3.48893         15.3624 
        1.84692         13.7884         3.46091         15.2928 
        1.85306         13.6983         3.43316         15.2299 
         1.8592         13.6498         3.40576         15.1787 
        1.86533         13.5255         3.37868         15.1191 
        1.87147         13.4802         3.35186         15.0573 
