# k  (h/Mpc)    Pcb(k)  (Mpc/h)^3    Pcb_linear(k) (Mpc/h)^3    Pcb_NL(k) (Mpc/h)^3   ShotnoiseSubtracted = false
     0.00783031         18374.2         18450.3         18367.9 
       0.013688         22430.4         23092.3         22928.7 
       0.019231         23269.6         23693.5         23464.6 
      0.0249154         22174.9         22169.3         21913.7 
      0.0312784         19080.2           19361         19084.9 
      0.0375637         16122.3         16501.4         16253.3 
      0.0433917         14130.3         14279.4         14020.5 
      0.0492413         12382.2         12610.7         12371.4 
      0.0555754           11245         11369.9         11159.2 
      0.0619321         10059.7         10523.5         10318.2 
       0.067871         9593.43         9894.25         9699.82 
      0.0738098         9074.94          9267.2         8970.26 
      0.0800417         8350.37         8523.03         8250.12 
      0.0862327         7511.54         7693.09         7535.05 
      0.0921407         6784.49         6874.62         6754.31 
      0.0982031         6145.61         6088.48         6106.92 
       0.104506         5417.75         5399.95         5534.96 
       0.110769         4968.24         4879.87         4985.02 
       0.116806         4712.19         4526.95         4630.22 
       0.122832         4436.57          4285.9         4398.71 
       0.129052         4203.13         4103.35         4198.44 
       0.135211         4117.46         3937.75            4008 
       0.141259         3841.37         3752.81         3854.96 
       0.147318         3591.49         3529.52         3670.65 
       0.153489         3383.47         3268.87         3376.28 
       0.159709         3240.39         2994.49         3180.25 
       0.165845         2950.27         2739.05         3031.08 
       0.171974          2847.3         2520.25          2840.2 
       0.178125         2742.94         2347.45         2732.93 
       0.184229         2520.93          2221.1         2582.44 
        0.19034         2491.39         2129.54         2477.36 
       0.196428         2426.64         2058.16         2376.42 
       0.202534         2294.91         1991.08         2306.72 
       0.208729         2252.62         1915.53         2197.64 
       0.214876         2155.23         1827.42         2151.92 
       0.220989         2057.54         1728.01          2089.1 
       0.227147         1995.89         1622.39         2020.88 
        0.23329         1914.24         1519.99         1957.37 
       0.239377         1902.18         1428.83         1876.28 
       0.245482         1813.08         1352.01         1790.46 
       0.251667         1747.13         1289.82         1742.47 
       0.257832         1716.09         1241.03         1681.63 
       0.263955         1644.05         1201.02         1632.77 
       0.270079         1606.55          1164.3         1588.69 
        0.27624         1540.74         1126.44          1544.2 
       0.282372         1526.65         1085.26         1520.34 
        0.28843         1494.19         1040.91         1491.35 
       0.294538            1431         993.918         1450.17 
       0.300721         1407.18         946.592         1407.41 
        0.30691         1368.43         902.063         1387.55 
       0.313033         1319.63         862.698         1341.93 
       0.319153         1306.83         828.781         1301.94 
       0.325316         1290.03         799.697         1279.32 
        0.33145         1260.91         774.606         1233.99 
       0.337538         1222.38         751.888         1214.87 
       0.343633         1196.16         729.793         1201.45 
       0.349808            1177         707.003         1184.11 
       0.355968         1151.47         683.346         1164.52 
       0.362074         1120.11         659.259         1144.35 
       0.368217            1116         634.948         1117.73 
       0.374374         1097.74         611.393          1096.4 
       0.380519         1061.87         589.384         1074.64 
       0.386598         1057.59         569.496         1059.53 
       0.392688         1028.71         551.583         1036.18 
        0.39888         1012.25         535.087         1018.88 
       0.405048         990.617         519.963         1001.42 
       0.411186           987.1         505.665         984.948 
       0.417313         980.921         491.656         973.377 
       0.423458         953.274          477.65         956.415 
       0.429607         929.564         463.587         941.599 
       0.435692         920.962         449.722         922.186 
       0.441815         903.064         436.075         919.235 
       0.447964         894.411         422.913         907.699 
       0.454126          882.44         410.424         881.673 
       0.460267         872.578         398.803         879.732 
       0.466387         856.657         388.019          863.94 
        0.47254         844.438          377.83         851.736 
       0.478662          832.41         368.195         839.646 
       0.484765         823.213         358.947         830.931 
       0.490885         814.635         349.889         815.509 
       0.497035         798.873         340.913         808.686 
       0.503198         797.904         332.059         799.969 
       0.509342         782.946         323.428         786.026 
       0.515458         767.742         315.079         780.963 
       0.521598         768.251         306.994         773.456 
       0.527764         749.615         299.227         765.735 
       0.533884         740.297           291.9         756.723 
           0.54         736.332         284.929         747.706 
       0.546137         726.756         278.225         739.104 
       0.552299         720.878         271.736         728.952 
       0.558452         712.482         265.461         723.547 
       0.564573           709.4         259.389          717.12 
       0.570708         700.379         253.446         708.146 
       0.576825         686.784         247.651         699.012 
       0.582926         684.814          242.01         694.241 
       0.589034         676.228         236.527          683.64 
       0.595184         668.017         231.193         677.469 
       0.601379         658.185         226.019         671.446 
       0.607522         649.132         221.074          661.43 
       0.613639         648.267         216.319         659.551 
       0.619772         641.681         211.706          657.61 
       0.625918          633.48         207.225         648.484 
       0.632068         629.924         202.874         645.205 
       0.638161         620.816         198.682         634.611 
         0.6443         614.585         194.569         629.913 
       0.650464         610.006         190.545         621.612 
       0.656582         604.897          186.65         618.175 
       0.662703          597.73         182.857         613.662 
       0.668861         590.851         179.148         610.925 
       0.675024         588.272         175.545         606.598 
       0.681124         575.945         172.088         597.289 
       0.687237         576.429         168.729         591.896 
       0.693381          566.96         165.451         586.608 
       0.699536          568.55         162.258         582.693 
       0.705665         558.697         159.163         575.614 
       0.711789         557.695         156.149         571.243 
       0.717957         550.492         153.187         570.664 
        0.72409         545.932         150.314         564.332 
       0.730186          544.17          147.53         558.495 
       0.736317         536.718         144.801         554.748 
       0.742472         530.728         142.131         550.971 
       0.748622         530.147         139.534         545.451 
        0.75476         521.505          137.01         546.136 
       0.760888         520.065         134.555         539.468 
       0.767043         516.873         132.153          532.65 
       0.773185         512.109         129.816         529.563 
       0.779291          507.06          127.55         525.254 
       0.785407         503.133         125.335         522.284 
       0.791564          500.66         123.159         520.372 
       0.797719         492.695         121.034         515.041 
       0.803834         492.933         118.973         511.982 
       0.809972          485.54         116.951         508.764 
       0.816124         482.305         114.972         502.401 
       0.822261         478.921         113.045         500.147 
       0.828378         477.313         111.167         496.544 
       0.834502         469.647         109.331         495.012 
       0.840667         467.592         107.525         490.824 
       0.846816         464.299         105.766         486.958 
       0.852925         463.116         104.057         484.155 
       0.859047         457.171         102.384         479.359 
       0.865192         454.973         100.742         476.244 
       0.871341         449.795          99.135         473.591 
       0.877463         449.073         97.5711         470.729 
       0.883569         444.888         96.0451         468.549 
       0.889708         439.466         94.5442          463.83 
       0.895864          434.93         93.0717          461.36 
       0.902008         434.131         91.6338         458.123 
       0.908149         429.757         90.2272         453.814 
       0.914301         428.006         88.8479         450.205 
       0.920448          422.53          87.499         449.214 
       0.926574         420.634         86.1828         445.942 
       0.932687         418.847         84.8967         442.094 
       0.938823         414.443         83.6323         441.394 
       0.944975         412.845          82.391         437.792 
       0.951105         409.302         81.1794         434.419 
       0.957225         404.298         79.9944          432.25 
       0.963368         403.985         78.8292         429.552 
       0.969511         399.331         77.6874         427.013 
       0.975621         396.292         76.5744         423.874 
       0.981748         394.702         75.4806         421.495 
       0.987916         391.836         74.4013         419.565 
        0.99406          387.53         73.3474         416.704 
        1.00019         384.111         72.3161          412.91 
        1.00632         382.812         71.3057         410.317 
        1.01246         379.272         70.3133         407.749 
        1.01859         376.716         69.3414         405.051 
        1.02471         374.886         68.3893         403.071 
        1.03085         372.444         67.4518         401.722 
        1.03698         369.864          66.534         399.962 
        1.04314         366.645         65.6295          396.91 
        1.04929         365.731          64.744         393.339 
        1.05541         361.544         63.8784         390.898 
        1.06154         358.859         63.0266         389.049 
        1.06769         356.157         62.1892         386.223 
        1.07382         352.798         61.3698             384 
        1.07993         352.817         60.5671         382.142 
        1.08607         350.473         59.7755         379.334 
        1.09222         346.815         58.9973         377.215 
        1.09836         344.667          58.234         375.901 
        1.10449         341.828         57.4851         373.787 
        1.11063         340.773         56.7487           370.5 
        1.11677          336.94         56.0254         368.824 
         1.1229         335.242         55.3161         366.537 
        1.12903         332.297         54.6185         364.583 
        1.13518         331.026         53.9324         361.812 
        1.14131         328.568         53.2585         360.421 
        1.14745         325.673         52.5965         357.458 
        1.15359         322.748         51.9457         356.672 
        1.15973         321.293         51.3056         354.225 
        1.16584         319.737         50.6793          352.88 
        1.17197         317.217         50.0626          350.91 
        1.17811         313.466         49.4542         348.346 
        1.18424         312.817         48.8578          346.62 
        1.19038          310.95         48.2696         345.355 
        1.19652         307.755         47.6913          342.47 
        1.20267         306.171         47.1225         340.859 
        1.20881         304.751         46.5632         339.125 
        1.21495         301.407         46.0139         336.845 
        1.22108         300.783         45.4735         334.605 
         1.2272         296.742         44.9432         333.375 
        1.23334         295.215         44.4201         331.164 
        1.23949          293.42         43.9041         329.445 
        1.24562         292.183         43.3978         327.542 
        1.25174         290.315         42.9002         325.893 
        1.25789          287.45          42.409         323.997 
        1.26402         286.182         41.9264         322.943 
        1.27014         284.218         41.4525         320.405 
        1.27628         282.411         40.9845          319.61 
        1.28244         279.349         40.5229         318.171 
        1.28858         278.392         40.0691         316.104 
        1.29471          276.77         39.6232         313.643 
        1.30084         275.833         39.1846         311.905 
        1.30697         272.628          38.752         310.784 
        1.31312         271.103         38.3253         309.043 
        1.31925         269.538         37.9064         307.285 
        1.32537         268.341         37.4942         305.162 
        1.33151         265.243         37.0867         303.969 
        1.33765         263.545         36.6855         302.697 
        1.34378         262.664          36.291         300.609 
        1.34992         259.955         35.9021         298.943 
        1.35606         258.169          35.518         297.075 
         1.3622         256.273         35.1403         296.186 
        1.36833         256.087          34.769         295.113 
        1.37445         254.558         34.4032         292.368 
        1.38059         251.199         34.0416         291.668 
        1.38675         249.791         33.6843         290.558 
        1.39288         249.183         33.3336         288.363 
        1.39901         246.784          32.988         286.602 
        1.40515         245.559         32.6466         284.854 
         1.4113           243.6         32.3102         283.255 
        1.41742         242.005         31.9798         282.101 
        1.42355         240.454         31.6534         280.546 
         1.4297         238.978         31.3306         278.723 
        1.43585         237.092         31.0124         278.352 
        1.44198         235.652         30.6999         276.403 
        1.44809         234.257         30.3923         275.094 
        1.45423         232.833         30.0878         273.008 
        1.46036         232.215          29.788         271.964 
        1.46649         230.014         29.4922         270.867 
        1.47263         227.897         29.2002         268.995 
        1.47877          226.88         28.9123          267.39 
        1.48491         225.069         28.6279         265.831 
        1.49104         222.847         28.3478          264.73 
        1.49718         222.063         28.0713         264.278 
        1.50333         220.602         27.7981          262.47 
        1.50947          218.98         27.5291         260.965 
         1.5156         217.714          27.264         259.873 
        1.52172          216.01         27.0024         258.319 
        1.52787         214.825         26.7438         257.169 
          1.534         214.038         26.4889         255.763 
        1.54013         212.012         26.2375         254.547 
        1.54627         210.717          25.989         253.583 
        1.55241         209.806         25.7437         252.398 
        1.55855         208.103         25.5019         251.034 
        1.56467         206.647         25.2638         249.384 
         1.5708         205.161         25.0282         248.059 
        1.57695         204.609         24.7952         246.912 
        1.58308         203.271         24.5657         245.516 
        1.58922         201.363          24.339         244.301 
        1.59535         200.083         24.1152         243.388 
         1.6015         199.073         23.8939         242.497 
        1.60764         197.652         23.6755         241.114 
        1.61376         196.154         23.4605         239.532 
        1.61989         194.921         23.2479         238.412 
        1.62604         193.883         23.0376         237.189 
        1.63218         192.334         22.8299         236.039 
        1.63831         191.302         22.6253         235.007 
        1.64444         189.868         22.4231         233.824 
        1.65059         188.946         22.2229         232.831 
        1.65673         187.621         22.0254         231.706 
        1.66285         186.332         21.8308         230.378 
        1.66898         185.223         21.6386         229.107 
        1.67512         183.943         21.4482         228.167 
        1.68127          182.69           21.26         227.057 
         1.6874         181.602         21.0745         225.926 
        1.69353         180.953         20.8913         225.097 
        1.69967         179.384         20.7098         223.928 
        1.70581         178.287         20.5306         222.845 
        1.71193         176.983         20.3542         221.817 
        1.71806         175.685         20.1795         220.407 
        1.72421         174.882         20.0065         219.397 
        1.73035         173.561         19.8357         218.424 
        1.73649         172.175          19.667         217.258 
        1.74262         171.518         19.5003         216.294 
        1.74876         170.085         19.3355         215.282 
        1.75489          169.52         19.1729         214.335 
        1.76101         168.367         19.0123         213.524 
        1.76715         167.257         18.8532         212.536 
        1.77329         165.986         18.6958         211.556 
        1.77943         164.882         18.5402         210.505 
        1.78557         163.761         18.3865         209.299 
        1.79171         162.939         18.2345         208.353 
        1.79785          161.61         18.0843         207.438 
        1.80399         160.784         17.9357          206.31 
        1.81012         160.207         17.7891         205.688 
        1.81625         158.597         17.6441         204.832 
        1.82239         157.978         17.5006         203.538 
        1.82853          156.85         17.3587         202.627 
        1.83466         155.613         17.2185         201.639 
        1.84078         154.777           17.08         200.606 
        1.84692         154.155         16.9428         199.983 
        1.85306         152.977          16.807         198.926 
         1.8592          152.09         16.6728         197.761 
        1.86533         150.685         16.5402         197.209 
        1.87147         149.942         16.4089         196.455 
