# k  (h/Mpc)    P(k)  (Mpc/h)^3    P_linear(k)  (Mpc/h)^3     P_NL(k)  ShotnoiseSubtracted = false
     0.00783031         12039.8         12095.9         12046.9 
       0.013688         14780.5         15141.4         15050.9 
       0.019231           15320         15536.6         15413.8 
      0.0249154         14556.9         14537.8         14412.2 
      0.0312784           12573         12696.5         12573.4 
      0.0375637         10642.5         10821.4         10712.9 
      0.0433917         9313.75         9364.37         9253.83 
      0.0492413         8169.11         8270.14         8169.34 
      0.0555754         7422.13         7456.47         7366.83 
      0.0619321          6672.3          6901.4          6813.2 
       0.067871         6359.26         6488.78         6404.12 
      0.0738098          5997.9         6077.57         5946.35 
      0.0800417         5527.82         5589.55         5468.34 
      0.0862327         4969.48         5045.27         4977.01 
      0.0921407         4471.58         4508.51         4457.12 
      0.0982031         4031.59         3992.95         4007.09 
       0.104506          3547.8          3541.4         3609.72 
       0.110769         3240.86         3200.33         3250.94 
       0.116806         3069.43         2968.88         3018.53 
       0.122832         2880.31          2810.8         2865.86 
       0.129052         2745.95         2691.07         2736.26 
       0.135211         2678.84         2582.47         2617.85 
       0.141259         2508.69         2461.18         2509.86 
       0.147318         2336.88         2314.75         2386.07 
       0.153489         2195.23          2143.8         2194.77 
       0.159709         2082.68         1963.86         2052.99 
       0.165845         1885.85         1796.34         1940.28 
       0.171974         1817.37         1652.84          1806.3 
       0.178125         1734.07         1539.52         1727.13 
       0.184229         1599.26         1456.66         1633.82 
        0.19034         1571.73         1396.61         1565.62 
       0.196428         1528.16         1349.79         1498.29 
       0.202534            1438          1305.8         1453.41 
       0.208729         1416.35         1256.25         1387.39 
       0.214876         1357.23         1198.47         1356.18 
       0.220989         1278.98         1133.27         1308.06 
       0.227147         1242.33         1064.01         1253.93 
        0.23329         1188.99          996.85         1210.37 
       0.239377         1170.85         937.069         1156.88 
       0.245482         1109.41         886.685         1098.92 
       0.251667         1066.58           845.9         1067.95 
       0.257832         1050.99         813.899         1028.28 
       0.263955         1000.45          787.66         995.286 
       0.270079         971.321         763.581         967.406 
        0.27624         931.692         738.751         938.091 
       0.282372         916.883         711.741         916.396 
        0.28843         905.624         682.656         892.384 
       0.294538         859.895          651.84         868.324 
       0.300721         838.405         620.801         842.818 
        0.30691         820.834         591.598         825.069 
       0.313033         784.817         565.783         795.462 
       0.319153         773.419         543.539         772.122 
       0.325316         762.327         524.461         755.624 
        0.33145         745.396         508.008         727.824 
       0.337538         719.207          493.11         712.937 
       0.343633         700.412         478.617         705.499 
       0.349808         685.258         463.674         692.776 
       0.355968         672.213         448.157         680.425 
       0.362074         649.219          432.36         665.585 
       0.368217         646.821         416.417         646.181 
       0.374374         635.711         400.968         632.746 
       0.380519         611.055         386.535         617.628 
       0.386598         605.611         373.492         609.453 
       0.392688         590.991         361.743         592.079 
        0.39888         576.207         350.924         582.394 
       0.405048         565.221         341.006          574.14 
       0.411186         563.531         331.631         559.871 
       0.417313         557.881         322.441         549.604 
       0.423458         541.469         313.255         541.592 
       0.429607         526.265         304.034         531.048 
       0.435692         519.333          294.94         520.213 
       0.441815         510.261          285.99         516.242 
       0.447964         500.559         277.358         507.191 
       0.454126         494.679         269.168         493.451 
       0.460267         486.627         261.546          490.96 
       0.466387         478.349         254.474         481.414 
        0.47254         471.079         247.792         474.679 
       0.478662         461.917         241.473         465.697 
       0.484765         456.685         235.407         457.438 
       0.490885         451.827         229.469         450.914 
       0.497035         442.331          223.58         445.945 
       0.503198         441.853         217.774          439.74 
       0.509342         432.051         212.114         434.067 
       0.515458         424.239         206.638         430.338 
       0.521598         418.967         201.336         423.032 
       0.527764         411.639         196.241         418.008 
       0.533884         408.947         191.436         412.575 
           0.54          403.76         186.864         406.257 
       0.546137          395.81         182.468         401.412 
       0.552299         394.799         178.212         395.667 
       0.558452         388.237         174.097         391.729 
       0.564573         384.716         170.115         388.538 
       0.570708         379.715         166.218          384.66 
       0.576825         372.624         162.416         377.396 
       0.582926          370.66         158.717         373.703 
       0.589034          364.63         155.121         368.848 
       0.595184         361.865         151.622         363.683 
       0.601379         356.101          148.23         360.672 
       0.607522         349.328         144.987         356.241 
       0.613639         348.061         141.868         353.907 
       0.619772         346.525         138.843         351.943 
       0.625918         340.038         135.904          346.43 
       0.632068         337.025          133.05         342.241 
       0.638161         334.074         130.301         339.684 
         0.6443         330.192         127.604         336.447 
       0.650464         325.815         124.965         330.469 
       0.656582         322.789         122.411         327.945 
       0.662703         320.495         119.923         326.485 
       0.668861         314.868         117.491          323.27 
       0.675024         313.456         115.127         320.107 
       0.681124         309.259          112.86         315.354 
       0.687237         307.176         110.657         312.568 
       0.693381         302.868         108.507         309.655 
       0.699536          301.19         106.413         307.427 
       0.705665         297.735         104.384         304.346 
       0.711789         295.557         102.407         302.084 
       0.717957         291.995         100.464         300.024 
        0.72409         288.434         98.5804          297.43 
       0.730186         290.095         96.7546         294.625 
       0.736317         284.633         94.9646         291.506 
       0.742472         282.018         93.2138         288.662 
       0.748622         278.944         91.5103         286.026 
        0.75476         278.336         89.8551         285.661 
       0.760888         275.028         88.2453         281.628 
       0.767043         271.905         86.6699         279.794 
       0.773185         270.233         85.1373          277.65 
       0.779291         266.512         83.6511         274.637 
       0.785407         265.282         82.1984         272.763 
       0.791564         262.944         80.7709         270.723 
       0.797719         258.688         79.3776         268.848 
       0.803834         260.472         78.0256         267.203 
       0.809972          256.44            76.7         264.968 
       0.816124         253.042         75.4022         262.232 
       0.822261         251.024          74.138          260.63 
       0.828378         250.488         72.9067         258.325 
       0.834502         246.729         71.7025          256.73 
       0.840667         246.946         70.5181         254.478 
       0.846816         242.273         69.3642         253.048 
       0.852925         242.222         68.2438         251.142 
       0.859047         239.797         67.1461         249.447 
       0.865192         239.229         66.0693         247.318 
       0.871341         235.892         65.0156         245.553 
       0.877463         233.979         63.9899         244.241 
       0.883569         233.141         62.9892         242.984 
       0.889708         230.757         62.0048         240.537 
       0.895864         228.599         61.0391         239.175 
       0.902008         226.758         60.0961         237.345 
       0.908149         224.882         59.1736         235.236 
       0.914301         223.375          58.269         233.816 
       0.920448         222.627         57.3843         231.932 
       0.926574         220.414         56.5212         230.266 
       0.932687          219.41         55.6777         228.853 
       0.938823         217.306         54.8485         227.959 
       0.944975          216.45         54.0344         226.654 
       0.951105          213.99         53.2398         224.815 
       0.957225         212.313         52.4626         223.105 
       0.963368         211.954         51.6985         221.407 
       0.969511         208.281         50.9496          219.84 
       0.975621         207.072         50.2197         219.267 
       0.981748         206.335         49.5023         217.823 
       0.987916         205.205         48.7945         216.422 
        0.99406         203.294         48.1033         215.043 
        1.00019         202.006          47.427         213.376 
        1.00632         201.163         46.7643          211.67 
        1.01246         199.334         46.1135         209.994 
        1.01859         197.375         45.4761         209.322 
        1.02471         195.882         44.8517         208.478 
        1.03085         194.853         44.2368          207.18 
        1.03698         193.746         43.6349          206.21 
        1.04314         193.144         43.0417         204.586 
        1.04929         191.783          42.461         203.162 
        1.05541          190.27         41.8933         202.033 
        1.06154         188.463         41.3347         200.884 
        1.06769         187.364         40.7855         199.945 
        1.07382         186.623         40.2481         198.582 
        1.07993         184.568         39.7216         197.368 
        1.08607         183.715         39.2025         196.365 
        1.09222          182.21         38.6921         195.407 
        1.09836         181.608         38.1915         194.443 
        1.10449         179.939         37.7004         193.307 
        1.11063         178.656         37.2174         191.929 
        1.11677         177.695         36.7431         190.628 
         1.1229         176.532         36.2779          189.63 
        1.12903         175.305         35.8204         188.735 
        1.13518         173.983         35.3704         187.605 
        1.14131         173.277         34.9284         186.321 
        1.14745         171.548         34.4943         185.531 
        1.15359         170.148         34.0675         184.398 
        1.15973         169.783         33.6477         183.367 
        1.16584         168.695         33.2369         181.823 
        1.17197         167.661         32.8325         181.368 
        1.17811         166.117         32.4335         180.578 
        1.18424         165.316         32.0424         179.126 
        1.19038         164.346         31.6566         178.684 
        1.19652         162.721         31.2773         177.788 
        1.20267             162         30.9043         176.448 
        1.20881         160.699         30.5375         175.727 
        1.21495         160.485         30.1772         174.595 
        1.22108          159.11         29.8228         173.918 
         1.2272         157.787          29.475         172.361 
        1.23334          157.13          29.132         171.994 
        1.23949         156.391         28.7936         171.153 
        1.24562         155.146         28.4615         169.766 
        1.25174         154.332         28.1352         169.157 
        1.25789         152.944         27.8131         168.184 
        1.26402         152.691         27.4965         167.257 
        1.27014         151.839         27.1857         166.849 
        1.27628         150.301         26.8788         166.416 
        1.28244         149.529         26.5761         165.035 
        1.28858         148.531         26.2785         164.018 
        1.29471         147.624         25.9861         163.166 
        1.30084         146.656         25.6984         162.312 
        1.30697         145.603         25.4147         161.612 
        1.31312         144.728         25.1348          160.43 
        1.31925          143.75         24.8601         159.768 
        1.32537         143.232         24.5898         159.279 
        1.33151         142.326         24.3225          158.28 
        1.33765         141.114         24.0594         157.508 
        1.34378         140.835         23.8007         156.776 
        1.34992         139.855         23.5456         155.758 
        1.35606         138.993         23.2938         154.875 
         1.3622         138.302          23.046         154.307 
        1.36833         136.887         22.8025         153.355 
        1.37445         136.795         22.5626         152.586 
        1.38059         135.528         22.3255         151.777 
        1.38675         134.805         22.0911         151.041 
        1.39288         133.772         21.8611          149.91 
        1.39901         132.991         21.6345         149.596 
        1.40515         132.543         21.4106         149.099 
         1.4113         131.477           21.19         148.338 
        1.41742         130.594         20.9733         147.736 
        1.42355         130.451         20.7592         147.018 
         1.4297         129.183         20.5475         146.217 
        1.43585         128.529         20.3389         145.221 
        1.44198          127.28         20.1339         144.684 
        1.44809         126.789         19.9322         144.059 
        1.45423         126.348         19.7325          143.18 
        1.46036         125.222         19.5358         142.503 
        1.46649         124.528         19.3419         142.055 
        1.47263         123.925         19.1504         141.498 
        1.47877         122.907         18.9615         140.501 
        1.48491         122.397          18.775         139.934 
        1.49104         121.011         18.5913         139.591 
        1.49718         120.844           18.41          138.38 
        1.50333         120.264         18.2308         137.685 
        1.50947         119.458         18.0544         137.229 
         1.5156         118.602         17.8805          136.59 
        1.52172         117.991          17.709         135.926 
        1.52787         117.377         17.5394         135.257 
          1.534           116.7         17.3722         134.689 
        1.54013          115.97         17.2073         134.125 
        1.54627         115.155         17.0443         133.514 
        1.55241         114.796         16.8834         132.876 
        1.55855         114.081         16.7249         132.184 
        1.56467         113.295         16.5688         131.489 
         1.5708         112.257         16.4142         131.012 
        1.57695         112.046         16.2614         130.457 
        1.58308         111.165         16.1109         129.709 
        1.58922         110.937         15.9622         129.108 
        1.59535         110.289         15.8154         128.586 
         1.6015         109.228         15.6703         127.913 
        1.60764         108.569         15.5271         127.286 
        1.61376         108.044         15.3861         126.967 
        1.61989           107.6         15.2467         126.501 
        1.62604          106.75         15.1087         125.557 
        1.63218         106.265         14.9725         124.939 
        1.63831         105.521         14.8383         124.655 
        1.64444         104.805         14.7057         123.848 
        1.65059          104.23         14.5744         123.357 
        1.65673         104.002         14.4449         122.841 
        1.66285         103.405         14.3173         122.284 
        1.66898         102.517         14.1912          121.81 
        1.67512         101.984         14.0664         121.254 
        1.68127         101.495         13.9429         120.654 
         1.6874         100.586         13.8213         120.125 
        1.69353         100.157         13.7011         119.679 
        1.69967         99.5286         13.5821         119.052 
        1.70581         99.2482         13.4646         118.465 
        1.71193         98.4517         13.3489         117.996 
        1.71806         97.7805         13.2343         117.493 
        1.72421         97.2553         13.1208         116.966 
        1.73035          96.767         13.0088         116.369 
        1.73649         96.0354         12.8982         115.787 
        1.74262         95.7679         12.7889         115.404 
        1.74876          95.001         12.6808         114.898 
        1.75489         94.6451         12.5742         114.284 
        1.76101         94.0118         12.4688         113.746 
        1.76715         93.3068         12.3645         113.341 
        1.77329         92.8718         12.2613         112.819 
        1.77943         92.3169         12.1592         112.246 
        1.78557         91.9473         12.0584         111.805 
        1.79171         91.4011         11.9587         111.399 
        1.79785         90.5847         11.8602         110.957 
        1.80399         90.4601         11.7628         110.443 
        1.81012         89.5629         11.6666         109.831 
        1.81625         89.1749         11.5715         109.345 
        1.82239         88.7171         11.4774         108.973 
        1.82853         88.1764         11.3843         108.469 
        1.83466         87.5213         11.2924         107.944 
        1.84078         87.2808         11.2016         107.535 
        1.84692         86.9554         11.1116         107.238 
        1.85306         86.3041         11.0225         106.697 
         1.8592         85.9341         10.9345         106.118 
        1.86533          85.231         10.8476         105.757 
        1.87147         84.9266         10.7615         105.154 
        1.87761         84.1179         10.6762          104.66 
