# k  (h/Mpc)    Pcb(k)  (Mpc/h)^3    Pcb_linear(k) (Mpc/h)^3    Pcb_NL(k) (Mpc/h)^3   ShotnoiseSubtracted = false
     0.00783031         7114.55          7152.2         7125.21 
       0.013688         8783.13         8954.53         8908.79 
       0.019231         9094.05         9189.01         9129.19 
      0.0249154         8613.62         8598.61         8544.79 
      0.0312784         7466.63          7509.8         7465.33 
      0.0375637         6331.88         6400.86         6363.37 
      0.0433917         5530.96         5539.06         5503.26 
      0.0492413         4857.21         4891.87         4860.23 
      0.0555754         4411.45          4410.6         4381.85 
      0.0619321         3988.63          4082.3          4053.6 
       0.067871         3795.32         3838.24         3809.65 
      0.0738098         3570.91         3595.01         3549.44 
      0.0800417         3293.61         3306.35         3264.25 
      0.0862327         2961.17          2984.4         2961.79 
      0.0921407         2655.91          2666.9         2650.86 
      0.0982031         2383.66         2361.93         2370.58 
       0.104506         2096.02         2094.84         2123.64 
       0.110769            1908         1893.08         1914.26 
       0.116806         1801.34         1756.18         1776.84 
       0.122832         1688.47         1662.67          1685.6 
       0.129052         1617.39         1591.85         1610.46 
       0.135211         1570.21         1527.61         1543.19 
       0.141259         1477.17         1455.86         1475.71 
       0.147318         1374.88         1369.24         1399.31 
       0.153489         1287.45         1268.13            1289 
       0.159709         1208.67         1161.69         1197.27 
       0.165845         1091.62         1062.59         1120.52 
       0.171974         1045.31         977.709         1037.67 
       0.178125         987.531         910.674         984.368 
       0.184229         916.628          861.66         932.325 
        0.19034         895.508         826.137         892.785 
       0.196428         868.471         798.447         854.655 
       0.202534         817.832         772.425         828.455 
       0.208729         804.613         743.116         793.563 
       0.214876         773.183         708.933         771.652 
       0.220989         721.527         670.369         739.332 
       0.227147         700.035         629.393         702.773 
        0.23329         667.632          589.67         673.809 
       0.239377         648.248         554.306         641.996 
       0.245482         612.039         524.503         607.596 
       0.251667         585.952         500.379         588.285 
       0.257832         578.291         481.449         565.921 
       0.263955         548.231         465.927         546.845 
       0.270079         530.416         451.683         530.635 
        0.27624         509.156         436.993         513.095 
       0.282372         497.403         421.019         498.953 
        0.28843         492.849         403.813         482.996 
       0.294538         467.234         385.584         468.702 
       0.300721         450.195         367.224          454.45 
        0.30691         441.577          349.95         440.738 
       0.313033         421.054         334.679          423.65 
       0.319153         413.041         321.521         411.079 
       0.325316         403.218         310.238         400.941 
        0.33145         393.228         300.504          386.29 
       0.337538         379.655          291.69         376.224 
       0.343633         368.069         283.119         370.743 
       0.349808         358.579         274.278         362.959 
       0.355968         350.876           265.1         355.534 
       0.362074         340.628         255.756         346.172 
       0.368217         336.378         246.324         334.831 
       0.374374         328.396         237.186         326.787 
       0.380519         314.811         228.648         317.909 
       0.386598         309.949         220.933         311.585 
       0.392688         302.012         213.983         303.455 
        0.39888          294.79         207.584         296.181 
       0.405048         288.959         201.717         291.885 
       0.411186         286.343          196.17           284.5 
       0.417313         280.589         190.735         277.161 
       0.423458         273.231         185.302         272.269 
       0.429607         266.547         179.846         267.011 
       0.435692         261.647         174.467         261.336 
       0.441815         256.579         169.173         258.366 
       0.447964          249.36         164.067         252.616 
       0.454126         245.473         159.222         245.558 
       0.460267         242.394         154.714         243.133 
       0.466387         237.412          150.53         237.881 
        0.47254         234.409         146.577         233.795 
       0.478662         227.424         142.839           229.3 
       0.484765         224.614         139.252         223.807 
       0.490885         221.295         135.738         221.055 
       0.497035         218.245         132.255         218.161 
       0.503198         215.564         128.821         214.511 
       0.509342         209.775         125.472         211.535 
       0.515458         207.131         122.233         209.272 
       0.521598         202.336         119.097         204.494 
       0.527764         200.172         116.083          200.84 
       0.533884         199.273         113.241         198.143 
           0.54         194.482         110.537         195.053 
       0.546137         190.114         107.936         192.838 
       0.552299         188.437         105.419         188.979 
       0.558452         185.055         102.984         186.223 
       0.564573          183.91         100.629         184.514 
       0.570708         179.508         98.3231         181.953 
       0.576825         177.143         96.0747         178.488 
       0.582926         175.268         93.8866         176.162 
       0.589034         172.576         91.7592         174.464 
       0.595184         170.991         89.6901         171.301 
       0.601379         167.456         87.6829         170.124 
       0.607522         164.401         85.7647         167.097 
       0.613639         163.101         83.9199          165.41 
       0.619772           161.2         82.1302         162.962 
       0.625918          159.79          80.392         161.294 
       0.632068         156.259         78.7037         158.673 
       0.638161         154.554         77.0776         157.732 
         0.6443         153.706         75.4821         155.487 
       0.650464         150.683         73.9208         152.513 
       0.656582         149.816         72.4101         151.517 
       0.662703         148.095         70.9386         149.467 
       0.668861         145.098         69.4996         147.907 
       0.675024         145.055         68.1018         145.883 
       0.681124         142.727         66.7607         144.434 
       0.687237         140.697         65.4574          142.64 
       0.693381         139.492         64.1857         140.879 
       0.699536         137.813         62.9471         139.754 
       0.705665         136.074         61.7466         138.891 
       0.711789         134.364         60.5771         136.449 
       0.717957         132.811         59.4281         135.205 
        0.72409         131.709         58.3137         134.548 
       0.730186         131.315         57.2336         133.075 
       0.736317         129.082         56.1748         131.202 
       0.742472         127.312         55.1391         130.016 
       0.748622         125.339         54.1314         128.482 
        0.75476         125.598         53.1524         127.122 
       0.760888         124.289         52.2001         125.519 
       0.767043          122.05         51.2682         124.939 
       0.773185         120.669         50.3616         124.148 
       0.779291         119.319         49.4825         122.734 
       0.785407          118.17         48.6232         121.127 
       0.791564         117.509         47.7787         120.271 
       0.797719         115.995         46.9545         119.511 
       0.803834         115.496         46.1548         117.851 
       0.809972         114.641         45.3707          116.91 
       0.816124          113.02          44.603         116.218 
       0.822261         111.772         43.8551          114.93 
       0.828378         111.535         43.1268         113.434 
       0.834502         109.844         42.4145         112.935 
       0.840667         109.256         41.7139         112.363 
       0.846816          108.23         41.0313         111.116 
       0.852925         106.998         40.3685         110.066 
       0.859047         106.249         39.7192         109.047 
       0.865192         105.186         39.0822         108.404 
       0.871341         104.107         38.4589         107.231 
       0.877463         103.386         37.8522          106.59 
       0.883569         103.116         37.2602         105.855 
       0.889708         102.131          36.678         104.947 
       0.895864         101.181         36.1067         104.291 
       0.902008         100.133         35.5489         103.164 
       0.908149         98.8676         35.0032          102.37 
       0.914301         98.7621         34.4681         101.767 
       0.920448          98.395         33.9448         101.032 
       0.926574         96.4086         33.4342         99.8609 
       0.932687         96.2259         32.9352         99.1985 
       0.938823         95.4582         32.4447          98.478 
       0.944975         94.3662         31.9632         97.7382 
       0.951105         93.5593         31.4932         97.0625 
       0.957225         93.4364         31.0334         96.4772 
       0.963368         92.3546         30.5814         95.3491 
       0.969511         91.6777         30.1384         94.8132 
       0.975621         90.8326         29.7067          94.929 
       0.981748         90.0712         29.2823         93.8372 
       0.987916         89.4327         28.8636          93.368 
        0.99406         89.1162         28.4548         92.4773 
        1.00019         88.0154         28.0547         91.7017 
        1.00632          87.388         27.6627         91.1822 
        1.01246         86.8319         27.2777         90.4016 
        1.01859         86.4541         26.9007         89.9982 
        1.02471         85.6612         26.5313         89.6189 
        1.03085         84.8725         26.1676         88.8124 
        1.03698         84.3103         25.8115         88.0945 
        1.04314         83.6779         25.4606         87.5752 
        1.04929         83.2229         25.1171         87.2092 
        1.05541         82.6359         24.7813         86.7901 
        1.06154         82.1033         24.4509         86.2069 
        1.06769         81.3616          24.126         85.6676 
        1.07382         80.6525         23.8081         85.0635 
        1.07993         80.3863         23.4967         84.5302 
        1.08607         79.7278         23.1896          83.989 
        1.09222         79.3874         22.8877         83.2504 
        1.09836         78.5805         22.5916         82.7577 
        1.10449         78.1546         22.3011         82.3313 
        1.11063         77.5512         22.0154         81.5949 
        1.11677         77.0967         21.7348         81.1093 
         1.1229         76.4646         21.4596          80.971 
        1.12903         76.1989          21.189         80.3218 
        1.13518         75.7882         20.9228         79.8249 
        1.14131          75.104         20.6614         79.3692 
        1.14745         74.6353         20.4045         78.9481 
        1.15359          73.743         20.1521         78.4919 
        1.15973         73.6959         19.9038         78.1387 
        1.16584         73.1481         19.6608          77.463 
        1.17197         72.5838         19.4215         77.1686 
        1.17811         72.1013         19.1855         76.6118 
        1.18424         71.4164         18.9542         76.2506 
        1.19038         71.3507          18.726         75.8619 
        1.19652         70.8574         18.5016         75.2911 
        1.20267          70.277          18.281         74.9895 
        1.20881         69.8571          18.064         74.5121 
        1.21495         69.4646         17.8509         74.0721 
        1.22108         69.2062         17.6412         73.8065 
         1.2272         68.4781         17.4355         73.3612 
        1.23334         68.2579         17.2325         72.9567 
        1.23949         67.7855         17.0324         72.4148 
        1.24562         67.2424          16.836         72.1046 
        1.25174         66.8532         16.6429         71.8264 
        1.25789         66.7944         16.4524         71.3264 
        1.26402         66.2281         16.2651         70.9593 
        1.27014         65.9176         16.0813           70.76 
        1.27628         65.2656         15.8998         70.3366 
        1.28244         65.1596         15.7207         69.7669 
        1.28858         64.6493         15.5446         69.4696 
        1.29471         64.2224         15.3716         69.2668 
        1.30084         63.6516         15.2015         68.6069 
        1.30697          63.701         15.0336          68.305 
        1.31312         63.1426         14.8681         68.1744 
        1.31925         62.6989         14.7056         67.7179 
        1.32537         62.3611         14.5457         67.3555 
        1.33151          62.078         14.3876         67.0132 
        1.33765         61.6807          14.232         66.6905 
        1.34378         61.3916         14.0789         66.3323 
        1.34992         61.0477          13.928         66.0605 
        1.35606         60.5825         13.7791          65.759 
         1.3622         60.3344         13.6325         65.3923 
        1.36833         59.9346         13.4885         65.0009 
        1.37445         59.4154         13.3466         64.7285 
        1.38059         59.2965         13.2063         64.6399 
        1.38675         58.6512         13.0677         64.0746 
        1.39288         58.6656         12.9316          63.914 
        1.39901         58.1053         12.7976         63.5707 
        1.40515         57.8919         12.6651         63.3143 
         1.4113         57.7057         12.5346         63.0589 
        1.41742         57.2605         12.4064         62.6173 
        1.42355         56.9851         12.2798         62.2733 
         1.4297         56.6594         12.1546         61.9887 
        1.43585         56.2641         12.0311         61.7996 
        1.44198          55.937         11.9099         61.5883 
        1.44809         55.5649         11.7906         61.0463 
        1.45423         55.3483         11.6724          60.835 
        1.46036         55.0148         11.5561         60.6393 
        1.46649         54.7876         11.4414         60.4159 
        1.47263         54.4826         11.3281         60.1535 
        1.47877         54.2588         11.2164         59.7453 
        1.48491         53.9194          11.106         59.5074 
        1.49104         53.4764         10.9974         59.1616 
        1.49718         53.2843         10.8901          58.943 
        1.50333         53.0459         10.7841         58.6737 
        1.50947         52.7438         10.6798         58.4091 
         1.5156         52.5352         10.5769         58.1992 
        1.52172         52.1062         10.4755         57.9698 
        1.52787         51.8175         10.3751         57.7021 
          1.534         51.5807         10.2762         57.4432 
        1.54013         51.4663         10.1787         57.1735 
        1.54627          50.947         10.0823         56.9081 
        1.55241         50.7064         9.98714         56.6433 
        1.55855         50.5646         9.89333         56.3467 
        1.56467         50.1426         9.80099          56.114 
         1.5708         50.0411         9.70957         55.9728 
        1.57695         49.7099         9.61918         55.7922 
        1.58308         49.4202         9.53015         55.5027 
        1.58922         49.1802         9.44219         55.2012 
        1.59535          49.034         9.35537          54.973 
         1.6015         48.9076         9.26953         54.7038 
        1.60764         48.5185         9.18481         54.4957 
        1.61376         48.2291         9.10138         54.3578 
        1.61989         47.8966         9.01893         54.0408 
        1.62604         47.7114         8.93731         53.7518 
        1.63218          47.421         8.85675         53.5508 
        1.63831         47.2989         8.77738         53.3704 
        1.64444         47.0352         8.69894         53.1335 
        1.65059         46.7562         8.62128         52.8849 
        1.65673         46.4451         8.54465         52.6661 
        1.66285         46.3286         8.46917         52.4816 
        1.66898         45.9109         8.39458         52.3189 
        1.67512         45.8142         8.32074         52.1365 
        1.68127         45.5814         8.24772         51.8161 
         1.6874         45.3209         8.17575         51.5035 
        1.69353         45.1654         8.10467         51.3882 
        1.69967         44.9641         8.03428         51.2368 
        1.70581         44.6148         7.96475         51.0878 
        1.71193         44.4219         7.89631         50.8849 
        1.71806         44.2087         7.82853         50.5125 
        1.72421         43.9908         7.76142         50.2846 
        1.73035         43.7704         7.69517         50.2315 
        1.73649         43.4506          7.6297         50.1217 
        1.74262         43.1601         7.56505         49.7052 
        1.74876         43.1751         7.50111         49.4656 
        1.75489         42.8206         7.43805         49.3556 
        1.76101         42.6345         7.37572         49.1714 
        1.76715         42.5662         7.31403         48.9792 
        1.77329         42.1043         7.25296         48.7972 
        1.77943         42.1245         7.19257         48.6037 
        1.78557         41.8981         7.13296         48.3902 
        1.79171         41.6674         7.07401         48.1828 
        1.79785         41.4288         7.01571         48.0311 
        1.80399         41.2171         6.95809         47.9121 
        1.81012         41.0538         6.90119         47.6199 
        1.81625         40.7611         6.84495         47.3559 
        1.82239         40.5618         6.78926         47.2471 
        1.82853         40.4317         6.73421         47.1212 
        1.83466         40.2004         6.67983         46.8946 
        1.84078         40.0423          6.6261         46.6649 
        1.84692         39.7819         6.57289         46.5862 
        1.85306         39.5674         6.52019         46.4176 
         1.8592         39.4539         6.46815         46.1849 
        1.86533         39.2538         6.41671         46.0632 
        1.87147         39.0417         6.36577         45.9056 
