# k  (h/Mpc)    Pcb(k)  (Mpc/h)^3    Pcb_linear(k) (Mpc/h)^3    Pcb_NL(k) (Mpc/h)^3   ShotnoiseSubtracted = false
     0.00783031         5092.15         5120.92         5102.03 
       0.013688         6303.84         6412.05         6381.44 
       0.019231         6523.04         6580.24         6541.03 
      0.0249154         6167.95         6157.61         6124.93 
      0.0312784         5355.71         5377.99         5354.32 
      0.0375637         4546.09         4583.89         4564.82 
      0.0433917         3966.74         3966.75         3949.74 
      0.0492413         3486.03         3503.29         3488.75 
      0.0555754         3164.45         3158.64         3145.07 
      0.0619321          2870.1         2923.53         2909.79 
       0.067871         2727.63         2748.76         2734.45 
      0.0738098         2563.67         2574.58         2551.22 
      0.0800417         2364.78         2367.85          2346.3 
      0.0862327         2126.61         2137.29         2126.08 
      0.0921407         1904.88         1909.91         1902.48 
      0.0982031         1705.82         1691.51         1697.29 
       0.104506         1500.23         1500.23         1516.75 
       0.110769         1363.46         1355.74         1368.04 
       0.116806         1284.33          1257.7         1269.59 
       0.122832          1204.3         1190.73         1203.84 
       0.129052         1155.38         1140.01         1150.62 
       0.135211         1118.93         1094.01         1103.11 
       0.141259            1055         1042.63         1053.81 
       0.147318          982.59         980.595         997.632 
       0.153489         918.513         908.178         920.025 
       0.159709         857.726         831.951         851.724 
       0.165845         774.658         760.983         793.085 
       0.171974         738.091         700.194         732.975 
       0.178125         694.127         652.187          692.42 
       0.184229         646.752         617.085         655.976 
        0.19034         630.014         591.645         628.147 
       0.196428         610.058         571.814         602.064 
       0.202534         575.955         553.179         583.329 
       0.208729          565.28         532.189          559.69 
       0.214876         543.691         507.709         542.231 
       0.220989         506.125         480.091         517.866 
       0.227147         489.862         450.746         490.541 
        0.23329         465.914         422.298         468.264 
       0.239377         448.993         396.972         445.219 
       0.245482         423.647         375.628         420.944 
       0.251667         404.566         358.351         406.476 
       0.257832         398.725         344.794         390.977 
       0.263955         378.152         333.678         377.667 
       0.270079         365.727         323.477         366.198 
        0.27624         351.214         312.957         353.805 
       0.282372         341.887         301.516          343.56 
        0.28843         338.168         289.194         331.898 
       0.294538         321.003          276.14         321.123 
       0.300721         307.417         262.991         310.652 
        0.30691         301.006          250.62         299.944 
       0.313033         287.015         239.683         287.933 
       0.319153          281.24          230.26         279.153 
       0.325316         272.501          222.18         271.749 
        0.33145         264.998         215.209         262.027 
       0.337538         256.417         208.897         254.658 
       0.343633         248.588         202.758          249.96 
       0.349808         241.661         196.427         244.319 
       0.355968         235.752         189.854         239.061 
       0.362074         229.882         183.162          232.19 
       0.368217         225.438         176.408         224.137 
       0.374374         219.667         169.863         218.458 
       0.380519         210.249         163.749          212.04 
       0.386598         206.081         158.223         206.985 
       0.392688         200.341         153.246         201.866 
        0.39888         196.167         148.663         196.297 
       0.405048         191.965         144.461         192.826 
       0.411186         189.095         140.489         188.536 
       0.417313         184.558         136.597         183.135 
       0.423458         179.941         132.706         179.585 
       0.429607         176.021         128.798           175.8 
       0.435692         172.744         124.946         171.979 
       0.441815         168.301         121.155         169.581 
       0.447964         163.178         117.498         165.304 
       0.454126         160.205         114.028         160.655 
       0.460267         158.655           110.8         158.585 
       0.466387         155.006         107.803         154.875 
        0.47254         153.157         104.973         152.087 
       0.478662         147.982         102.296          149.07 
       0.484765         145.916         99.7264         145.318 
       0.490885         143.018         97.2098          143.45 
       0.497035         141.632          94.716         141.371 
       0.503198         138.739         92.2561          138.58 
       0.509342         135.088         89.8583         136.429 
       0.515458         133.374         87.5386         134.851 
       0.521598         130.085         85.2923          131.38 
       0.527764         128.712         83.1344         128.468 
       0.533884         127.776         81.0986         126.628 
           0.54         124.285         79.1619         124.631 
       0.546137         121.379         77.2993         123.111 
       0.552299          119.75         75.4967         120.369 
       0.558452         117.516         73.7532         118.281 
       0.564573         116.936         72.0663         117.062 
       0.570708         113.614         70.4151         115.212 
       0.576825         112.378         68.8049         113.151 
       0.582926         111.102         67.2378         111.391 
       0.589034         109.173         65.7143         110.236 
       0.595184         107.839         64.2325          108.33 
       0.601379         105.271          62.795         107.174 
       0.607522         103.549         61.4212         104.863 
       0.613639         102.605         60.1001         103.754 
       0.619772           100.9         58.8184         101.973 
       0.625918         99.9045         57.5735         101.059 
       0.632068         98.0714         56.3645         99.2744 
       0.638161          96.478         55.1999         98.3626 
         0.6443         95.9139         54.0572         96.7097 
       0.650464         93.8992         52.9391         94.9297 
       0.656582         93.4688         51.8572         94.2717 
       0.662703         92.1628         50.8034         92.6526 
       0.668861         90.1629         49.7729         91.6908 
       0.675024         89.9939         48.7718         90.3136 
       0.681124         88.5615         47.8113         89.1743 
       0.687237         86.8822          46.878         88.0217 
       0.693381         86.2839         45.9673         86.7984 
       0.699536         85.2243         45.0802         86.2692 
       0.705665         83.9302         44.2205         85.3776 
       0.711789         82.7589         43.3829         83.6255 
       0.717957          81.697           42.56         83.0233 
        0.72409         81.0338         41.7619         82.4478 
       0.730186         80.4696         40.9884         81.3611 
       0.736317          79.012         40.2301         80.1473 
       0.742472         78.0523         39.4884         79.3171 
       0.748622         76.8394         38.7668         78.3309 
        0.75476         76.2832         38.0656         77.4448 
       0.760888         75.9077         37.3836         76.4776 
       0.767043         74.3838         36.7162          76.093 
       0.773185         73.4985          36.067         75.4145 
       0.779291         72.6623         35.4374         74.5445 
       0.785407         71.6888          34.822          73.467 
       0.791564         71.6166         34.2172         72.7308 
       0.797719         70.5861          33.627          72.248 
       0.803834         69.9271         33.0542         71.2359 
       0.809972         69.3097         32.4927         70.5775 
       0.816124         68.4994         31.9429         70.0602 
       0.822261         67.5389         31.4073         69.1274 
       0.828378         67.3259         30.8857         68.1977 
       0.834502         66.3475         30.3756         67.9864 
       0.840667         65.8844         29.8738         67.3683 
       0.846816           65.12          29.385         66.6683 
       0.852925         64.4771         28.9103         66.0857 
       0.859047         64.2182         28.4453         65.2626 
       0.865192          63.147         27.9891         64.8017 
       0.871341         62.4704         27.5428          64.156 
       0.877463         62.0599         27.1082         63.6339 
       0.883569         61.8173         26.6843         63.2252 
       0.889708         61.1578         26.2673         62.5252 
       0.895864         60.5834         25.8582          61.985 
       0.902008          59.941         25.4587         61.4019 
       0.908149         59.3166         25.0679         60.9777 
       0.914301         58.9379         24.6847          60.553 
       0.920448         58.6561         24.3099         59.9135 
       0.926574         57.5178         23.9442         59.2633 
       0.932687         57.2123         23.5869         58.9278 
       0.938823         56.6774         23.2356         58.2725 
       0.944975         56.0388         22.8907          57.773 
       0.951105         55.6201         22.5541         57.5259 
       0.957225         55.3899         22.2249         56.9966 
       0.963368         54.8155         21.9012         56.3656 
       0.969511          54.339         21.5839         55.9407 
       0.975621         53.9266         21.2747         55.7895 
       0.981748         53.3517         20.9708         55.2285 
       0.987916         52.9416          20.671         54.8713 
        0.99406         52.5744         20.3782         54.4052 
        1.00019         52.0571         20.0916         53.9532 
        1.00632         51.6549         19.8109         53.5518 
        1.01246         51.2576         19.5352         53.1008 
        1.01859         50.9539         19.2652         52.7835 
        1.02471         50.3594         19.0007         52.4427 
        1.03085         50.0801         18.7402         51.9752 
        1.03698         49.7417         18.4852         51.5605 
        1.04314         49.3612         18.2339         51.0846 
        1.04929         48.8067         17.9879         50.8814 
        1.05541         48.6176         17.7474         50.6986 
        1.06154         48.3076         17.5107         50.1685 
        1.06769         47.6181         17.2781         49.8259 
        1.07382         47.4141         17.0504         49.5007 
        1.07993         47.1112         16.8274         49.0704 
        1.08607         46.7497         16.6075         48.7611 
        1.09222         46.4873         16.3913         48.4637 
        1.09836         46.0679         16.1792         48.1458 
        1.10449         45.8447         15.9711          47.738 
        1.11063         45.3747         15.7665         47.4094 
        1.11677         45.2782         15.5656         47.0864 
         1.1229         44.7929         15.3685         46.8194 
        1.12903         44.5823         15.1747         46.5125 
        1.13518         44.4416         14.9841         46.1517 
        1.14131         43.9312         14.7968         45.9194 
        1.14745         43.5301         14.6129          45.614 
        1.15359         43.1012         14.4321         45.3911 
        1.15973         43.0234         14.2543         45.0826 
        1.16584         42.7015         14.0803         44.7209 
        1.17197         42.1812         13.9089         44.4615 
        1.17811         42.0323         13.7399         44.0765 
        1.18424         41.4807         13.5742         43.8323 
        1.19038         41.3906         13.4108         43.7327 
        1.19652         41.1761         13.2501         43.3188 
        1.20267         40.9125         13.0921         43.1566 
        1.20881          40.599         12.9367         42.8477 
        1.21495         40.4387         12.7841         42.6978 
        1.22108         40.2861         12.6339         42.3344 
         1.2272         39.8987         12.4866         42.1615 
        1.23334         39.6494         12.3413         41.8731 
        1.23949          39.385         12.1979         41.5378 
        1.24562         39.0601         12.0572         41.3622 
        1.25174         38.8185          11.919         41.1499 
        1.25789         38.7685         11.7825         40.8629 
        1.26402         38.4495         11.6485         40.6056 
        1.27014         38.2349         11.5168          40.435 
        1.27628          37.844         11.3868         40.1733 
        1.28244         37.7932         11.2585           40.03 
        1.28858         37.4568         11.1324         39.7515 
        1.29471         37.2204         11.0086         39.5551 
        1.30084         36.9359         10.8867         39.2652 
        1.30697         36.8437         10.7665         38.9985 
        1.31312          36.501          10.648         38.8823 
        1.31925         36.2293         10.5316         38.6388 
        1.32537         36.0434          10.417         38.4483 
        1.33151         35.7972         10.3038         38.2662 
        1.33765         35.6897         10.1924         38.0604 
        1.34378         35.5305         10.0828         37.8419 
        1.34992         35.2199         9.97471         37.6685 
        1.35606         35.0213         9.86801         37.5174 
         1.3622         34.7956         9.76306         37.3216 
        1.36833         34.6617          9.6599         37.1168 
        1.37445         34.3597         9.55827         36.8642 
        1.38059         34.2241         9.45781         36.7558 
        1.38675         33.9038         9.35854         36.5559 
        1.39288         33.8416          9.2611         36.3841 
        1.39901         33.5823          9.1651         36.2004 
        1.40515         33.4249         9.07024         35.9705 
         1.4113         33.3852         8.97677         35.7694 
        1.41742         33.1404         8.88497         35.6378 
        1.42355         32.8259         8.79429         35.4222 
         1.4297         32.6756         8.70461         35.2092 
        1.43585         32.4523         8.61622         35.1071 
        1.44198         32.2989         8.52939         34.9285 
        1.44809         32.0985         8.44393         34.7313 
        1.45423         31.9867         8.35932         34.5109 
        1.46036         31.8205         8.27604         34.3645 
        1.46649         31.6224         8.19386         34.2414 
        1.47263         31.4013         8.11273         34.1013 
        1.47877         31.2816         8.03274         33.9602 
        1.48491         31.1472         7.95371         33.7427 
        1.49104         30.8858          7.8759         33.5871 
        1.49718          30.823         7.79909         33.4259 
        1.50333         30.6987         7.72317         33.3045 
        1.50947         30.4332         7.64843         33.1785 
         1.5156         30.3039         7.57479         33.0066 
        1.52172         30.0799         7.50212         32.8163 
        1.52787         29.9705         7.43026         32.6624 
          1.534         29.7927         7.35943         32.5392 
        1.54013         29.7355          7.2896         32.3696 
        1.54627           29.45         7.22055         32.1946 
        1.55241         29.3178         7.15239         32.0641 
        1.55855         29.2362         7.08521          31.951 
        1.56467         29.0941         7.01908          31.814 
         1.5708         28.9109         6.95361         31.6653 
        1.57695         28.7877         6.88887         31.4942 
        1.58308         28.5178         6.82511         31.3431 
        1.58922         28.3817         6.76212         31.2474 
        1.59535         28.2922         6.69995           31.12 
         1.6015         28.1958         6.63847          30.954 
        1.60764         28.0266          6.5778         30.7959 
        1.61376         27.8531         6.51805         30.6702 
        1.61989         27.6571           6.459          30.558 
        1.62604         27.5509         6.40055         30.4757 
        1.63218          27.437         6.34286         30.3684 
        1.63831         27.3188         6.28601         30.2206 
        1.64444         27.1594         6.22984          30.085 
        1.65059         27.0176         6.17422         29.9405 
        1.65673         26.9084         6.11934          29.803 
        1.66285         26.8078         6.06528         29.6938 
        1.66898         26.6129         6.01186         29.5948 
        1.67512         26.5642         5.95898         29.4493 
        1.68127         26.4048         5.90669         29.3308 
         1.6874         26.2546         5.85515         29.1977 
        1.69353         26.1526         5.80425         29.0004 
        1.69967          26.028         5.75383         28.9158 
        1.70581         25.8277         5.70404         28.8606 
        1.71193         25.6919         5.65503           28.75 
        1.71806         25.6351         5.60649         28.5905 
        1.72421         25.5335         5.55842         28.4677 
        1.73035         25.3586         5.51097          28.383 
        1.73649         25.2128         5.46409         28.2801 
        1.74262         25.0647         5.41779         28.1078 
        1.74876         24.9942           5.372         27.9864 
        1.75489         24.8703         5.32683         27.9164 
        1.76101         24.7682          5.2822           27.83 
        1.76715          24.676         5.23802         27.6869 
        1.77329         24.4777         5.19429         27.5536 
        1.77943          24.436         5.15104         27.4564 
        1.78557         24.3112         5.10834         27.3681 
        1.79171         24.1945         5.06612         27.2577 
        1.79785         24.0736         5.02438         27.1641 
        1.80399         23.9519         4.98311         27.1023 
        1.81012         23.8932         4.94236         26.9379 
        1.81625         23.6954         4.90208         26.7959 
        1.82239         23.6081          4.8622         26.7369 
        1.82853         23.4974         4.82278         26.6432 
        1.83466         23.3846         4.78383          26.544 
        1.84078         23.2744         4.74535         26.4538 
        1.84692         23.2073         4.70724         26.3503 
        1.85306         23.0448          4.6695         26.2502 
         1.8592         23.0139         4.63223         26.1534 
        1.86533         22.8266         4.59539         26.0478 
        1.87147         22.7167         4.55891          25.944 
