# k  (h/Mpc)    P(k)  (Mpc/h)^3    P_linear(k)  (Mpc/h)^3     P_NL(k)  ShotnoiseSubtracted = false
     0.00783031          415.42         418.473         416.855 
       0.013688         519.786         524.315          522.18 
       0.019231         536.339         538.202         535.691 
      0.0249154         503.437         503.702         502.079 
      0.0312784         439.705         439.966         439.488 
      0.0375637         374.645         375.021           374.9 
      0.0433917           325.2         324.542         324.726 
      0.0492413         286.732         286.629         286.887 
      0.0555754         259.187         258.436         258.559 
      0.0619321         238.245         239.203         239.234 
       0.067871         224.744         224.905         224.764 
      0.0738098         210.573         210.655         210.361 
      0.0800417         193.903         193.742         193.462 
      0.0862327         174.785         174.878         174.723 
      0.0921407         156.162         156.274         156.239 
      0.0982031         138.738         138.404         138.533 
       0.104506         122.597         122.753             123 
       0.110769         110.888         110.931         111.152 
       0.116806         103.267         102.909         103.075 
       0.122832         97.4039         97.4298         97.5707 
       0.129052         93.4293         93.2801         93.3526 
       0.135211         89.7724         89.5159         89.5442 
       0.141259         85.2972         85.3118         85.3412 
       0.147318         79.9723         80.2361          80.324 
       0.153489         74.2509         74.3108         74.3843 
       0.159709         68.1933         68.0736         68.2329 
       0.165845         62.0597         62.2669         62.5426 
       0.171974         57.6135         57.2929         57.5746 
       0.178125         53.6443         53.3648         53.6994 
       0.184229         50.5955         50.4926         50.8136 
        0.19034         48.7453          48.411         48.6964 
       0.196428         47.0156         46.7884         47.0005 
       0.202534         45.1548         45.2635         45.4646 
       0.208729         43.6665          43.546         43.7334 
       0.214876         41.8232         41.5429         41.7924 
       0.220989         39.2398         39.2832         39.5649 
       0.227147         37.1906         36.8821         37.1795 
        0.23329         34.9179         34.5543         34.9102 
       0.239377         32.9042         32.4821         32.8673 
       0.245482         31.1195         30.7356         31.0895 
       0.251667         29.5858         29.3219         29.6975 
       0.257832         28.6383         28.2126          28.568 
       0.263955         27.5765         27.3031         27.6293 
       0.270079         26.7128         26.4684          26.775 
        0.27624         25.7389         25.6077         25.8936 
       0.282372         24.8252         24.6715         24.9793 
        0.28843         23.9939         23.6633         23.9831 
       0.294538         22.8939         22.5951         22.9311 
       0.300721         21.7294         21.5192         21.8813 
        0.30691         20.8595         20.5069         20.8792 
       0.313033         19.9312         19.6121         19.9763 
       0.319153         19.3175          18.841         19.2177 
       0.325316         18.4415         18.1797         18.5606 
        0.33145         17.8602         17.6094         17.9659 
       0.337538         17.3725          17.093         17.4338 
       0.343633          16.902         16.5906         16.9248 
       0.349808         16.3443         16.0726         16.4179 
       0.355968         15.7781         15.5348         15.9164 
       0.362074         15.3091         14.9872         15.3529 
       0.368217         14.7474         14.4345         14.7759 
       0.374374         14.3011          13.899         14.2643 
       0.380519         13.7043         13.3987         13.7533 
       0.386598         13.2272         12.9466         13.3094 
       0.392688         12.7943         12.5394         12.8993 
        0.39888         12.4675         12.1643         12.5195 
       0.405048         12.1341         11.8205         12.1537 
       0.411186         11.7846         11.4955         11.8558 
       0.417313         11.4647          11.177         11.5225 
       0.423458         11.0985         10.8586         11.2086 
       0.429607         10.8452         10.5389         10.8779 
       0.435692         10.5527         10.2237         10.5738 
       0.441815         10.1935         9.91348         10.2802 
       0.447964         9.84732         9.61426         9.96866 
       0.454126         9.62323         9.33037         9.67993 
       0.460267         9.41111         9.06614         9.42402 
       0.466387         9.13322         8.82102         9.16247 
        0.47254         8.92516         8.58938         8.93303 
       0.478662         8.67951         8.37035         8.70592 
       0.484765         8.47007         8.16009         8.49426 
       0.490885         8.23379         7.95424         8.30875 
       0.497035         8.00654         7.75011         8.10809 
       0.503198         7.83704         7.54886         7.88094 
       0.509342         7.60351         7.35265          7.6917 
       0.515458         7.45014         7.16284         7.51601 
       0.521598         7.26707         6.97904         7.30733 
       0.527764         7.12349         6.80245         7.12772 
       0.533884         6.89752         6.63591          6.9602 
           0.54         6.75522         6.47742         6.79625 
       0.546137         6.56894         6.32502         6.65099 
       0.552299         6.43741         6.17751         6.48213 
       0.558452         6.29085         6.03486         6.34299 
       0.564573         6.16347         5.89682         6.22502 
       0.570708          6.0242         5.76174         6.08274 
       0.576825         5.89447         5.62995         5.94455 
       0.582926          5.7512         5.50173         5.82067 
       0.589034         5.64509         5.37708          5.7045 
       0.595184         5.54005          5.2558         5.55395 
       0.601379         5.39292          5.1382         5.45779 
       0.607522         5.27798         5.02579         5.33832 
       0.613639         5.15073         4.91769         5.22483 
       0.619772         5.06762         4.81281         5.12801 
       0.625918         4.95794         4.71096         5.01474 
       0.632068         4.86933         4.61202          4.9101 
       0.638161         4.76313         4.51673         4.81404 
         0.6443         4.66409         4.42324         4.71441 
       0.650464         4.56574         4.33174         4.63407 
       0.656582         4.49977         4.24321         4.54031 
       0.662703         4.41049         4.15699         4.44882 
       0.668861          4.2958         4.07267         4.37204 
       0.675024         4.22061         3.99075          4.2822 
       0.681124         4.18648         3.91217         4.19901 
       0.687237         4.08378         3.83579         4.11194 
       0.693381           3.981         3.76127         4.03178 
       0.699536         3.93563         3.68869         3.96165 
       0.705665          3.8599         3.61834         3.90595 
       0.711789         3.77094         3.54981         3.83115 
       0.717957         3.70123         3.48248         3.75471 
        0.72409         3.64266         3.41717         3.69107 
       0.730186         3.59744         3.35388         3.62001 
       0.736317         3.51426         3.29183         3.55439 
       0.742472         3.46468         3.23114         3.50582 
       0.748622         3.40636         3.17209         3.44547 
        0.75476         3.32698         3.11472         3.37728 
       0.760888         3.28674         3.05891         3.32249 
       0.767043         3.19895         3.00431         3.27006 
       0.773185          3.1578         2.95118          3.2186 
       0.779291          3.1295         2.89966         3.16476 
       0.785407         3.06366         2.84931         3.10925 
       0.791564         3.01273         2.79983         3.05926 
       0.797719         2.96027         2.75153         3.00188 
       0.803834         2.91383         2.70466         2.95686 
       0.809972         2.86376         2.65871         2.91804 
       0.816124         2.81765         2.61373         2.86349 
       0.822261         2.77715          2.5699           2.817 
       0.828378         2.72769         2.52722         2.77394 
       0.834502         2.68561         2.48548         2.72741 
       0.840667          2.6515         2.44443         2.68782 
       0.846816          2.6035         2.40443         2.65415 
       0.852925         2.55923         2.36559         2.60973 
       0.859047         2.52105         2.32754         2.57646 
       0.865192         2.48235         2.29021         2.53351 
       0.871341         2.44783         2.25369         2.49489 
       0.877463         2.40435         2.21813         2.45478 
       0.883569         2.37049         2.18344          2.4231 
       0.889708            2.34         2.14932         2.38757 
       0.895864         2.30521         2.11585         2.35018 
       0.902008         2.26266         2.08316          2.3173 
       0.908149         2.23491         2.05118         2.28444 
       0.914301         2.20678         2.01983         2.25004 
       0.920448         2.17589         1.98916         2.21575 
       0.926574         2.15217         1.95924         2.18824 
       0.932687         2.11654            1.93         2.14999 
       0.938823          2.0762         1.90126         2.13035 
       0.944975         2.05617         1.87304         2.09259 
       0.951105         2.01536         1.84549         2.06436 
       0.957225         1.99313         1.81855         2.04126 
       0.963368         1.97083         1.79207         2.01018 
       0.969511         1.94571         1.76611          1.9842 
       0.975621         1.91202         1.74081         1.95066 
       0.981748         1.87699         1.71594         1.92586 
       0.987916         1.85664          1.6914         1.90728 
        0.99406         1.83855         1.66744         1.88315 
        1.00019         1.81249           1.644         1.85886 
        1.00632         1.79426         1.62103         1.83081 
        1.01246         1.76653         1.59847         1.80643 
        1.01859         1.74362         1.57638         1.78447 
        1.02471         1.71368         1.55473         1.76095 
        1.03085         1.69338         1.53342         1.73507 
        1.03698         1.67459         1.51255          1.7132 
        1.04314         1.65353         1.49199         1.69281 
        1.04929         1.63485         1.47186         1.67203 
        1.05541         1.60679         1.45218         1.65373 
        1.06154         1.59222         1.43282         1.63314 
        1.06769         1.57528         1.41378         1.61312 
        1.07382         1.55117         1.39515         1.59233 
        1.07993         1.53111          1.3769         1.57225 
        1.08607         1.51551         1.35891         1.55481 
        1.09222         1.49209         1.34122         1.53307 
        1.09836         1.48091         1.32386         1.51643 
        1.10449         1.45397         1.30684         1.49926 
        1.11063         1.43775          1.2901         1.47789 
        1.11677         1.42352         1.27366          1.4633 
         1.1229         1.40103         1.25753         1.44688 
        1.12903          1.3904         1.24167         1.42895 
        1.13518         1.36956         1.22607         1.41276 
        1.14131          1.3552         1.21075         1.39602 
        1.14745         1.34112          1.1957         1.37703 
        1.15359         1.32372         1.18091         1.36463 
        1.15973         1.30909         1.16636         1.34943 
        1.16584         1.29231         1.15212         1.33238 
        1.17197          1.2758          1.1381         1.31825 
        1.17811          1.2609         1.12427         1.30463 
        1.18424         1.24675         1.11071         1.28735 
        1.19038          1.2312         1.09734         1.27366 
        1.19652         1.22169         1.08419         1.26131 
        1.20267         1.20977         1.07126         1.24342 
        1.20881         1.19028         1.05855          1.2317 
        1.21495         1.17978         1.04606         1.22215 
        1.22108         1.16726         1.03377          1.2061 
         1.2272         1.14973         1.02172         1.19093 
        1.23334         1.14037         1.00983          1.1801 
        1.23949           1.129        0.998095         1.16983 
        1.24562         1.11607        0.986585         1.15665 
        1.25174         1.10494        0.975274         1.14209 
        1.25789         1.08907        0.964107         1.12993 
        1.26402         1.07823        0.953136         1.11796 
        1.27014          1.0641        0.942362         1.10703 
        1.27628          1.0562        0.931724         1.09508 
        1.28244          1.0451         0.92123         1.08315 
        1.28858         1.03193        0.910912         1.07061 
        1.29471         1.02008        0.900777         1.06047 
        1.30084         1.01109        0.890805         1.05286 
        1.30697         1.00342         0.88097         1.04115 
        1.31312        0.991331         0.87127         1.03005 
        1.31925        0.981096        0.861747         1.02144 
        1.32537        0.971275        0.852376         1.01077 
        1.33151        0.960102        0.843112         1.00051 
        1.33765         0.95063        0.833991        0.990638 
        1.34378        0.939645        0.825023        0.981479 
        1.34992        0.933361        0.816182         0.97187 
        1.35606        0.921921        0.807451        0.959883 
         1.3622        0.913429        0.798864        0.951345 
        1.36833        0.904308        0.790422        0.943886 
        1.37445        0.894995        0.782107        0.934889 
        1.38059        0.886007        0.773886        0.925259 
        1.38675        0.877264        0.765764        0.915219 
        1.39288         0.86857        0.757791        0.907151 
        1.39901        0.860138        0.749935        0.899039 
        1.40515        0.850777        0.742174        0.889351 
         1.4113        0.846251        0.734525        0.881955 
        1.41742        0.835265        0.727014        0.876257 
        1.42355        0.824904        0.719594        0.863626 
         1.4297        0.820446        0.712256        0.859479 
        1.43585        0.810595        0.705023        0.850966 
        1.44198        0.803919        0.697918        0.839603 
        1.44809        0.795466        0.690925        0.835597 
        1.45423         0.78873        0.684003        0.824687 
        1.46036        0.781279        0.677188         0.81813 
        1.46649        0.772559        0.670463        0.812901 
        1.47263        0.765569        0.663825        0.804709 
        1.47877        0.762377         0.65728        0.796628 
        1.48491        0.749894        0.650813        0.791122 
        1.49104         0.74702        0.644447        0.782165 
        1.49718        0.737115        0.638161          0.7773 
        1.50333        0.732051         0.63195        0.768067 
        1.50947        0.725875        0.625834        0.760741 
         1.5156        0.718578        0.619808        0.755846 
        1.52172        0.712921        0.613862        0.748499 
        1.52787         0.70478        0.607982        0.741508 
          1.534        0.700536        0.602186        0.736048 
        1.54013        0.693463        0.596472        0.729637 
        1.54627        0.686977        0.590823        0.722686 
        1.55241        0.680194        0.585245        0.716439 
        1.55855        0.674683        0.579748        0.710565 
        1.56467        0.668991        0.574337        0.705088 
         1.5708        0.662588         0.56898         0.69798 
        1.57695        0.655989        0.563683        0.691969 
        1.58308        0.649316        0.558466         0.68762 
        1.58922        0.645975        0.553311        0.681596 
        1.59535        0.638603        0.548224        0.675351 
         1.6015        0.633073        0.543194        0.669148 
        1.60764        0.628197        0.538229        0.664341 
        1.61376        0.622392         0.53334        0.660288 
        1.61989        0.617464        0.528509        0.654444 
        1.62604        0.610905        0.523726        0.648893 
        1.63218        0.607659        0.519005        0.643955 
        1.63831        0.601224        0.514354        0.638636 
        1.64444        0.596709        0.509757        0.632643 
        1.65059        0.591475        0.505206        0.627424 
        1.65673        0.586065        0.500716        0.622906 
        1.66285        0.581632        0.496293        0.618021 
        1.66898        0.577129        0.491922        0.612411 
        1.67512        0.570545        0.487595        0.607681 
        1.68127        0.565623        0.483316        0.603401 
         1.6874         0.56284        0.479098        0.598975 
        1.69353        0.557197        0.474933        0.594052 
        1.69967        0.553102        0.470808        0.588829 
        1.70581        0.549234        0.466734        0.584627 
        1.71193        0.544536        0.462723        0.580713 
        1.71806        0.540026        0.458752        0.575364 
        1.72421         0.53525        0.454819        0.571259 
        1.73035         0.52937        0.450936        0.566881 
        1.73649        0.528044          0.4471        0.561561 
        1.74262        0.521663        0.443312         0.55744 
        1.74876        0.518669        0.439565        0.554208 
        1.75489        0.514607        0.435869        0.550288 
        1.76101        0.509404        0.432217        0.545471 
        1.76715        0.505925        0.428602        0.541607 
        1.77329        0.502055        0.425023        0.537922 
        1.77943        0.497882        0.421484        0.533694 
        1.78557        0.495468        0.417991        0.529134 
        1.79171        0.491202        0.414537         0.52477 
        1.79785        0.486625         0.41112        0.521051 
        1.80399         0.48173        0.407744        0.517657 
        1.81012        0.479019        0.404409        0.512824 
        1.81625        0.475849        0.401114         0.50889 
        1.82239        0.472326         0.39785        0.506655 
        1.82853        0.468055        0.394624        0.503662 
        1.83466         0.46424        0.391438        0.499527 
        1.84078          0.4602        0.388289        0.495252 
        1.84692        0.457463        0.385171        0.492013 
        1.85306        0.454377        0.382083        0.488124 
         1.8592        0.450332        0.379033        0.484132 
        1.86533          0.4477        0.376019        0.481252 
        1.87147        0.442751        0.373034        0.477756 
        1.87761        0.439953         0.37008        0.474483 
