# k  (h/Mpc)    P(k)  (Mpc/h)^3    P_linear(k)  (Mpc/h)^3     P_NL(k)  ShotnoiseSubtracted = false
     0.00783031         15736.1         15804.1         15736.4 
       0.013688           19251         19781.4         19650.1 
       0.019231           19965         20296.9         20115.1 
      0.0249154         19005.3         18991.5         18794.4 
      0.0312784         16376.8         16585.9         16379.5 
      0.0375637         13846.9         14136.3         13951.8 
      0.0433917         12129.8         12232.8         12041.6 
      0.0492413         10632.5         10803.3         10627.3 
      0.0555754         9658.49         9740.38         9584.79 
      0.0619321         8655.51         9015.27         8863.14 
       0.067871         8253.46         8476.25         8331.64 
      0.0738098         7798.12         7939.07         7717.21 
      0.0800417         7180.48         7301.56         7097.12 
      0.0862327         6457.13         6590.57         6473.18 
      0.0921407         5823.49          5889.4         5800.07 
      0.0982031         5265.67         5215.92         5232.75 
       0.104506         4638.41         4626.07         4731.52 
       0.110769         4247.12         4180.53          4260.7 
       0.116806         4026.72         3878.19         3956.88 
       0.122832         3785.71         3671.69         3758.33 
       0.129052         3595.54          3515.3         3587.43 
       0.135211         3516.97         3373.43         3427.75 
       0.141259         3285.44         3214.99         3292.54 
       0.147318         3066.45          3023.7         3133.62 
       0.153489         2885.85         2800.41         2881.82 
       0.159709         2754.42         2565.35         2707.46 
       0.165845         2501.77         2346.52          2572.7 
       0.171974         2414.45         2159.07         2404.49 
       0.178125         2317.75         2011.04         2308.64 
       0.184229         2132.08          1902.8         2182.23 
        0.19034         2102.89         1824.36         2092.51 
       0.196428         2046.86         1763.21         2004.94 
       0.202534         1930.98         1705.74          1945.7 
       0.208729         1898.72         1641.02         1854.46 
       0.214876         1817.16         1565.53         1815.45 
       0.220989         1726.14         1480.37         1758.13 
       0.227147         1675.33         1389.88         1694.95 
        0.23329         1605.72         1302.16         1640.21 
       0.239377         1591.21         1224.07         1570.43 
       0.245482         1513.03         1158.26         1495.96 
       0.251667         1456.92         1104.98         1455.39 
       0.257832         1432.73         1063.18         1403.07 
       0.263955          1369.2          1028.9         1360.48 
       0.270079         1334.53         997.447         1323.35 
        0.27624         1279.78         965.012         1285.33 
       0.282372         1264.88          929.73         1261.37 
        0.28843          1242.7         891.736         1233.97 
       0.294538         1185.56         851.482         1200.39 
       0.300721         1162.52         810.937         1164.76 
        0.30691          1133.7          772.79         1145.79 
       0.313033         1089.12         739.068         1106.85 
       0.319153          1076.7         710.011         1074.13 
       0.325316         1063.07         685.091         1053.75 
        0.33145         1039.37         663.599          1015.7 
       0.337538          1005.3         644.137         998.243 
       0.343633         982.251         625.205         987.744 
       0.349808         964.239         605.686         972.038 
       0.355968         944.776         585.417         955.653 
       0.362074         915.299         564.781          937.57 
       0.368217         912.596         543.955         913.458 
       0.374374         898.333         523.774         895.717 
       0.380519         866.429          504.92         876.266 
       0.386598         861.464         487.883         864.973 
       0.392688         839.053         472.536         842.846 
        0.39888         822.085         458.403         829.616 
       0.405048         805.293         445.448         816.273 
       0.411186         803.287         433.201         799.979 
       0.417313         798.057         421.197         788.846 
       0.423458         774.477         409.198         776.563 
       0.429607         753.475         397.152         762.839 
       0.435692         746.273         385.273         747.354 
       0.441815         732.015         373.582         743.602 
       0.447964         722.493         362.306         732.648 
       0.454126         713.356         351.607         712.173 
       0.460267         703.902          341.65         710.128 
       0.466387          691.44         332.413         697.001 
        0.47254         680.893         323.684         687.363 
       0.478662         670.614          315.43         676.162 
       0.484765         663.104         307.506         667.541 
       0.490885         656.127         299.749         656.044 
       0.497035         642.985         292.056         649.845 
       0.503198         642.056         284.472         642.082 
       0.509342             630         277.078         631.947 
       0.515458         617.474         269.926         627.637 
       0.521598          615.27         262.999         620.074 
       0.527764          601.15         256.345         613.431 
       0.533884         595.141         250.069         605.763 
           0.54          590.33         244.096          597.56 
       0.546137         581.497         238.353         590.293 
       0.552299         578.314         232.794         582.249 
       0.558452         570.343         227.418         577.591 
       0.564573         566.401         222.217         572.859 
       0.570708         559.947         217.126           566.6 
       0.576825         548.893          212.16         557.734 
       0.582926         547.286         207.328         553.203 
       0.589034         539.102         202.631          544.79 
       0.595184         533.786         198.061         539.515 
       0.601379         525.658         193.629         534.364 
       0.607522         517.112         189.393         527.001 
       0.613639          516.35         185.319         525.298 
       0.619772         512.639         181.367         523.811 
       0.625918         503.645         177.528         515.447 
       0.632068         501.388           173.8         511.893 
       0.638161           495.2         170.209         504.857 
         0.6443         489.423         166.686         501.094 
       0.650464         485.094         163.238         493.044 
       0.656582         481.136         159.902         490.118 
       0.662703         476.163         156.652          487.38 
       0.668861         469.714         153.475          484.38 
       0.675024          467.71         150.388         480.391 
       0.681124         458.577         147.427         472.556 
       0.687237         458.326         144.549         468.449 
       0.693381         451.004          141.74         464.519 
       0.699536         451.018         139.005         461.442 
       0.705665         444.197         136.354          455.68 
       0.711789         443.016         133.772         452.807 
       0.717957         436.935         131.234         451.552 
        0.72409         432.784         128.773         446.572 
       0.730186         432.773         126.388         442.154 
       0.736317         425.675          124.05         438.568 
       0.742472         421.867         121.763         434.764 
       0.748622         419.953         119.537         430.866 
        0.75476         415.175         117.375         431.621 
       0.760888         412.745         115.272         425.674 
       0.767043         409.483         113.215         421.508 
       0.773185         406.097         111.213         418.636 
       0.779291         401.855         109.271         414.881 
       0.785407          398.89         107.374         412.748 
       0.791564         396.643         105.509         410.109 
       0.797719         390.343         103.689          405.98 
       0.803834         391.592         101.923         404.288 
       0.809972         385.081         100.191         401.388 
       0.816124         382.009          98.496          396.03 
       0.822261         379.376         96.8445         394.499 
       0.828378         377.633         95.2361         391.514 
       0.834502         371.346         93.6631         389.903 
       0.840667         371.153          92.116         386.181 
       0.846816         366.344         90.6087         383.673 
       0.852925         366.485         89.1451         381.331 
       0.859047         362.529         87.7112          378.25 
       0.865192         360.508         86.3046         375.202 
       0.871341         355.795         84.9282         373.262 
       0.877463           354.7         83.5884         370.849 
       0.883569         351.469         82.2811          369.25 
       0.889708         347.837         80.9953         365.536 
       0.895864         344.061         79.7338         363.445 
       0.902008         343.005         78.5019         360.864 
       0.908149         339.633         77.2969         357.688 
       0.914301         338.228         76.1153         354.984 
       0.920448         334.564         74.9596         353.264 
       0.926574         332.721         73.8321         350.677 
       0.932687         331.604         72.7303         348.171 
       0.938823         327.725         71.6471         347.602 
       0.944975         326.839         70.5837         344.549 
       0.951105         323.559         69.5457         341.983 
       0.957225         319.735         68.5306         340.083 
       0.963368         320.103         67.5324         338.099 
       0.969511         314.752         66.5541         335.796 
       0.975621         313.212         65.6007         333.601 
       0.981748         312.088         64.6636         331.775 
       0.987916         309.886          63.739         330.113 
        0.99406         306.595         62.8361         327.919 
        1.00019         303.836         61.9526         324.889 
        1.00632         303.404          61.087         322.935 
        1.01246         300.571         60.2368         320.516 
        1.01859         297.591         59.4043         318.556 
        1.02471         295.767         58.5885          317.24 
        1.03085         294.634         57.7854         315.995 
        1.03698         292.803         56.9992         314.712 
        1.04314         290.913         56.2243         312.149 
        1.04929         289.422         55.4656         309.494 
        1.05541         286.285         54.7241         307.679 
        1.06154         284.236         53.9944         306.187 
        1.06769          281.93          53.277         304.203 
        1.07382         279.736          52.575         302.386 
        1.07993         278.742         51.8873         300.994 
        1.08607         277.221         51.2092         298.622 
        1.09222         274.424         50.5425         296.993 
        1.09836         273.219         49.8886          295.95 
        1.10449         271.333          49.247         294.203 
        1.11063         269.596         48.6161         292.165 
        1.11677         266.641         47.9965         290.245 
         1.1229         266.213         47.3889         288.836 
        1.12903         263.538         46.7912         287.488 
        1.13518         261.797         46.2034         285.385 
        1.14131         260.613         45.6261         283.904 
        1.14745         257.827          45.059         282.022 
        1.15359          255.89         44.5014         280.813 
        1.15973         254.707         43.9531          279.17 
        1.16584         253.011         43.4165         277.596 
        1.17197         251.568         42.8882         276.489 
        1.17811         248.888          42.367         274.771 
        1.18424         247.783         41.8561         273.167 
        1.19038         246.626         41.3522         272.259 
        1.19652         243.804         40.8568         270.307 
        1.20267         243.135         40.3695         268.577 
        1.20881         241.213         39.8903         267.438 
        1.21495         240.039         39.4197         265.634 
        1.22108         238.352         38.9568         263.914 
         1.2272         235.626         38.5024         262.291 
        1.23334         234.739         38.0543         261.097 
        1.23949         233.252         37.6123         260.127 
        1.24562         231.928         37.1785         258.354 
        1.25174          230.61         36.7523         257.157 
        1.25789         228.274         36.3315         255.549 
        1.26402         227.685          35.918          254.76 
        1.27014         226.347          35.512         253.008 
        1.27628          224.64         35.1111         252.385 
        1.28244         222.542         34.7157         251.132 
        1.28858         221.612         34.3269         249.425 
        1.29471         220.134         33.9449         247.298 
        1.30084         219.527         33.5691         246.364 
        1.30697         217.037         33.1985          245.41 
        1.31312         215.792          32.833         243.651 
        1.31925         214.485         32.4741         242.459 
        1.32537         213.637          32.121         241.169 
        1.33151         211.662         31.7719         240.016 
        1.33765         210.076         31.4282         238.851 
        1.34378         209.412         31.0902         237.711 
        1.34992         207.151          30.757         236.072 
        1.35606         206.341          30.428         234.629 
         1.3622         204.619         30.1044         233.878 
        1.36833         204.071         29.7863         232.877 
        1.37445         203.276         29.4729         230.735 
        1.38059         200.652         29.1632         230.137 
        1.38675         199.329         28.8571         229.273 
        1.39288         198.565         28.5566         227.135 
        1.39901         196.698         28.2606         226.354 
        1.40515         195.967         27.9681         225.297 
         1.4113         194.547         27.6799         223.913 
        1.41742         193.004         27.3968         222.951 
        1.42355         192.407         27.1172         221.714 
         1.4297         190.996         26.8407         220.551 
        1.43585         190.008         26.5681         219.786 
        1.44198         188.399         26.3004         218.598 
        1.44809         187.495         26.0369         217.566 
        1.45423          186.33          25.776         215.841 
        1.46036          185.33         25.5192         214.991 
        1.46649         183.929         25.2658          214.31 
        1.47263         182.907         25.0156         213.083 
        1.47877         181.678          24.769         211.695 
        1.48491         180.249         24.5253         210.458 
        1.49104         178.532         24.2854         209.873 
        1.49718         178.116         24.0485         208.854 
        1.50333         176.426         23.8144         207.695 
        1.50947         175.578         23.5839         206.862 
         1.5156          174.54         23.3569         205.742 
        1.52172         173.482         23.1328         204.207 
        1.52787         172.427         22.9112         203.556 
          1.534         171.787         22.6928         202.611 
        1.54013         170.182         22.4775         201.566 
        1.54627         169.498         22.2646         200.835 
        1.55241         168.457         22.0544         199.871 
        1.55855         167.348         21.8472         198.587 
        1.56467         166.322         21.6433           197.6 
         1.5708         164.888         21.4414         196.701 
        1.57695         164.253         21.2418         195.723 
        1.58308         163.153         21.0452         194.785 
        1.58922         161.968          20.851          193.81 
        1.59535         160.778         20.6593         193.004 
         1.6015         160.088         20.4697         192.072 
        1.60764         158.788         20.2826         190.999 
        1.61376         157.735         20.0984         190.101 
        1.61989         156.868         19.9163         189.247 
        1.62604         156.061         19.7361         188.169 
        1.63218         155.037         19.5582         187.292 
        1.63831         154.271         19.3829          186.57 
        1.64444         152.837         19.2097         185.566 
        1.65059         152.117         19.0382         184.858 
        1.65673         151.146          18.869         183.885 
        1.66285         150.291         18.7023         182.833 
        1.66898         149.436         18.5376         182.055 
        1.67512         148.291         18.3745         181.232 
        1.68127         147.545         18.2133         180.484 
         1.6874         146.548         18.0543         179.723 
        1.69353         145.928         17.8974         178.762 
        1.69967         144.735         17.7419         177.834 
        1.70581         144.174         17.5884         177.121 
        1.71193         143.052         17.4373         176.326 
        1.71806         141.988         17.2876         175.096 
        1.72421         141.195         17.1394         174.397 
        1.73035         140.325         16.9931         173.773 
        1.73649         139.264         16.8485         172.862 
        1.74262         138.611         16.7058          172.05 
        1.74876         137.893         16.5646         171.304 
        1.75489          137.34         16.4253         170.549 
        1.76101         136.056         16.2877         169.797 
        1.76715         135.221         16.1514         169.081 
        1.77329         134.239         16.0166         168.168 
        1.77943         133.413         15.8832         167.237 
        1.78557         132.528         15.7516         166.532 
        1.79171         131.917         15.6214          165.82 
        1.79785         130.926         15.4927         165.054 
        1.80399         130.286         15.3654         164.313 
        1.81012         129.777         15.2398         163.624 
        1.81625         128.527         15.1156         162.877 
        1.82239         128.122         14.9926          162.04 
        1.82853         127.022          14.871         161.199 
        1.83466         125.968         14.7509         160.365 
        1.84078         125.572         14.6323          159.67 
        1.84692         124.949         14.5148         159.199 
        1.85306         123.991         14.3984         158.335 
         1.8592          123.38         14.2835         157.417 
        1.86533         122.268         14.1699         157.034 
        1.87147         121.554         14.0574         156.549 
        1.87761         120.944         13.9461         155.732 
