# k  (h/Mpc)    P(k)  (Mpc/h)^3    P_linear(k)  (Mpc/h)^3     P_NL(k)  ShotnoiseSubtracted = false
     0.00783031         20063.9         20163.9         20070.6 
       0.013688         24456.4         25236.1         25048.8 
       0.019231           25377         25892.7           25629 
      0.0249154           24201         24226.8         23926.8 
      0.0312784         20802.2         21157.7         20827.8 
      0.0375637         17569.9         18032.6         17735.4 
      0.0433917         15404.2         15604.4         15293.1 
      0.0492413         13496.2         13780.9         13492.5 
      0.0555754         12253.8         12424.9         12171.5 
      0.0619321         10949.9         11499.9         11253.7 
       0.067871         10442.3         10812.3         10579.5 
      0.0738098         9886.94         10127.1         9772.58 
      0.0800417         9092.76         9313.83         8988.82 
      0.0862327         8181.63         8406.89         8217.79 
      0.0921407         7397.69         7512.46         7368.77 
      0.0982031          6709.7         6653.38         6672.79 
       0.104506         5918.89         5900.97         6057.95 
       0.110769         5433.62         5332.63         5457.36 
       0.116806         5154.56         4946.97         5069.61 
       0.122832         4858.58         4683.56         4816.61 
       0.129052         4594.61         4484.06         4597.33 
       0.135211         4505.52          4303.1         4385.95 
       0.141259            4200            4101         4222.78 
       0.147318         3932.46         3856.99         4021.88 
       0.153489         3707.13         3572.15         3700.33 
       0.159709         3558.42         3272.32         3491.64 
       0.165845         3246.15         2993.18         3334.47 
       0.171974         3131.85         2754.08         3130.45 
       0.178125         3024.12         2565.25         3016.29 
       0.184229         2778.57         2427.18         2849.79 
        0.19034         2749.62         2327.12         2734.69 
       0.196428         2679.44         2249.11         2625.87 
       0.202534         2539.18         2175.81         2549.17 
       0.208729         2488.91         2093.25         2428.65 
       0.214876         2381.51         1996.96         2377.87 
       0.220989         2281.22         1888.33         2312.36 
       0.227147         2212.31         1772.91          2242.1 
        0.23329         2122.69         1661.01         2172.38 
       0.239377         2112.22          1561.4         2084.35 
       0.245482         2016.96         1477.45         1991.48 
       0.251667         1944.48         1409.49         1938.23 
       0.257832         1908.57         1356.17          1872.2 
       0.263955         1831.57         1312.45         1819.69 
       0.270079         1792.95         1272.33         1770.96 
        0.27624         1719.87         1230.95         1722.06 
       0.282372         1707.01         1185.95         1699.47 
        0.28843         1666.06         1137.48         1670.02 
       0.294538         1600.56         1086.13         1623.41 
       0.300721         1576.46         1034.42         1576.23 
        0.30691         1530.12         985.756         1555.89 
       0.313033         1479.93         942.741          1505.9 
       0.319153         1467.12         905.676         1460.71 
       0.325316         1447.55         873.889         1436.89 
        0.33145         1414.59         846.474         1386.84 
       0.337538         1373.75         821.648         1366.93 
       0.343633         1345.47           797.5         1351.17 
       0.349808         1325.98         772.602         1333.14 
       0.355968         1295.73         746.746         1311.43 
       0.362074         1264.99         720.423         1289.88 
       0.368217         1259.09         693.858         1262.11 
       0.374374         1237.19         668.116         1238.02 
       0.380519         1199.55         644.067         1215.53 
       0.386598            1196         622.334         1196.92 
       0.392688         1162.72         602.758         1174.11 
        0.39888         1147.83          584.73         1153.34 
       0.405048         1122.53         568.205         1132.98 
       0.411186         1117.24         552.582         1117.06 
       0.417313         1109.66         537.271         1105.18 
       0.423458         1079.89         521.964         1084.45 
       0.429607         1055.29         506.599         1069.45 
       0.435692            1045         491.447         1047.05 
       0.441815         1024.79         476.533         1044.91 
       0.447964         1017.51          462.15          1033.5 
       0.454126         1003.58         448.503         1003.73 
       0.460267         992.998         435.802         1001.46 
       0.466387         975.037          424.02         983.944 
        0.47254         961.979         412.885         969.931 
       0.478662         948.349         402.356         957.537 
       0.484765         938.127         392.249         948.728 
       0.490885         928.539         382.354          930.66 
       0.497035         910.635         372.541         923.644 
       0.503198         910.036         362.867         914.245 
       0.509342         892.657         353.436           897.8 
       0.515458         876.096         344.312         891.865 
       0.521598         878.466         335.477         884.122 
       0.527764         857.095         326.988         875.924 
       0.533884         845.298         318.982         866.323 
           0.54         842.146         311.364          856.87 
       0.546137         831.894         304.038         847.722 
       0.552299         823.772         296.948         836.289 
       0.558452          815.36          290.09         830.176 
       0.564573         813.211         283.455         822.326 
       0.570708         801.888         276.962         811.114 
       0.576825         787.164         270.627         802.116 
       0.582926         784.491         264.464         797.203 
       0.589034         776.235         258.472         785.674 
       0.595184         765.376         252.642           778.5 
       0.601379         754.663         246.989         772.056 
       0.607522         745.701         241.585         760.217 
       0.613639         744.047         236.389         757.556 
       0.619772         734.984         231.348         755.032 
       0.625918         728.801         226.452         745.845 
       0.632068         723.358         221.696          742.34 
       0.638161          712.21         217.115          729.92 
         0.6443         706.211         212.621         723.991 
       0.650464         700.827         208.223         716.438 
       0.656582          694.84         203.968         712.044 
       0.662703         686.564         199.823         706.364 
       0.668861         679.401         195.769         703.588 
       0.675024         675.827         191.832             699 
       0.681124          662.54         188.054         689.083 
       0.687237         662.358         184.383         682.952 
       0.693381         651.402         180.801         676.462 
       0.699536         654.048         177.312         672.007 
       0.705665         642.306          173.93         664.195 
       0.711789         641.021         170.636         658.652 
       0.717957         633.307           167.4         658.103 
        0.72409         627.745          164.26         651.448 
       0.730186          625.78         161.218         644.359 
       0.736317         617.963         158.235         640.458 
       0.742472         610.606         155.318         637.005 
       0.748622         610.524          152.48         630.141 
        0.75476         598.941         149.722         629.957 
       0.760888          598.29         147.039         623.537 
       0.767043         594.677         144.414         614.815 
       0.773185         589.235         141.861         611.313 
       0.779291          583.31         139.384         606.467 
       0.785407         578.912         136.964          602.81 
       0.791564         576.194         134.585          601.67 
       0.797719         566.735         132.263         596.007 
       0.803834         566.526         130.011         591.532 
       0.809972         558.758         127.802         587.898 
       0.816124         555.122         125.639         581.537 
       0.822261         550.317         123.533         578.376 
       0.828378         549.582         121.481         574.404 
       0.834502          541.44         119.475         572.498 
       0.840667         537.474         117.501         568.468 
       0.846816         535.245         115.579         563.768 
       0.852925         532.464         113.712         560.309 
       0.859047         525.474         111.883           554.5 
       0.865192         523.441         110.088         551.635 
       0.871341         518.146         108.333         547.841 
       0.877463         516.844         106.624         544.948 
       0.883569          512.72         104.956         542.043 
       0.889708         505.552         103.316         536.767 
       0.895864         501.178         101.707         533.844 
       0.902008         499.907         100.135         530.285 
       0.908149         495.069         98.5984         524.771 
       0.914301         492.338         97.0912         520.725 
       0.920448         486.889          95.617         520.179 
       0.926574         484.361         94.1788         516.874 
       0.932687         480.967         92.7733         511.664 
       0.938823         477.078         91.3916         510.324 
       0.944975         474.766         90.0351         507.249 
       0.951105         471.336         88.7111         503.229 
       0.957225         465.749         87.4162         500.455 
       0.963368         464.319         86.1429         497.059 
       0.969511         460.551         84.8951         493.981 
       0.975621         456.374         83.6789         490.826 
       0.981748         454.168         82.4836          488.04 
       0.987916         450.929         81.3042         485.623 
        0.99406         446.062         80.1525         482.323 
        1.00019         442.639         79.0255         478.202 
        1.00632         440.057         77.9214         475.158 
        1.01246         435.954         76.8369         472.725 
        1.01859         433.807         75.7749         469.416 
        1.02471         432.039         74.7344         466.658 
        1.03085           428.2         73.7099         465.364 
        1.03698         425.185          72.707         463.407 
        1.04314         421.517         71.7185         459.725 
        1.04929         420.582         70.7508         455.615 
        1.05541         415.653          69.805         452.742 
        1.06154         412.335         68.8742         450.469 
        1.06769         409.501          67.959         447.141 
        1.07382         405.712         67.0636          444.38 
        1.07993         405.979         66.1864         442.158 
        1.08607         403.163         65.3214         439.363 
        1.09222          398.74          64.471         436.721 
        1.09836         396.091         63.6369          435.01 
        1.10449         392.547         62.8185          433.28 
        1.11063         390.855         62.0138         429.141 
        1.11677         387.177         61.2234         427.399 
         1.1229         384.527         60.4483         424.381 
        1.12903         381.271         59.6859         421.917 
        1.13518         380.857         58.9362         418.505 
        1.14131         377.304         58.1997         417.579 
        1.14745         374.181         57.4763         413.678 
        1.15359         370.823         56.7651         413.039 
        1.15973         369.341         56.0657         410.068 
        1.16584         367.631         55.3812         408.385 
        1.17197         364.603         54.7073         406.058 
        1.17811         360.191         54.0425         402.945 
        1.18424         359.233         53.3908         400.902 
        1.19038         357.387          52.748         399.316 
        1.19652         353.333         52.1161         395.904 
        1.20267         351.198         51.4945         394.309 
        1.20881          349.92         50.8833         392.211 
        1.21495         345.519          50.283         389.687 
        1.22108         345.657         49.6925         387.076 
         1.2272         341.292         49.1129         386.172 
        1.23334          339.07         48.5413         383.191 
        1.23949         336.969         47.9775         380.876 
        1.24562         335.188         47.4242         378.835 
        1.25174         332.911         46.8805         376.934 
        1.25789         329.914         46.3437         374.727 
        1.26402          328.54         45.8163         373.285 
        1.27014         326.002         45.2984         370.489 
        1.27628         323.763          44.787         369.433 
        1.28244         320.829         44.2826         367.667 
        1.28858         319.208         43.7867         365.385 
        1.29471          317.46         43.2994         363.023 
        1.30084         316.112         42.8201         360.383 
        1.30697         312.845         42.3473         359.169 
        1.31312         310.787         41.8811         357.553 
        1.31925         308.597         41.4233         355.174 
        1.32537         307.307         40.9729         352.849 
        1.33151         303.938         40.5275         351.616 
        1.33765         302.262         40.0891         350.011 
        1.34378         300.933         39.6581          347.17 
        1.34992         298.081          39.233         345.531 
        1.35606         295.896         38.8134         343.514 
         1.3622         293.953         38.4006         342.423 
        1.36833         293.099         37.9948         341.168 
        1.37445         291.518         37.5951         338.351 
        1.38059         287.953         37.1999         337.193 
        1.38675         286.365         36.8095         335.723 
        1.39288         285.167         36.4262         333.689 
        1.39901         282.727         36.0486         331.422 
        1.40515         281.328         35.6755         329.355 
         1.4113         279.283         35.3079         327.482 
        1.41742         277.467         34.9468         325.939 
        1.42355         275.463         34.5902         324.634 
         1.4297         274.116         34.2374         322.108 
        1.43585          271.47         33.8897         321.593 
        1.44198         270.011         33.5482         319.478 
        1.44809         268.177         33.2121         317.767 
        1.45423         266.435         32.8793         315.551 
        1.46036         265.911         32.5517         314.258 
        1.46649         263.237         32.2285          312.78 
        1.47263         260.969         31.9094         310.598 
        1.47877         259.865         31.5948         308.881 
        1.48491         257.783         31.2839         307.065 
        1.49104         255.007         30.9779         305.664 
        1.49718         254.075         30.6758         305.323 
        1.50333         252.516         30.3772         302.799 
        1.50947         250.578         30.0832           300.9 
         1.5156         249.197         29.7935         300.103 
        1.52172         246.887         29.5077         298.714 
        1.52787         245.679         29.2251         296.955 
          1.534         244.489         28.9465         295.266 
        1.54013         242.422         28.6718         293.962 
        1.54627         240.859         28.4002         292.772 
        1.55241         239.989         28.1321         291.461 
        1.55855         237.757         27.8679         289.973 
        1.56467         236.056         27.6078         287.932 
         1.5708         234.598         27.3503         286.277 
        1.57695         233.928         27.0957          284.91 
        1.58308         232.089         26.8449         283.329 
        1.58922         230.109         26.5971         282.057 
        1.59535         228.477         26.3526         280.897 
         1.6015         227.672         26.1108         280.016 
        1.60764         226.138         25.8721         278.409 
        1.61376         224.069         25.6371         276.237 
        1.61989         222.754         25.4049         275.154 
        1.62604          221.79         25.1749         273.763 
        1.63218         219.786          24.948         272.355 
        1.63831         218.617         24.7244          271.11 
        1.64444         216.999         24.5035         269.635 
        1.65059         216.119         24.2847         268.665 
        1.65673         214.498         24.0689         267.506 
        1.66285         213.077         23.8563         265.884 
        1.66898         211.387         23.6462         264.204 
        1.67512         210.113         23.4382         263.096 
        1.68127         208.637         23.2325         261.826 
         1.6874         207.278         23.0297         260.567 
        1.69353         206.771         22.8295         259.745 
        1.69967         205.008         22.6313         258.341 
        1.70581         203.186         22.4354         256.898 
        1.71193         202.193         22.2426          255.65 
        1.71806         200.478         22.0517         254.246 
        1.72421           199.5         21.8626         252.944 
        1.73035         198.204          21.676         251.751 
        1.73649         196.825         21.4916         250.522 
        1.74262         196.036         21.3095         249.181 
        1.74876          193.93         21.1294         248.035 
        1.75489         193.312         20.9518         247.151 
        1.76101         191.805         20.7762         246.222 
        1.76715          190.82         20.6024         244.803 
        1.77329         189.239         20.4304         243.778 
        1.77943         188.153         20.2603         242.779 
        1.78557         187.061         20.0924         241.202 
        1.79171         185.609         19.9263         239.984 
        1.79785         184.231         19.7621         238.985 
        1.80399         183.247         19.5998         237.743 
        1.81012         182.442         19.4395         236.899 
        1.81625         181.212         19.2811         235.939 
        1.82239         179.921         19.1242         234.633 
        1.82853         178.678         18.9692         233.541 
        1.83466         177.377          18.816         232.423 
        1.84078         176.332         18.6647         231.283 
        1.84692         175.669         18.5147         230.365 
        1.85306         174.379         18.3663         229.249 
         1.8592         172.964         18.2197         228.048 
        1.86533         171.752         18.0748          227.07 
        1.87147          171.19         17.9313         225.964 
        1.87761         169.927         17.7893         224.955 
