# k  (h/Mpc)    Pcb(k)  (Mpc/h)^3    Pcb_linear(k) (Mpc/h)^3    Pcb_NL(k) (Mpc/h)^3   ShotnoiseSubtracted = false
     0.00783031         137.366         138.422         137.878 
       0.013688         172.209         173.478         172.772 
       0.019231         177.602         178.089         177.266 
      0.0249154         166.485         166.681         166.152 
      0.0312784         145.541         145.594         145.446 
      0.0375637         124.091         124.104          124.08 
      0.0433917         107.605           107.4         107.477 
      0.0492413         94.9403         94.8547         94.9522 
      0.0555754         85.7326          85.525         85.5766 
      0.0619321         79.0011         79.1603         79.1778 
       0.067871         74.4041         74.4288         74.3896 
      0.0738098         69.6882         69.7131         69.6308 
      0.0800417         64.1377          64.116          64.037 
      0.0862327         57.8523         57.8734         57.8273 
      0.0921407          51.695         51.7167         51.7079 
      0.0982031         45.8754         45.8032         45.8376 
       0.104506         40.6021         40.6237         40.6871 
       0.110769         36.7082         36.7114         36.7711 
       0.116806         34.1201         34.0566         34.0983 
       0.122832         32.2293         32.2432         32.2746 
       0.129052         30.8872         30.8699         30.8804 
       0.135211         29.6534         29.6242         29.6203 
       0.141259         28.2094         28.2329         28.2275 
       0.147318         26.4852         26.5532         26.5608 
       0.153489         24.5656         24.5923         24.6014 
       0.159709         22.5314         22.5282         22.5586 
       0.165845         20.5505         20.6065         20.6629 
       0.171974         19.0007         18.9605         19.0196 
       0.178125         17.6895         17.6605         17.7296 
       0.184229         16.7076           16.71          16.775 
        0.19034         16.0635         16.0211         16.0767 
       0.196428            15.5         15.4841         15.5227 
       0.202534         14.9334         14.9795         15.0144 
       0.208729         14.4063         14.4111         14.4428 
       0.214876         13.7756         13.7482         13.7929 
       0.220989         12.9675         13.0003         13.0529 
       0.227147         12.2392         12.2057         12.2627 
        0.23329         11.4773         11.4354         11.5051 
       0.239377         10.7981         10.7496         10.8257 
       0.245482         10.2176         10.1716         10.2414 
       0.251667         9.72426         9.70379         9.77747 
       0.257832         9.38337         9.33668         9.40559 
       0.263955         9.05882         9.03567           9.098 
       0.270079         8.77742         8.75944         8.81717 
        0.27624         8.47055         8.47456         8.52793 
       0.282372         8.16471         8.16476         8.22285 
        0.28843         7.86172          7.8311         7.89206 
       0.294538         7.50414          7.4776         7.54219 
       0.300721         7.13104         7.12155         7.19171 
        0.30691         6.82166         6.78655         6.85893 
       0.313033         6.52066          6.4904         6.56131 
       0.319153         6.29655         6.23523          6.3086 
       0.325316         6.03306         6.01642         6.09044 
        0.33145         5.84455         5.82765         5.89649 
       0.337538         5.68006         5.65673         5.72219 
       0.343633         5.52151          5.4905         5.55431 
       0.349808         5.34197         5.31905         5.38518 
       0.355968          5.1587         5.14107         5.21505 
       0.362074         4.99061         4.95985         5.03051 
       0.368217         4.80597         4.77695         4.84257 
       0.374374         4.64675         4.59974         4.67049 
       0.380519         4.46365         4.43416         4.50272 
       0.386598         4.30878         4.28454         4.35493 
       0.392688         4.16856         4.14977         4.21936 
        0.39888         4.05314         4.02567         4.09446 
       0.405048         3.94081         3.91188         3.97577 
       0.411186         3.82934         3.80432          3.8739 
       0.417313         3.72611         3.69892         3.76571 
       0.423458         3.61059         3.59355         3.66113 
       0.429607         3.51767         3.48774         3.55301 
       0.435692         3.41587         3.38344         3.45117 
       0.441815         3.30745         3.28076         3.35205 
       0.447964         3.19865         3.18174         3.25051 
       0.454126         3.11652         3.08778          3.1556 
       0.460267         3.03702         3.00036         3.06985 
       0.466387         2.95154         2.91922         2.98524 
        0.47254         2.87798         2.84257         2.90893 
       0.478662         2.80184         2.77008         2.83468 
       0.484765         2.73354          2.7005         2.76503 
       0.490885         2.66041         2.63236         2.70127 
       0.497035         2.58571         2.56483         2.63448 
       0.503198         2.52671         2.49821         2.56224 
       0.509342         2.45459         2.43328         2.49876 
       0.515458          2.3987         2.37047         2.43892 
       0.521598         2.33842         2.30964          2.3729 
       0.527764         2.28661         2.25121          2.3141 
       0.533884         2.21936         2.19608         2.25875 
           0.54         2.17044         2.14364         2.20508 
       0.546137         2.11496          2.0932         2.15612 
       0.552299         2.06942         2.04438         2.10263 
       0.558452         2.02255         1.99717         2.05638 
       0.564573         1.97767         1.95149         2.01519 
       0.570708          1.9328         1.90678         1.96886 
       0.576825         1.88953         1.86318         1.92381 
       0.582926         1.84333         1.82074         1.88234 
       0.589034         1.80848         1.77949         1.84309 
       0.595184         1.77011         1.73936         1.79642 
       0.601379         1.72654         1.70043         1.76228 
       0.607522          1.6878         1.66323         1.72372 
       0.613639         1.64792         1.62746         1.68677 
       0.619772         1.61911         1.59275         1.65388 
       0.625918         1.58455         1.55904         1.61756 
       0.632068         1.55213          1.5263          1.5836 
       0.638161         1.51935         1.49476         1.55205 
         0.6443         1.48745         1.46382         1.51974 
       0.650464         1.45823         1.43355         1.49194 
       0.656582         1.43161         1.40425         1.46152 
       0.662703          1.4018         1.37571         1.43181 
       0.668861         1.36834         1.34781         1.40563 
       0.675024          1.3436          1.3207         1.37705 
       0.681124         1.32589         1.29469         1.34988 
       0.687237         1.29517         1.26942         1.32228 
       0.693381          1.2659         1.24475         1.29623 
       0.699536         1.24764         1.22073         1.27291 
       0.705665         1.22365         1.19745           1.253 
       0.711789         1.19656         1.17477         1.22914 
       0.717957          1.1757         1.15249         1.20482 
        0.72409         1.15361         1.13088         1.18347 
       0.730186         1.13645         1.10993          1.1608 
       0.736317         1.11186          1.0894         1.13949 
       0.742472         1.09429         1.06931         1.12215 
       0.748622         1.07524         1.04977         1.10269 
        0.75476         1.05352         1.03078         1.08112 
       0.760888         1.03813         1.01232         1.06283 
       0.767043         1.01183        0.994244         1.04521 
       0.773185        0.997875        0.976663         1.02816 
       0.779291        0.984689        0.959614         1.01061 
       0.785407        0.965734         0.94295        0.992894 
       0.791564        0.948908        0.926574        0.976404 
       0.797719        0.932456         0.91059         0.95835 
       0.803834        0.916397         0.89508         0.94341 
       0.809972        0.901635        0.879874        0.929693 
       0.816124        0.886153        0.864986        0.912696 
       0.822261         0.87283        0.850483        0.897535 
       0.828378        0.857107        0.836358        0.883407 
       0.834502        0.843125        0.822544        0.868432 
       0.840667         0.83108        0.808958        0.855428 
       0.846816        0.817199         0.79572        0.844053 
       0.852925        0.802352        0.782867        0.829575 
       0.859047        0.790067        0.770275        0.818379 
       0.865192        0.778139        0.757922        0.804611 
       0.871341        0.767207        0.745835        0.791773 
       0.877463        0.752711        0.734069         0.77915 
       0.883569        0.741828        0.722588        0.768527 
       0.889708        0.731628        0.711296        0.756947 
       0.895864        0.720462        0.700218        0.745033 
       0.902008        0.708015          0.6894         0.73407 
       0.908149          0.6987        0.678817         0.72353 
       0.914301        0.689551        0.668441         0.71213 
       0.920448        0.679063        0.658292        0.701508 
       0.926574        0.670119         0.64839         0.69198 
       0.932687        0.659985        0.638714        0.680589 
       0.938823        0.647968        0.629202        0.673262 
       0.944975        0.640136        0.619862         0.66143 
       0.951105        0.628731        0.610747        0.652262 
       0.957225        0.619851        0.601832         0.64433 
       0.963368        0.612457        0.593066        0.634483 
       0.969511        0.604665        0.584475        0.625909 
       0.975621        0.594456        0.576102        0.615637 
       0.981748        0.584454        0.567872        0.607479 
       0.987916        0.577137        0.559753        0.600948 
        0.99406          0.5703        0.551824        0.593161 
        1.00019        0.561995        0.544065        0.584946 
        1.00632        0.555995        0.536463        0.576164 
        1.01246        0.547903        0.528997        0.568237 
        1.01859        0.540339        0.521685        0.561405 
        1.02471        0.531749        0.514522        0.554082 
        1.03085        0.524008        0.507469        0.545597 
        1.03698        0.518382        0.500564        0.538243 
        1.04314         0.51133        0.493759        0.531696 
        1.04929        0.505777        0.487096        0.524932 
        1.05541        0.497131        0.480585        0.518836 
        1.06154        0.491605        0.474176        0.512124 
        1.06769        0.485632        0.467876         0.50548 
        1.07382        0.479217        0.461711        0.498994 
        1.07993        0.473366        0.455672        0.492633 
        1.08607        0.466862        0.449717        0.486867 
        1.09222        0.460608        0.443862        0.480056 
        1.09836        0.455052        0.438119        0.474648 
        1.10449        0.448741        0.432485        0.468822 
        1.11063        0.443055        0.426945        0.462326 
        1.11677        0.438516        0.421503        0.457466 
         1.1229        0.431524        0.416167        0.451867 
        1.12903        0.427211        0.410918         0.44625 
        1.13518        0.421648        0.405756        0.440897 
        1.14131         0.41697        0.400686        0.435801 
        1.14745        0.413216        0.395706         0.42978 
        1.15359         0.40698        0.390809        0.425362 
        1.15973        0.402772        0.385994        0.420663 
        1.16584        0.397212        0.381282        0.415088 
        1.17197        0.392085        0.376642        0.410559 
        1.17811        0.387201        0.372066        0.406172 
        1.18424        0.382853        0.367579        0.400723 
        1.19038        0.377714        0.363153        0.396301 
        1.19652        0.374893        0.358802        0.392104 
        1.20267        0.370381        0.354523        0.386656 
        1.20881        0.364406        0.350315        0.382935 
        1.21495        0.361005        0.346182        0.379519 
        1.22108        0.357179        0.342117        0.374348 
         1.2272        0.352327        0.338127        0.369771 
        1.23334        0.348619        0.334191        0.366033 
        1.23949        0.345438        0.330309        0.362459 
        1.24562        0.341267          0.3265        0.358373 
        1.25174        0.337464        0.322757        0.354014 
        1.25789        0.332609        0.319061         0.35016 
        1.26402        0.329961         0.31543        0.346433 
        1.27014         0.32525        0.311865        0.342493 
        1.27628        0.322524        0.308344        0.338646 
        1.28244        0.318953        0.304872         0.33517 
        1.28858        0.314835        0.301457        0.331136 
        1.29471        0.311643        0.298103        0.327982 
        1.30084        0.308137        0.294803        0.325216 
        1.30697        0.305691        0.291548        0.321475 
        1.31312         0.30225        0.288338        0.317921 
        1.31925        0.298732        0.285186        0.314971 
        1.32537        0.295608        0.282085        0.311765 
        1.33151        0.292454        0.279019        0.308483 
        1.33765        0.289133        0.276001        0.305289 
        1.34378        0.285694        0.273033        0.302177 
        1.34992          0.2838        0.270107        0.299165 
        1.35606        0.280256        0.267218         0.29567 
         1.3622        0.277444        0.264376        0.292795 
        1.36833        0.275086        0.261582         0.29014 
        1.37445         0.27238         0.25883        0.287392 
        1.38059        0.269231         0.25611        0.284243 
        1.38675        0.266069        0.253422        0.281289 
        1.39288        0.262914        0.250783        0.278401 
        1.39901        0.261195        0.248183        0.275832 
        1.40515        0.258184        0.245615        0.273006 
         1.4113        0.256193        0.243084        0.270617 
        1.41742        0.253543        0.240598        0.268531 
        1.42355        0.249944        0.238142        0.264848 
         1.4297        0.248606        0.235714        0.263041 
        1.43585        0.245477         0.23332        0.260292 
        1.44198        0.243486        0.230969        0.257002 
        1.44809        0.240777        0.228655        0.255592 
        1.45423        0.238566        0.226364        0.252249 
        1.46036        0.236203        0.224108        0.250182 
        1.46649        0.233888        0.221883        0.248382 
        1.47263         0.23091        0.219686        0.245771 
        1.47877        0.230155         0.21752        0.243499 
        1.48491        0.226709         0.21538        0.241517 
        1.49104        0.225751        0.213273        0.238604 
        1.49718        0.222998        0.211193        0.237102 
        1.50333        0.221063        0.209137        0.234189 
        1.50947        0.219128        0.207113        0.231919 
         1.5156        0.216794        0.205119        0.230351 
        1.52172        0.214994        0.203151        0.227921 
        1.52787        0.212319        0.201205        0.225792 
          1.534        0.210994        0.199287        0.224071 
        1.54013        0.208847        0.197396        0.221991 
        1.54627        0.207214        0.195527        0.219827 
        1.55241        0.205082        0.193681        0.217857 
        1.55855         0.20327        0.191862        0.215909 
        1.56467        0.201572        0.190071        0.214208 
         1.5708        0.199493        0.188298        0.212027 
        1.57695        0.197733        0.186545        0.209935 
        1.58308         0.19529        0.184819        0.208464 
        1.58922        0.194263        0.183113        0.206746 
        1.59535        0.192228        0.181429        0.204771 
         1.6015        0.190784        0.179764         0.20274 
        1.60764        0.188839        0.178121        0.201259 
        1.61376        0.187288        0.176504        0.200022 
        1.61989        0.185439        0.174905        0.198112 
        1.62604        0.183915        0.173322        0.196283 
        1.63218        0.182535        0.171759        0.194685 
        1.63831        0.180756         0.17022        0.193034 
        1.64444        0.179242        0.168699        0.191216 
        1.65059        0.177269        0.167193        0.189579 
        1.65673        0.176069        0.165707          0.1881 
        1.66285        0.174784        0.164243        0.186565 
        1.66898        0.172841        0.162796        0.184879 
        1.67512        0.171475        0.161364        0.183319 
        1.68127        0.169917        0.159948        0.181898 
         1.6874        0.168741        0.158553        0.180549 
        1.69353          0.1672        0.157174          0.1791 
        1.69967        0.165527        0.155809        0.177346 
        1.70581        0.164625        0.154461        0.175839 
        1.71193        0.163344        0.153134        0.174567 
        1.71806        0.161658        0.151819        0.173074 
        1.72421        0.160256        0.150518        0.171877 
        1.73035        0.158999        0.149233        0.170461 
        1.73649        0.157793        0.147963        0.168719 
        1.74262        0.156294        0.146709        0.167414 
        1.74876        0.155305        0.145469        0.166376 
        1.75489         0.15386        0.144246        0.165112 
        1.76101        0.152629        0.143038         0.16361 
        1.76715        0.151525        0.141841        0.162474 
        1.77329        0.150003        0.140657        0.161328 
        1.77943        0.148802        0.139486        0.159962 
        1.78557        0.148009         0.13833        0.158524 
        1.79171        0.146728        0.137187        0.157148 
        1.79785        0.145261        0.136056        0.156012 
        1.80399        0.143945        0.134939        0.155026 
        1.81012        0.143152        0.133835        0.153475 
        1.81625        0.142088        0.132745        0.152181 
        1.82239        0.141182        0.131664        0.151441 
        1.82853        0.139718        0.130597        0.150399 
        1.83466        0.138617        0.129542        0.149083 
        1.84078        0.137617          0.1285        0.147837 
        1.84692        0.136582        0.127468        0.146902 
        1.85306        0.135546        0.126446        0.145635 
         1.8592        0.134554        0.125437        0.144281 
        1.86533        0.133571         0.12444        0.143394 
        1.87147        0.132413        0.123452        0.142427 
