# k  (h/Mpc)    P(k)  (Mpc/h)^3    P_linear(k)  (Mpc/h)^3     P_NL(k)  ShotnoiseSubtracted = false
     0.00783031         136.246         137.294         136.754 
       0.013688         170.805         172.064         171.363 
       0.019231         176.155         176.637         175.821 
      0.0249154         165.128         165.322         164.798 
      0.0312784         144.355         144.407         144.261 
      0.0375637          123.08         123.093         123.069 
      0.0433917         106.728         106.525         106.601 
      0.0492413         94.1664         94.0815         94.1782 
      0.0555754         85.0338         84.8279         84.8791 
      0.0619321         78.3571         78.5151         78.5324 
       0.067871         73.7977         73.8221         73.7832 
      0.0738098         69.1202         69.1448         69.0632 
      0.0800417         63.6149         63.5934          63.515 
      0.0862327         57.3807         57.4017          57.356 
      0.0921407         51.2736         51.2952         51.2864 
      0.0982031         45.5015         45.4298          45.464 
       0.104506         40.2711         40.2926         40.3554 
       0.110769          36.409         36.4122         36.4713 
       0.116806          33.842         33.7789         33.8203 
       0.122832         31.9666         31.9804         32.0116 
       0.129052         30.6354         30.6183         30.6287 
       0.135211         29.4117         29.3827         29.3789 
       0.141259         27.9794         28.0028         27.9974 
       0.147318         26.2693         26.3367         26.3442 
       0.153489         24.3654         24.3919         24.4008 
       0.159709         22.3478         22.3446         22.3747 
       0.165845          20.383         20.4386         20.4945 
       0.171974         18.8458         18.8059         18.8645 
       0.178125         17.5453         17.5166         17.5851 
       0.184229         16.5714         16.5738         16.6382 
        0.19034         15.9325         15.8905         15.9457 
       0.196428         15.3736         15.3579         15.3962 
       0.202534         14.8116         14.8574          14.892 
       0.208729         14.2889         14.2936         14.3251 
       0.214876         13.6633         13.6361         13.6805 
       0.220989         12.8618         12.8944         12.9465 
       0.227147         12.1394         12.1062         12.1628 
        0.23329         11.3837         11.3422         11.4113 
       0.239377         10.7101          10.662         10.7375 
       0.245482         10.1343         10.0887          10.158 
       0.251667           9.645         9.62467         9.69775 
       0.257832         9.30689         9.26056         9.32891 
       0.263955         8.98498         8.96201         9.02383 
       0.270079         8.70587         8.68804          8.7453 
        0.27624         8.40151         8.40552         8.45846 
       0.282372         8.09815         8.09821         8.15582 
        0.28843         7.79763         7.76728         7.82773 
       0.294538         7.44297         7.41666         7.48073 
       0.300721         7.07292          7.0635         7.13309 
        0.30691         6.76605         6.73123         6.80303 
       0.313033         6.46751         6.43751         6.50784 
       0.319153         6.24522         6.18441         6.25719 
       0.325316         5.98389         5.96735         6.04077 
        0.33145         5.79691         5.78015         5.84843 
       0.337538         5.63376         5.61063         5.67555 
       0.343633          5.4765         5.44573         5.50902 
       0.349808         5.29843         5.27572         5.34131 
       0.355968         5.11665         5.09916         5.17254 
       0.362074         4.94993         4.91942          4.9895 
       0.368217         4.76679         4.73802          4.8031 
       0.374374         4.60888         4.56224         4.63241 
       0.380519         4.42726         4.39802         4.46602 
       0.386598         4.27366         4.24962         4.31944 
       0.392688         4.13458         4.11594         4.18497 
        0.39888          4.0201         3.99284         4.06108 
       0.405048         3.90869            3.88         3.94336 
       0.411186         3.79812         3.77332         3.84233 
       0.417313         3.69574         3.66876         3.73501 
       0.423458         3.58116         3.56425         3.63128 
       0.429607         3.48899         3.45932         3.52405 
       0.435692         3.38802         3.35585         3.42303 
       0.441815         3.28049         3.25402         3.32473 
       0.447964         3.17257          3.1558         3.22401 
       0.454126         3.09111         3.06262         3.12989 
       0.460267         3.01226         2.97589         3.04482 
       0.466387         2.92748         2.89543         2.96091 
        0.47254         2.85452          2.8194         2.88521 
       0.478662           2.779          2.7475         2.81158 
       0.484765         2.71126         2.67848         2.74249 
       0.490885         2.63872         2.61092         2.67927 
       0.497035         2.56464         2.54391         2.61299 
       0.503198         2.50611         2.47785         2.54136 
       0.509342         2.43458         2.41345         2.47839 
       0.515458         2.37915         2.35115         2.41904 
       0.521598         2.31936         2.29081         2.35356 
       0.527764         2.26797         2.23285         2.29524 
       0.533884         2.20127         2.17818         2.24034 
           0.54         2.15275         2.12616          2.1871 
       0.546137         2.09772         2.07614         2.13854 
       0.552299         2.05255         2.02772         2.08549 
       0.558452         2.00606         1.98089         2.03962 
       0.564573         1.96155         1.93558         1.99876 
       0.570708         1.91704         1.89124         1.95282 
       0.576825         1.87413         1.84799         1.90813 
       0.582926          1.8283          1.8059           1.867 
       0.589034         1.79374         1.76498         1.82807 
       0.595184         1.75568         1.72518         1.78177 
       0.601379         1.71246         1.68657         1.74791 
       0.607522         1.67404         1.64968         1.70967 
       0.613639         1.63449         1.61419         1.67302 
       0.619772         1.60591         1.57977          1.6404 
       0.625918         1.57163         1.54633         1.60437 
       0.632068         1.53948         1.51386         1.57069 
       0.638161         1.50697         1.48258          1.5394 
         0.6443         1.47532         1.45189         1.50735 
       0.650464         1.44635         1.42186         1.47978 
       0.656582         1.41994          1.3928          1.4496 
       0.662703         1.39038          1.3645         1.42014 
       0.668861         1.35718         1.33682         1.39417 
       0.675024         1.33265         1.30993         1.36583 
       0.681124         1.31508         1.28414         1.33888 
       0.687237         1.28462         1.25907          1.3115 
       0.693381         1.25558         1.23461         1.28566 
       0.699536         1.23748         1.21078         1.26254 
       0.705665         1.21367         1.18769         1.24279 
       0.711789          1.1868          1.1652         1.21912 
       0.717957         1.16612          1.1431           1.195 
        0.72409         1.14421         1.12166         1.17382 
       0.730186         1.12719         1.10088         1.15134 
       0.736317         1.10279         1.08052          1.1302 
       0.742472         1.08537          1.0606           1.113 
       0.748622         1.06648         1.04121          1.0937 
        0.75476         1.04493         1.02238         1.07231 
       0.760888         1.02967         1.00406         1.05417 
       0.767043         1.00358         0.98614         1.03669 
       0.773185        0.989741        0.968702         1.01978 
       0.779291        0.976663        0.951792         1.00237 
       0.785407        0.957862        0.935263          0.9848 
       0.791564        0.941173        0.919021        0.968446 
       0.797719        0.924856        0.903167        0.950539 
       0.803834        0.908927        0.887784         0.93572 
       0.809972        0.894285        0.872702        0.922115 
       0.816124        0.878929        0.857935        0.905256 
       0.822261        0.865716        0.843551        0.890219 
       0.828378        0.850121        0.829541        0.876206 
       0.834502        0.836253         0.81584        0.861353 
       0.840667        0.824305        0.802363        0.848455 
       0.846816        0.810538        0.789234        0.837173 
       0.852925        0.795812        0.776486        0.822813 
       0.859047        0.783627        0.763996        0.811708 
       0.865192        0.771796        0.751744        0.798052 
       0.871341        0.760953        0.739755        0.785319 
       0.877463        0.746575        0.728085        0.772799 
       0.883569        0.735781        0.716698        0.762263 
       0.889708        0.725664        0.705498        0.750777 
       0.895864        0.714589         0.69451         0.73896 
       0.902008        0.702244         0.68378        0.728086 
       0.908149        0.693005        0.673284        0.717633 
       0.914301        0.683931        0.662992        0.706325 
       0.920448        0.673528        0.652926         0.69579 
       0.926574        0.664657        0.643105        0.686339 
       0.932687        0.654605        0.633507        0.675041 
       0.938823        0.642686        0.624073        0.667774 
       0.944975        0.634918         0.61481        0.656038 
       0.951105        0.623606        0.605769        0.646945 
       0.957225        0.614798        0.596926        0.639078 
       0.963368        0.607465        0.588232        0.629311 
       0.969511        0.599737        0.579711        0.620807 
       0.975621         0.58961        0.571406        0.610619 
       0.981748         0.57969        0.563244        0.602527 
       0.987916        0.572433         0.55519        0.596049 
        0.99406        0.565652        0.547326        0.588326 
        1.00019        0.557414         0.53963        0.580178 
        1.00632        0.551463        0.532091        0.571468 
        1.01246        0.543437        0.524685        0.563605 
        1.01859        0.535935        0.517433        0.556829 
        1.02471        0.527415        0.510328        0.549566 
        1.03085        0.519736        0.503332         0.54115 
        1.03698        0.514157        0.496484        0.533856 
        1.04314        0.507162        0.489734        0.527362 
        1.04929        0.501654        0.483126        0.520653 
        1.05541        0.493078        0.476667        0.514607 
        1.06154        0.487598        0.470311        0.507949 
        1.06769        0.481674        0.464062         0.50136 
        1.07382        0.475311        0.457948        0.494927 
        1.07993        0.469507        0.451958        0.488618 
        1.08607        0.463057        0.446051        0.482899 
        1.09222        0.456854        0.440244        0.476143 
        1.09836        0.451343        0.434548        0.470779 
        1.10449        0.445083         0.42896        0.465001 
        1.11063        0.439444        0.423464        0.458557 
        1.11677        0.434942        0.418068        0.453737 
         1.1229        0.428007        0.412775        0.448184 
        1.12903        0.423728        0.407569        0.442612 
        1.13518        0.418211        0.402449        0.437303 
        1.14131        0.413571         0.39742        0.432249 
        1.14745        0.409848         0.39248        0.426276 
        1.15359        0.403663        0.387624        0.421895 
        1.15973        0.399489        0.382848        0.417234 
        1.16584        0.393974        0.378174        0.411705 
        1.17197        0.388889        0.373572        0.407212 
        1.17811        0.384044        0.369033        0.402861 
        1.18424        0.379733        0.364582        0.397456 
        1.19038        0.374636        0.360193        0.393071 
        1.19652        0.371837        0.355878        0.388908 
        1.20267        0.367362        0.351633        0.383504 
        1.20881        0.361436         0.34746        0.379814 
        1.21495        0.358063         0.34336        0.376425 
        1.22108        0.354268        0.339328        0.371297 
         1.2272        0.349455        0.335371        0.366756 
        1.23334        0.345778        0.331467        0.363049 
        1.23949        0.342622        0.327617        0.359505 
        1.24562        0.338485        0.323839        0.355451 
        1.25174        0.334714        0.320126        0.351129 
        1.25789        0.329898        0.316461        0.347306 
        1.26402        0.327271        0.312859        0.343609 
        1.27014        0.322599        0.309323        0.339701 
        1.27628        0.319895        0.305831        0.335885 
        1.28244        0.316353        0.302386        0.332438 
        1.28858        0.312269           0.299        0.328437 
        1.29471        0.309103        0.295673        0.325308 
        1.30084        0.305626          0.2924        0.322566 
        1.30697          0.3032        0.289171        0.318854 
        1.31312        0.299786        0.285987         0.31533 
        1.31925        0.296297        0.282862        0.312404 
        1.32537        0.293198        0.279786        0.309223 
        1.33151        0.290071        0.276745        0.305968 
        1.33765        0.286776        0.273751        0.302801 
        1.34378        0.283365        0.270807        0.299714 
        1.34992        0.281487        0.267905        0.296727 
        1.35606        0.277971         0.26504         0.29326 
         1.3622        0.275182        0.262221        0.290409 
        1.36833        0.272843         0.25945        0.287775 
        1.37445        0.270159         0.25672         0.28505 
        1.38059        0.267037        0.254022        0.281926 
        1.38675        0.263901        0.251356        0.278997 
        1.39288        0.260771        0.248739        0.276132 
        1.39901        0.259066         0.24616        0.273584 
        1.40515         0.25608        0.243613        0.270781 
         1.4113        0.254105        0.241102        0.268411 
        1.41742        0.251476        0.238637        0.266342 
        1.42355        0.247907        0.236201        0.262689 
         1.4297        0.246579        0.233792        0.260897 
        1.43585        0.243476        0.231418         0.25817 
        1.44198        0.241501        0.229086        0.254907 
        1.44809        0.238814        0.226791        0.253508 
        1.45423        0.236621        0.224519        0.250193 
        1.46036        0.234278        0.222282        0.248142 
        1.46649        0.231982        0.220074        0.246357 
        1.47263        0.229028        0.217895        0.243767 
        1.47877        0.228279        0.215747        0.241514 
        1.48491        0.224861        0.213624        0.239548 
        1.49104        0.223911        0.211535         0.23666 
        1.49718         0.22118        0.209471         0.23517 
        1.50333        0.219261        0.207433         0.23228 
        1.50947        0.217341        0.205425        0.230029 
         1.5156        0.215026        0.203447        0.228473 
        1.52172        0.213242        0.201495        0.226063 
        1.52787        0.210588        0.199565        0.223951 
          1.534        0.209274        0.197663        0.222245 
        1.54013        0.207145        0.195787        0.220181 
        1.54627        0.205524        0.193933        0.218035 
        1.55241         0.20341        0.192102        0.216081 
        1.55855        0.201613        0.190298        0.214149 
        1.56467        0.199929        0.188522        0.212462 
         1.5708        0.197866        0.186763        0.210299 
        1.57695        0.196121        0.185025        0.208224 
        1.58308        0.193699        0.183312        0.206765 
        1.58922        0.192679         0.18162        0.205061 
        1.59535        0.190661         0.17995        0.203102 
         1.6015        0.189229        0.178299        0.201088 
        1.60764          0.1873         0.17667        0.199619 
        1.61376        0.185761        0.175065        0.198392 
        1.61989        0.183928        0.173479        0.196497 
        1.62604        0.182416        0.171909        0.194683 
        1.63218        0.181048        0.170359        0.193098 
        1.63831        0.179283        0.168833        0.191461 
        1.64444        0.177781        0.167324        0.189657 
        1.65059        0.175824         0.16583        0.188034 
        1.65673        0.174634        0.164356        0.186567 
        1.66285        0.173359        0.162904        0.185045 
        1.66898        0.171433        0.161469        0.183372 
        1.67512        0.170078        0.160049        0.181825 
        1.68127        0.168532        0.158645        0.180416 
         1.6874        0.167366         0.15726        0.179078 
        1.69353        0.165837        0.155893         0.17764 
        1.69967        0.164178        0.154539        0.175901 
        1.70581        0.163283        0.153202        0.174406 
        1.71193        0.162013        0.151885        0.173144 
        1.71806         0.16034        0.150582        0.171663 
        1.72421         0.15895        0.149291        0.170476 
        1.73035        0.157703        0.148016        0.169072 
        1.73649        0.156506        0.146757        0.167344 
        1.74262         0.15502        0.145514        0.166049 
        1.74876        0.154039        0.144284         0.16502 
        1.75489        0.152606        0.143071        0.163766 
        1.76101        0.151385        0.141872        0.162276 
        1.76715         0.15029        0.140685        0.161149 
        1.77329        0.148781        0.139511        0.160013 
        1.77943        0.147589        0.138349        0.158658 
        1.78557        0.146803        0.137202        0.157232 
        1.79171        0.145532        0.136068        0.155868 
        1.79785        0.144077        0.134947        0.154741 
        1.80399        0.142772        0.133839        0.153763 
        1.81012        0.141985        0.132744        0.152224 
        1.81625         0.14093        0.131663         0.15094 
        1.82239        0.140031        0.130591        0.150207 
        1.82853        0.138579        0.129532        0.149173 
        1.83466        0.137488        0.128486        0.147867 
        1.84078        0.136496        0.127453        0.146632 
        1.84692        0.135468        0.126429        0.145705 
        1.85306        0.134441        0.125416        0.144448 
         1.8592        0.133457        0.124415        0.143105 
        1.86533        0.132482        0.123425        0.142225 
        1.87147        0.131334        0.122445        0.141266 
        1.87761        0.130206        0.121476        0.140289 
