# k  (h/Mpc)    Pcb(k)  (Mpc/h)^3    Pcb_linear(k) (Mpc/h)^3    Pcb_NL(k) (Mpc/h)^3   ShotnoiseSubtracted = false
     0.00783031         12138.7         12195.3           12146 
       0.013688           14902         15265.8         15174.6 
       0.019231         15445.9         15664.3         15540.5 
      0.0249154         14676.5         14657.2         14530.7 
      0.0312784         12676.4         12800.9         12676.7 
      0.0375637         10729.9         10910.4         10800.9 
      0.0433917          9390.3         9441.33         9329.89 
      0.0492413         8236.25          8338.1         8236.48 
      0.0555754         7483.13         7517.75         7427.37 
      0.0619321         6727.13         6958.11         6869.19 
       0.067871         6411.52         6542.11         6456.75 
      0.0738098         6047.19         6127.52         5995.22 
      0.0800417         5573.25         5635.49         5513.28 
      0.0862327         5010.32         5086.74         5017.91 
      0.0921407         4508.33         4545.56         4493.75 
      0.0982031         4064.73         4025.76         4040.02 
       0.104506         3576.95         3570.51         3639.39 
       0.110769         3267.49         3226.63         3277.66 
       0.116806         3094.66         2993.28         3043.34 
       0.122832         2903.98          2833.9         2889.42 
       0.129052         2768.52         2713.19         2758.74 
       0.135211         2700.86          2603.7         2639.36 
       0.141259         2529.31         2481.41         2530.49 
       0.147318         2356.08         2333.77         2405.68 
       0.153489         2213.27         2161.42          2212.8 
       0.159709         2099.79            1980         2069.87 
       0.165845         1901.35          1811.1         1956.23 
       0.171974         1832.31         1666.43         1821.15 
       0.178125         1748.32         1552.17         1741.32 
       0.184229         1612.41         1468.63         1647.25 
        0.19034         1584.65         1408.08         1578.49 
       0.196428         1540.72         1360.89          1510.6 
       0.202534         1449.82         1316.54         1465.35 
       0.208729         1427.99         1266.58         1398.79 
       0.214876         1368.39         1208.32         1367.33 
       0.220989         1289.49         1142.59         1318.81 
       0.227147         1252.54         1072.75         1264.23 
        0.23329         1198.76         1005.04         1220.32 
       0.239377         1180.47         944.769         1166.39 
       0.245482         1118.53         893.972         1107.95 
       0.251667         1075.34         852.854         1076.73 
       0.257832         1059.63         820.589         1036.73 
       0.263955         1008.67         794.134         1003.47 
       0.270079         979.303         769.856         975.357 
        0.27624         939.349         744.818         945.795 
       0.282372         924.418         717.591         923.927 
        0.28843         913.066         688.265         899.717 
       0.294538         866.962         657.196         875.459 
       0.300721         845.295         625.903         849.744 
        0.30691          827.58          596.46         831.849 
       0.313033         791.267         570.431         801.997 
       0.319153         779.775         548.005         778.467 
       0.325316         768.592         528.774         761.837 
        0.33145         751.521         512.183         733.805 
       0.337538         725.118         497.161         718.795 
       0.343633         706.168         482.552         711.299 
       0.349808          690.89         467.483         698.466 
       0.355968         677.737          451.84         686.017 
       0.362074         654.555         435.914         671.056 
       0.368217         652.137         419.839         651.491 
       0.374374         640.936         404.264         637.948 
       0.380519         616.076         389.711         622.703 
       0.386598         610.589         376.561         614.461 
       0.392688         595.848         364.716         596.944 
        0.39888         580.942         353.809         587.182 
       0.405048         569.866         343.809         578.858 
       0.411186         568.162         334.355          564.47 
       0.417313         562.466         325.091         554.121 
       0.423458         545.919         315.831         546.044 
       0.429607          530.59         306.532         535.411 
       0.435692         523.601         297.364         524.489 
       0.441815         514.455         288.341         520.485 
       0.447964         504.673         279.638          511.36 
       0.454126         498.745          271.38         497.506 
       0.460267         490.626         263.696         494.997 
       0.466387          482.28         256.565          485.37 
        0.47254          474.95         249.828         478.581 
       0.478662         465.713         243.457         469.524 
       0.484765         460.438         237.342         461.198 
       0.490885          455.54         231.353         454.616 
       0.497035         445.966         225.418         449.611 
       0.503198         445.484         219.564         443.354 
       0.509342         435.601         213.857         437.634 
       0.515458         427.726         208.336         433.875 
       0.521598          422.41          202.99         426.509 
       0.527764         415.022         197.854         421.445 
       0.533884         412.307         193.009         415.965 
           0.54         407.079           188.4         409.596 
       0.546137         399.063         183.967          404.71 
       0.552299         398.044         179.677         398.918 
       0.558452         391.428         175.528         394.948 
       0.564573         387.878         171.513         391.732 
       0.570708         382.835         167.583         387.819 
       0.576825         375.686         163.751         380.498 
       0.582926         373.706         160.022         376.774 
       0.589034         367.626         156.396         371.879 
       0.595184         364.839         152.869         366.673 
       0.601379         359.028         149.448         363.636 
       0.607522         352.199         146.178         359.169 
       0.613639         350.921         143.034         356.816 
       0.619772         349.373         139.984         354.835 
       0.625918         342.833         137.021         349.277 
       0.632068         339.795         134.144         345.054 
       0.638161          336.82         131.372         342.476 
         0.6443         332.906         128.653         339.212 
       0.650464         328.492         125.992         333.184 
       0.656582         325.442         123.417          330.64 
       0.662703         323.129         120.909         329.168 
       0.668861         317.456         118.456         325.926 
       0.675024         316.032         116.074         322.738 
       0.681124           311.8         113.788         317.945 
       0.687237         309.701         111.567         315.137 
       0.693381         305.357         109.399         312.199 
       0.699536         303.665         107.288         309.954 
       0.705665         300.182         105.242         306.847 
       0.711789         297.986         103.248         304.566 
       0.717957         294.395          101.29          302.49 
        0.72409         290.805         99.3906         299.875 
       0.730186         292.479         97.5497         297.046 
       0.736317         286.972          95.745         293.901 
       0.742472         284.336         93.9799         291.034 
       0.748622         281.236         92.2623         288.376 
        0.75476         280.624         90.5936         288.009 
       0.760888         277.288         88.9705         283.942 
       0.767043          274.14         87.3822         282.094 
       0.773185         272.454          85.837         279.932 
       0.779291         268.702         84.3386         276.894 
       0.785407         267.462          82.874         275.005 
       0.791564         265.105         81.4347         272.948 
       0.797719         260.814         80.0299         271.057 
       0.803834         262.612         78.6668         269.399 
       0.809972         258.548         77.3304         267.146 
       0.816124         255.122         76.0219         264.387 
       0.822261         253.087         74.7473         262.772 
       0.828378         252.546         73.5058         260.448 
       0.834502         248.757         72.2918          258.84 
       0.840667         248.975         71.0977         256.569 
       0.846816         244.264         69.9343         255.128 
       0.852925         244.213         68.8046         253.206 
       0.859047         241.768         67.6979         251.497 
       0.865192         241.195         66.6122          249.35 
       0.871341          237.83         65.5499         247.571 
       0.877463         235.902         64.5158         246.248 
       0.883569         235.057         63.5068         244.981 
       0.889708         232.653         62.5144         242.514 
       0.895864         230.477         61.5407         241.141 
       0.902008         228.621         60.5899         239.296 
       0.908149          226.73         59.6599         237.169 
       0.914301         225.211         58.7479         235.738 
       0.920448         224.457         57.8559         233.838 
       0.926574         222.225         56.9857         232.159 
       0.932687         221.214         56.1353         230.734 
       0.938823         219.092         55.2992         229.832 
       0.944975         218.228         54.4784         228.517 
       0.951105         215.748         53.6773         226.662 
       0.957225         214.058         52.8938         224.939 
       0.963368         213.696         52.1234         223.227 
       0.969511         209.992         51.3683         221.646 
       0.975621         208.774         50.6324         221.069 
       0.981748          208.03         49.9091         219.613 
       0.987916         206.892         49.1955         218.201 
        0.99406         204.965         48.4987         216.811 
        1.00019         203.667         47.8168         215.129 
        1.00632         202.816         47.1487         213.409 
        1.01246         200.972         46.4924          211.72 
        1.01859         198.997         45.8498         211.043 
        1.02471         197.492         45.2203         210.191 
        1.03085         196.454         44.6004         208.883 
        1.03698         195.338         43.9935         207.905 
        1.04314         194.731         43.3954         206.268 
        1.04929         193.359         42.8099         204.832 
        1.05541         191.833         42.2376         203.693 
        1.06154         190.012         41.6744         202.534 
        1.06769         188.904         41.1206         201.588 
        1.07382         188.157         40.5788         200.214 
        1.07993         186.085         40.0481          198.99 
        1.08607         185.225         39.5247         197.978 
        1.09222         183.707         39.0101         197.013 
        1.09836           183.1         38.5054         196.041 
        1.10449         181.418         38.0102         194.895 
        1.11063         180.125         37.5233         193.506 
        1.11677         179.156         37.0451         192.195 
         1.1229         177.983          36.576         191.188 
        1.12903         176.745         36.1148         190.286 
        1.13518         175.413         35.6611         189.147 
        1.14131         174.701         35.2155         187.853 
        1.14745         172.957         34.7778         187.056 
        1.15359         171.546         34.3474         185.913 
        1.15973         171.179         33.9242         184.874 
        1.16584         170.082         33.5101         183.317 
        1.17197         169.039         33.1023         182.858 
        1.17811         167.482         32.7001         182.062 
        1.18424         166.675         32.3057         180.598 
        1.19038         165.697         31.9168         180.153 
        1.19652         164.058         31.5344         179.249 
        1.20267         163.331         31.1583         177.899 
        1.20881          162.02         30.7885         177.172 
        1.21495         161.804         30.4252          176.03 
        1.22108         160.418         30.0679         175.348 
         1.2272         159.083         29.7172         173.778 
        1.23334         158.422         29.3714         173.408 
        1.23949         157.677         29.0302          172.56 
        1.24562         156.421         28.6954         171.161 
        1.25174           155.6         28.3664         170.547 
        1.25789         154.201         28.0416         169.566 
        1.26402         153.946         27.7225         168.632 
        1.27014         153.087         27.4092          168.22 
        1.27628         151.536         27.0997         167.784 
        1.28244         150.758         26.7945         166.392 
        1.28858         149.752         26.4944         165.366 
        1.29471         148.837         26.1996         164.507 
        1.30084         147.861         25.9096         163.646 
        1.30697           146.8         25.6235          162.94 
        1.31312         145.917         25.3414         161.748 
        1.31925         144.931         25.0644         161.081 
        1.32537         144.409         24.7919         160.588 
        1.33151         143.495         24.5224         159.581 
        1.33765         142.273         24.2571         158.802 
        1.34378         141.992         23.9963         158.065 
        1.34992         141.004         23.7391         157.038 
        1.35606         140.135         23.4852         156.148 
         1.3622         139.439         23.2354         155.575 
        1.36833         138.012         22.9899         154.615 
        1.37445          137.92          22.748          153.84 
        1.38059         136.642         22.5089         153.025 
        1.38675         135.912         22.2727         152.282 
        1.39288         134.871         22.0408         151.142 
        1.39901         134.084         21.8123         150.826 
        1.40515         133.633         21.5866         150.324 
         1.4113         132.557         21.3641         149.557 
        1.41742         131.667         21.1456          148.95 
        1.42355         131.523         20.9298         148.227 
         1.4297         130.245         20.7164         147.419 
        1.43585         129.585          20.506         146.415 
        1.44198         128.326         20.2994         145.873 
        1.44809         127.831          20.096         145.243 
        1.45423         127.386         19.8946         144.357 
        1.46036         126.251         19.6964         143.674 
        1.46649         125.551         19.5008         143.222 
        1.47263         124.944         19.3077         142.661 
        1.47877         123.917         19.1174         141.656 
        1.48491         123.403         18.9293         141.084 
        1.49104         122.006         18.7441         140.738 
        1.49718         121.837         18.5613         139.517 
        1.50333         121.253         18.3806         138.817 
        1.50947          120.44         18.2027         138.356 
         1.5156         119.577         18.0275         137.713 
        1.52172         118.961         17.8545         137.043 
        1.52787         118.342         17.6835         136.368 
          1.534         117.659         17.5149         135.796 
        1.54013         116.923         17.3487         135.228 
        1.54627         116.102         17.1844         134.611 
        1.55241         115.739         17.0222         133.968 
        1.55855         115.018         16.8623          133.27 
        1.56467         114.226         16.7049         132.569 
         1.5708          113.18         16.5491         132.088 
        1.57695         112.967          16.395          131.53 
        1.58308         112.078         16.2433         130.775 
        1.58922         111.848         16.0934         130.169 
        1.59535         111.196         15.9454         129.643 
         1.6015         110.126         15.7991         128.964 
        1.60764         109.462         15.6547         128.332 
        1.61376         108.932         15.5125          128.01 
        1.61989         108.484          15.372         127.541 
        1.62604         107.628         15.2329         126.589 
        1.63218         107.139         15.0956         125.966 
        1.63831         106.389         14.9603         125.679 
        1.64444         105.666         14.8266         124.866 
        1.65059         105.086         14.6942          124.37 
        1.65673         104.857         14.5636          123.85 
        1.66285         104.255          14.435         123.289 
        1.66898         103.359         14.3078         122.811 
        1.67512         102.822          14.182         122.251 
        1.68127          102.33         14.0575         121.645 
         1.6874         101.413         13.9348         121.113 
        1.69353          100.98         13.8137         120.663 
        1.69967         100.347         13.6937          120.03 
        1.70581         100.064         13.5752         119.438 
        1.71193         99.2608         13.4586         118.965 
        1.71806         98.5841          13.343         118.459 
        1.72421         98.0546         13.2287         117.927 
        1.73035         97.5622         13.1157         117.325 
        1.73649         96.8247         13.0042         116.738 
        1.74262          96.555          12.894         116.353 
        1.74876         95.7818          12.785         115.842 
        1.75489         95.4229         12.6775         115.223 
        1.76101         94.7844         12.5713         114.681 
        1.76715         94.0736         12.4661         114.273 
        1.77329          93.635          12.362         113.746 
        1.77943         93.0756         12.2591         113.168 
        1.78557          92.703         12.1575         112.724 
        1.79171         92.1522          12.057         112.314 
        1.79785         91.3292         11.9577         111.869 
        1.80399         91.2035         11.8595         111.351 
        1.81012         90.2989         11.7625         110.734 
        1.81625         89.9078         11.6666         110.244 
        1.82239         89.4462         11.5717         109.869 
        1.82853          88.901         11.4779          109.36 
        1.83466         88.2406         11.3852         108.831 
        1.84078         87.9981         11.2936         108.419 
        1.84692         87.6701         11.2029          108.12 
        1.85306         87.0134         11.1131         107.574 
         1.8592         86.6403         11.0244          106.99 
        1.86533         85.9314         10.9367         106.627 
        1.87147         85.6246         10.8499         106.018 
