# k  (h/Mpc)    P(k)  (Mpc/h)^3    P_linear(k)  (Mpc/h)^3     P_NL(k)  ShotnoiseSubtracted = false
     0.00783031         6535.34         6570.47         6545.84 
       0.013688         8073.56         8226.41         8185.12 
       0.019231         8358.16         8441.92         8388.17 
      0.0249154         7913.37         7899.57         7852.09 
      0.0312784         6862.53          6899.3         6861.18 
      0.0375637         5820.93         5880.52         5848.68 
      0.0433917         5083.34         5088.79         5058.78 
      0.0492413         4464.87         4494.21         4467.86 
      0.0555754         4054.68         4052.07            4028 
      0.0619321         3668.81         3750.46         3726.37 
       0.067871         3490.04         3526.24         3502.04 
      0.0738098         3282.81         3302.79         3264.02 
      0.0800417            3028         3037.59         3001.79 
      0.0862327          2722.5         2741.81         2722.72 
      0.0921407         2441.01         2450.12         2436.76 
      0.0982031         2189.59         2169.94          2177.8 
       0.104506         1925.38         1924.56         1949.72 
       0.110769         1751.96          1739.2         1757.74 
       0.116806         1653.17         1613.42         1631.49 
       0.122832         1549.64         1527.52         1547.54 
       0.129052         1485.05         1462.46         1478.69 
       0.135211         1440.86         1403.44         1417.13 
       0.141259         1356.24         1337.52          1354.8 
       0.147318         1262.45         1257.94         1284.17 
       0.153489         1181.67         1165.05         1183.24 
       0.159709         1107.91         1067.26         1098.13 
       0.165845         1000.54         976.219         1026.46 
       0.171974         957.021         898.236         950.055 
       0.178125         903.078         836.651         900.329 
       0.184229         839.006          791.62         852.807 
        0.19034          819.09         758.985          816.62 
       0.196428         794.067         733.545         781.932 
       0.202534         748.142         709.639         757.878 
       0.208729         735.695         682.711         726.267 
       0.214876         707.151         651.306         705.611 
       0.220989         659.394         615.878         675.518 
       0.227147          639.46         578.234         641.533 
        0.23329         609.493         541.738         614.464 
       0.239377         590.699          509.25         585.174 
       0.245482         557.585         481.869         553.651 
       0.251667          533.49         459.705         535.723 
       0.257832         526.418         442.314         515.335 
       0.263955         499.017         428.054         497.909 
       0.270079         482.714         414.968         483.052 
        0.27624         463.419         401.475         466.968 
       0.282372         452.318         386.796         453.927 
        0.28843         448.086          370.99         439.172 
       0.294538         424.896         354.243         425.899 
       0.300721         408.772         337.375         412.769 
        0.30691         400.845         321.505         399.865 
       0.313033         382.189         307.475         384.231 
       0.319153         374.791         295.386         372.773 
       0.325316          365.25         285.019         363.415 
        0.33145         355.973         276.078         350.194 
       0.337538         343.847         267.981         340.867 
       0.343633         333.294         260.105         335.602 
       0.349808         324.533         251.984         328.434 
       0.355968         317.356         243.552         321.621 
       0.362074         308.427         234.966         312.967 
       0.368217         304.089         226.302         302.574 
       0.374374         296.684         217.906           295.2 
       0.380519         284.314         210.063         287.033 
       0.386598         279.638         202.975         281.031 
       0.392688          272.33          196.59         273.824 
        0.39888         266.024          190.71         266.979 
       0.405048         260.662          185.32         262.953 
       0.411186         257.959         180.225         256.468 
       0.417313           252.5         175.231          249.65 
       0.423458         245.971         170.239         245.128 
       0.429607         240.115         165.228         240.336 
       0.435692         235.659         160.286           235.2 
       0.441815         230.803         155.422         232.389 
       0.447964         224.134         150.731         227.055 
       0.454126         220.476          146.28         220.689 
       0.460267         217.889         142.137         218.358 
       0.466387         213.292         138.294         213.555 
        0.47254         210.653         134.663         209.823 
       0.478662         204.127         131.229         205.781 
       0.484765         201.549         127.932         200.766 
       0.490885         198.347         124.705         198.283 
       0.497035         195.865         121.505         195.629 
       0.503198         193.032          118.35         192.243 
       0.509342         187.851         115.273         189.495 
       0.515458         185.511         112.298         187.432 
       0.521598         181.114         109.416         183.022 
       0.527764          179.22         106.647         179.554 
       0.533884         178.341         104.036         177.119 
           0.54         173.841         101.552         174.356 
       0.546137         169.927         99.1624         172.355 
       0.552299         168.219         96.8498         168.793 
       0.558452         165.175         94.6133         166.214 
       0.564573         164.229         92.4491         164.654 
       0.570708         160.092         90.3314         162.279 
       0.576825         158.085         88.2653         159.236 
       0.582926         156.386         86.2551         157.061 
       0.589034         153.923         84.3008         155.548 
       0.595184         152.405         82.3995         152.768 
       0.601379         149.115         80.5557         151.595 
       0.607522         146.475         78.7934         148.737 
       0.613639         145.265         77.0985         147.228 
       0.619772         143.374         75.4543         144.928 
       0.625918         142.174         73.8574         143.509 
       0.632068         139.057         72.3064         141.146 
       0.638161         137.371         70.8123         140.218 
         0.6443         136.663         69.3466         138.124 
       0.650464         133.931         67.9122         135.471 
       0.656582         133.227         66.5242         134.614 
       0.662703         131.589         65.1724         132.644 
       0.668861         128.883         63.8504         131.273 
       0.675024         128.851         62.5662         129.431 
       0.681124         126.728         61.3341         128.084 
       0.687237         124.759         60.1368         126.473 
       0.693381         123.814         58.9685         124.864 
       0.699536         122.266         57.8305         123.931 
       0.705665         120.647         56.7276         123.064 
       0.711789         119.099         55.6533         120.779 
       0.717957         117.699         54.5975          119.73 
        0.72409         116.769         53.5737         119.123 
       0.730186         116.252         52.5814         117.758 
       0.736317         114.245         51.6087         116.061 
       0.742472         112.715         50.6572         114.985 
       0.748622         110.961         49.7314         113.623 
        0.75476         111.007         48.8319         112.356 
       0.760888          109.99          47.957         110.942 
       0.767043         107.941         47.1009         110.457 
       0.773185         106.667          46.268          109.71 
       0.779291         105.495         45.4603         108.448 
       0.785407         104.365         44.6709         106.982 
       0.791564         103.913         43.8951         106.158 
       0.797719         102.582         43.1379         105.476 
       0.803834         101.958         42.4031         103.985 
       0.809972         101.226         41.6827         103.139 
       0.816124         99.8529         40.9775         102.526 
       0.822261         98.6509         40.2904         101.326 
       0.828378         98.4301         39.6213         99.9833 
       0.834502         96.9433         38.9669         99.5828 
       0.840667         96.3734         38.3232         99.0234 
       0.846816         95.4879         37.6961         97.9198 
       0.852925         94.3759         37.0872         96.9769 
       0.859047         93.8274         36.4907         96.0154 
       0.865192          92.698         35.9055         95.4569 
       0.871341         91.7446         35.3328         94.4185 
       0.877463         91.1366         34.7754         93.8186 
       0.883569           90.87         34.2316         93.1793 
       0.889708         89.9965         33.6966         92.3343 
       0.895864         89.1757         33.1718         91.7118 
       0.902008         88.2554         32.6593         90.7455 
       0.908149         87.1518          32.158          90.067 
       0.914301         86.9711         31.6664         89.5181 
       0.920448         86.6579         31.1856         88.8038 
       0.926574         84.8716         30.7165         87.7852 
       0.932687         84.6481         30.2581         87.2325 
       0.938823         83.9688         29.8075         86.5014 
       0.944975         82.9757         29.3651         85.8428 
       0.951105          82.292         28.9333         85.3159 
       0.957225         82.1669         28.5109          84.755 
       0.963368         81.2403         28.0956         83.7567 
       0.969511         80.6203         27.6887         83.2577 
       0.975621         79.9182          27.292         83.2984 
       0.981748          79.193         26.9021         82.3498 
       0.987916         78.6074         26.5175         81.9469 
        0.99406         78.3136         26.1418          81.165 
        1.00019         77.3285         25.7743         80.4936 
        1.00632         76.7733         25.4142          80.009 
        1.01246         76.2843         25.0604         79.3225 
        1.01859         75.9688         24.7141         78.9325 
        1.02471         75.1866         24.3747         78.5634 
        1.03085         74.5453         24.0406         77.8552 
        1.03698         74.0666         23.7135         77.2402 
        1.04314         73.4958         23.3911         76.7213 
        1.04929         73.0067         23.0755         76.4045 
        1.05541         72.5365          22.767         76.0681 
        1.06154         72.0807         22.4634         75.5002 
        1.06769         71.3416         22.1649         75.0273 
        1.07382         70.7503         21.8729         74.4822 
        1.07993         70.5245         21.5868         73.9964 
        1.08607         69.9535         21.3047          73.522 
        1.09222          69.648         21.0273          72.876 
        1.09836         68.9611         20.7553         72.4634 
        1.10449          68.588         20.4884          72.046 
        1.11063         68.0102         20.2259         71.4138 
        1.11677         67.6816         19.9681         70.9707 
         1.1229         67.0759         19.7153         70.8215 
        1.12903         66.8613         19.4666         70.2796 
        1.13518         66.5522         19.2221         69.8229 
        1.14131         65.8812         18.9819         69.4425 
        1.14745         65.4265          18.746         69.0421 
        1.15359         64.6697          18.514         68.6898 
        1.15973          64.652         18.2859         68.2898 
        1.16584         64.1522         18.0627         67.7222 
        1.17197         63.5738         17.8429         67.4433 
        1.17811         63.2251         17.6261         66.9398 
        1.18424         62.5277         17.4135         66.5889 
        1.19038         62.4661         17.2038         66.3116 
        1.19652         62.0931         16.9977         65.7787 
        1.20267         61.5816          16.795          65.541 
        1.20881         61.1976         16.5957         65.0961 
        1.21495         60.8891         16.3999         64.7584 
        1.22108           60.67         16.2073          64.453 
         1.2272         60.0204         16.0182         64.1016 
        1.23334         59.7749         15.8318          63.708 
        1.23949          59.386         15.6479         63.2459 
        1.24562         58.9335         15.4675         62.9681 
        1.25174         58.5682         15.2901          62.724 
        1.25789         58.5372         15.1151         62.2698 
        1.26402         58.0212          14.943         61.9274 
        1.27014         57.7645         14.7741         61.7324 
        1.27628          57.169         14.6074         61.3639 
        1.28244         57.0746         14.4428         60.9336 
        1.28858          56.638         14.2811         60.6615 
        1.29471         56.2595         14.1222         60.4548 
        1.30084         55.7565         13.9658         59.8722 
        1.30697         55.8045         13.8116         59.5771 
        1.31312         55.2865         13.6596         59.4767 
        1.31925         54.8822         13.5103         59.0756 
        1.32537         54.6034         13.3634         58.7568 
        1.33151          54.308         13.2181         58.4688 
        1.33765         54.0044         13.0751          58.179 
        1.34378         53.7668         12.9345           57.86 
        1.34992         53.4101         12.7959          57.618 
        1.35606         53.0149          12.659         57.3873 
         1.3622         52.7742         12.5244         57.0563 
        1.36833         52.4883         12.3921         56.7302 
        1.37445         51.9984         12.2617         56.4756 
        1.38059         51.9093         12.1328         56.3984 
        1.38675         51.3366         12.0055         55.9272 
        1.39288         51.3506         11.8805         55.7675 
        1.39901         50.8809         11.7573          55.463 
        1.40515         50.6849         11.6356         55.2011 
         1.4113         50.5698         11.5157         54.9629 
        1.41742         50.1632          11.398         54.6347 
        1.42355         49.8554         11.2816         54.3354 
         1.4297         49.6043         11.1666         54.0548 
        1.43585          49.257         11.0532         53.8995 
        1.44198         48.9474         10.9418         53.7029 
        1.44809         48.6427         10.8322         53.2449 
        1.45423         48.4644         10.7236         53.0337 
        1.46036         48.1995         10.6168         52.8559 
        1.46649         47.9842         10.5114         52.6607 
        1.47263         47.6958         10.4073         52.4361 
        1.47877         47.5009         10.3047         52.1147 
        1.48491           47.24         10.2033         51.8748 
        1.49104         46.8349         10.1035         51.5897 
        1.49718         46.6808         10.0049         51.3847 
        1.50333         46.4913         9.90756         51.1742 
        1.50947         46.1659         9.81168         50.9541 
         1.5156         45.9874         9.71721         50.7496 
        1.52172         45.6275         9.62398         50.5368 
        1.52787         45.4112          9.5318         50.2988 
          1.534         45.1806         9.44094         50.0792 
        1.54013         45.1014         9.35136         49.8446 
        1.54627         44.6415         9.26278         49.6037 
        1.55241         44.4137         9.17534         49.3765 
        1.55855         44.3359         9.08916         49.1437 
        1.56467         43.9848         9.00432         48.9379 
         1.5708         43.8654         8.92033         48.7977 
        1.57695         43.5885         8.83729         48.6203 
        1.58308         43.2897          8.7555         48.3588 
        1.58922         43.0927         8.67469         48.1178 
        1.59535          42.952         8.59493         47.9304 
         1.6015         42.8559         8.51607         47.6934 
        1.60764         42.5108         8.43823         47.4917 
        1.61376         42.2541         8.36159         47.3535 
        1.61989         41.9891         8.28583          47.096 
        1.62604         41.8131         8.21085         46.8752 
        1.63218         41.5547         8.13684         46.7137 
        1.63831         41.4517         8.06391         46.5429 
        1.64444         41.2054         7.99185         46.3292 
        1.65059         40.9749         7.92051         46.1284 
        1.65673         40.7283         7.85011         45.9263 
        1.66285         40.6464         7.78076         45.7543 
        1.66898         40.2664         7.71223         45.6282 
        1.67512         40.1914         7.64439         45.4593 
        1.68127         39.9626         7.57731         45.1878 
         1.6874          39.747         7.51119         44.9242 
        1.69353         39.6402         7.44589         44.7962 
        1.69967          39.464         7.38122         44.6641 
        1.70581          39.128         7.31734         44.5536 
        1.71193         38.9541         7.25447         44.3834 
        1.71806         38.8005          7.1922         44.0379 
        1.72421         38.5899         7.13054         43.8411 
        1.73035         38.3922         7.06967         43.7987 
        1.73649         38.1144         7.00953         43.6965 
        1.74262          37.872         6.95014         43.3413 
        1.74876         37.8684         6.89139         43.1351 
        1.75489          37.581         6.83345         43.0431 
        1.76101         37.4351         6.77619         42.8954 
        1.76715         37.3461         6.71951          42.733 
        1.77329         36.9619         6.66341          42.565 
        1.77943          36.974         6.60793          42.392 
        1.78557         36.7863         6.55316         42.2188 
        1.79171         36.5987           6.499         42.0429 
        1.79785         36.3799         6.44545         41.9139 
        1.80399          36.208         6.39251         41.8197 
        1.81012         36.0805         6.34023         41.5408 
        1.81625         35.7736         6.28857         41.2968 
        1.82239         35.6206          6.2374         41.2125 
        1.82853         35.5151         6.18683         41.0969 
        1.83466         35.3003         6.13686         40.9164 
        1.84078         35.1612         6.08751         40.7402 
        1.84692         34.9507         6.03861         40.6483 
        1.85306         34.7435          5.9902          40.503 
         1.8592         34.6771         5.94239         40.3159 
        1.86533         34.4922         5.89513         40.1889 
        1.87147         34.3095         5.84834           40.05 
        1.87761         34.0801         5.80203          39.868 
