# k  (h/Mpc)    Pcb(k)  (Mpc/h)^3    Pcb_linear(k) (Mpc/h)^3    Pcb_NL(k) (Mpc/h)^3   ShotnoiseSubtracted = false
     0.00783031         546.392         550.347         548.241 
       0.013688         683.239         689.502         686.689 
       0.019231         705.122         707.749         704.422 
      0.0249154          662.16         662.374         660.208 
      0.0312784         578.159         578.555         577.886 
      0.0375637         492.503         493.151         492.943 
      0.0433917         427.646          426.77         426.962 
      0.0492413         376.979         376.915         377.212 
      0.0555754         340.875         339.841         339.965 
      0.0619321         313.079         314.549         314.561 
       0.067871         295.492         295.747         295.534 
      0.0738098         276.895         277.008         276.574 
      0.0800417         255.018         254.768         254.357 
      0.0862327         229.828         229.962          229.74 
      0.0921407         205.341         205.497         205.443 
      0.0982031         182.503         181.999         182.193 
       0.104506         161.194         161.419         161.797 
       0.110769         145.825         145.873         146.203 
       0.116806         135.894         135.324         135.583 
       0.122832         128.119         128.119         128.351 
       0.129052         122.921         122.662         122.799 
       0.135211         118.148         117.712          117.79 
       0.141259         112.213         112.184         112.269 
       0.147318          105.16         105.509         105.691 
       0.153489         97.6709         97.7175          97.861 
       0.159709         89.7544         89.5157          89.794 
       0.165845          81.625         81.8798         82.3491 
       0.171974         75.8872         75.3392         75.8147 
       0.178125         70.6697         70.1737         70.7415 
       0.184229         66.6198         66.3969         66.9458 
        0.19034         64.2261         63.6597         64.1542 
       0.196428         61.9451         61.5259         61.9023 
       0.202534         59.4299         59.5208         59.8825 
       0.208729           57.52         57.2624          57.602 
       0.214876         55.1208         54.6284         55.0729 
       0.220989         51.6629         51.6567         52.1521 
       0.227147          49.035         48.4993          49.018 
        0.23329         46.0631         45.4384         46.0544 
       0.239377         43.4383         42.7133         43.3777 
       0.245482         41.0737         40.4168         41.0278 
       0.251667         39.0413         38.5579         39.2074 
       0.257832         37.8354         37.0991         37.7161 
       0.263955          36.397         35.9031         36.4728 
       0.270079         35.2542         34.8055         35.3436 
        0.27624         33.9539         33.6735         34.1769 
       0.282372         32.7578         32.4426          32.982 
        0.28843         31.7052         31.1168         31.6754 
       0.294538         30.2475         29.7121         30.2975 
       0.300721         28.7014         28.2974         28.9266 
        0.30691         27.5875         26.9662         27.6122 
       0.313033         26.3567         25.7895         26.4213 
       0.319153         25.5748         24.7756         25.4286 
       0.325316         24.3958         23.9061          24.567 
        0.33145          23.624         23.1561          23.776 
       0.337538         22.9836         22.4769         23.0709 
       0.343633         22.3655         21.8164         22.4009 
       0.349808         21.6265         21.1352         21.7379 
       0.355968         20.8779         20.4279         21.0902 
       0.362074         20.2791         19.7079          20.344 
       0.368217         19.5399         18.9811         19.5767 
       0.374374         18.9651          18.277         18.9118 
       0.380519         18.1611         17.6191          18.236 
       0.386598         17.5317         17.0245         17.6546 
       0.392688         16.9588          16.489         17.1153 
        0.39888         16.5389         15.9959          16.613 
       0.405048         16.1027         15.5438         16.1259 
       0.411186         15.6378         15.1164         15.7433 
       0.417313         15.2111         14.6976         15.2984 
       0.423458         14.7254         14.2789         14.8878 
       0.429607         14.4022         13.8585         14.4493 
       0.435692         14.0263          13.444         14.0528 
       0.441815         13.5363         13.0361         13.6725 
       0.447964         13.0749         12.6426         13.2581 
       0.454126         12.7892         12.2692         12.8762 
       0.460267         12.5238         11.9219         12.5431 
       0.466387         12.1495         11.5995         12.1937 
        0.47254          11.883         11.2949         11.8934 
       0.478662         11.5506         11.0069         11.5922 
       0.484765         11.2732         10.7304         11.3122 
       0.490885         10.9554         10.4596         11.0745 
       0.497035         10.6605         10.1913          10.812 
       0.503198         10.4376         9.92661         10.5055 
       0.509342         10.1249          9.6686         10.2591 
       0.515458         9.92976         9.41901         10.0331 
       0.521598         9.68711         9.17731         9.74997 
       0.527764         9.50323         8.94512         9.51119 
       0.533884         9.19975         8.72608         9.29068 
           0.54         9.01352          8.5177         9.07375 
       0.546137         8.75887         8.31728          8.8853 
       0.552299         8.58764         8.12332         8.65702 
       0.558452         8.39217         7.93573           8.474 
       0.564573         8.22973         7.75422         8.32425 
       0.570708         8.04294         7.57655         8.13526 
       0.576825         7.87414          7.4033         7.95202 
       0.582926         7.68549         7.23468         7.79022 
       0.589034         7.54214         7.07075         7.63924 
       0.595184         7.40903         6.91131         7.43354 
       0.601379         7.20855         6.75664         7.31281 
       0.607522         7.05921         6.60883         7.15254 
       0.613639         6.89041         6.46667         7.00171 
       0.619772         6.78031         6.32876         6.87644 
       0.625918         6.63262         6.19482         6.72507 
       0.632068         6.52187         6.06473         6.58543 
       0.638161         6.37878         5.93942         6.45818 
         0.6443         6.24763         5.81647         6.32543 
       0.650464          6.1111         5.69617         6.22285 
       0.656582         6.03102         5.57975         6.09801 
       0.662703          5.9157         5.46636         5.97612 
       0.668861         5.75869         5.35548         5.87705 
       0.675024         5.65866         5.24777         5.75518 
       0.681124         5.62031         5.14443         5.64524 
       0.687237         5.48247           5.044         5.52765 
       0.693381         5.34158         4.94601         5.42145 
       0.699536          5.2858         4.85056         5.32914 
       0.705665         5.18361         4.75805         5.25913 
       0.711789         5.06506         4.66794         5.15792 
       0.717957         4.96803          4.5794         5.05513 
        0.72409          4.8964         4.49352         4.97246 
       0.730186         4.83929         4.41029         4.87682 
       0.736317         4.72582          4.3287         4.78954 
       0.742472         4.66097          4.2489         4.72874 
       0.748622         4.58303         4.17125         4.64708 
        0.75476         4.47204          4.0958         4.55541 
       0.760888         4.42191         4.02242         4.48379 
       0.767043         4.30645         3.95061         4.41554 
       0.773185         4.25076         3.88075         4.34743 
       0.779291         4.21739         3.81301         4.27609 
       0.785407         4.12709         3.74679         4.20125 
       0.791564         4.06063         3.68172         4.13537 
       0.797719         3.98861         3.61821         4.05776 
       0.803834         3.93064         3.55658         3.99806 
       0.809972         3.86084         3.49616          3.9494 
       0.816124         3.80097           3.437         3.87497 
       0.822261         3.74686         3.37938         3.81329 
       0.828378         3.68156         3.32325         3.75626 
       0.834502         3.62632         3.26836         3.69445 
       0.840667         3.58213         3.21438         3.64138 
       0.846816          3.5148         3.16178         3.59678 
       0.852925         3.45862         3.11071         3.53888 
       0.859047         3.40754         3.06067         3.49444 
       0.865192         3.35519         3.01159         3.43719 
       0.871341         3.30764         2.96356         3.38713 
       0.877463         3.25194         2.91681         3.33243 
       0.883569         3.20744         2.87119         3.29065 
       0.889708         3.16518         2.82632         3.24346 
       0.895864         3.11903          2.7823         3.19303 
       0.902008          3.0622         2.73932         3.15027 
       0.908149          3.0244         2.69727         3.10568 
       0.914301         2.98729         2.65604         3.06139 
       0.920448         2.94623         2.61571         3.01369 
       0.926574         2.91647         2.57636         2.97863 
       0.932687         2.86681         2.53792         2.92461 
       0.938823         2.81272         2.50012         2.90045 
       0.944975          2.7877         2.46301         2.85004 
       0.951105         2.73197         2.42679          2.8119 
       0.957225         2.70511         2.39137         2.78232 
       0.963368         2.67438         2.35654         2.74039 
       0.969511         2.63999          2.3224         2.70613 
       0.975621         2.59554         2.28913         2.66015 
       0.981748         2.54742         2.25643          2.6272 
       0.987916         2.52113         2.22417         2.60304 
        0.99406         2.49813         2.19266         2.57057 
        1.00019         2.46379         2.16183         2.53945 
        1.00632         2.43847         2.13163         2.50145 
        1.01246         2.40051         2.10196         2.46943 
        1.01859         2.36976         2.07291         2.43845 
        1.02471         2.32936         2.04444         2.40569 
        1.03085         2.30508         2.01642         2.37238 
        1.03698         2.27842         1.98898         2.34429 
        1.04314         2.25087         1.96194         2.31642 
        1.04929         2.22336         1.93547         2.28878 
        1.05541         2.18752         1.90959          2.2645 
        1.06154         2.16852         1.88413         2.23708 
        1.06769         2.14753          1.8591         2.21115 
        1.07382         2.11265          1.8346         2.18274 
        1.07993         2.08481          1.8106         2.15535 
        1.08607         2.06603         1.78694         2.13202 
        1.09222         2.03367         1.76368         2.10267 
        1.09836         2.02181         1.74086         2.07997 
        1.10449         1.98166         1.71847         2.05778 
        1.11063         1.96189         1.69646         2.02867 
        1.11677         1.94223         1.67483         2.00924 
         1.1229         1.91311         1.65363         1.98814 
        1.12903         1.89917         1.63278           1.964 
        1.13518         1.86989         1.61226         1.94246 
        1.14131         1.85004         1.59212         1.91877 
        1.14745         1.82949         1.57233         1.89338 
        1.15359           1.808         1.55287         1.87789 
        1.15973         1.78725         1.53374         1.85665 
        1.16584         1.76631         1.51502         1.83468 
        1.17197         1.74354         1.49658         1.81521 
        1.17811         1.72368         1.47839         1.79659 
        1.18424         1.70436         1.46057         1.77352 
        1.19038         1.68449         1.44298         1.75508 
        1.19652         1.67082         1.42569         1.73927 
        1.20267         1.65523         1.40869         1.71448 
        1.20881         1.63021         1.39197         1.69863 
        1.21495         1.61531         1.37555         1.68612 
        1.22108         1.59856         1.35939         1.66514 
         1.2272         1.57424         1.34354         1.64392 
        1.23334         1.56335          1.3279         1.63001 
        1.23949         1.54638         1.31248         1.61687 
        1.24562         1.52967         1.29734         1.59893 
        1.25174         1.51538         1.28247         1.57838 
        1.25789         1.49359         1.26778         1.56191 
        1.26402         1.47816         1.25336          1.5453 
        1.27014         1.46011         1.23919         1.53208 
        1.27628         1.44847          1.2252         1.51643 
        1.28244         1.43406          1.2114         1.49928 
        1.28858         1.41723         1.19783         1.48262 
        1.29471         1.39972          1.1845         1.46841 
        1.30084         1.38814         1.17139         1.45867 
        1.30697         1.37752         1.15846         1.44295 
        1.31312         1.36161          1.1457         1.42797 
        1.31925         1.34804         1.13318         1.41684 
        1.32537         1.33498         1.12086         1.40206 
        1.33151         1.31927         1.10868         1.38816 
        1.33765         1.30711         1.09668          1.3749 
        1.34378         1.29311         1.08489         1.36308 
        1.34992         1.28353         1.07326         1.34983 
        1.35606         1.26869         1.06178           1.333 
         1.3622         1.25732         1.05049         1.32177 
        1.36833         1.24358         1.03939         1.31258 
        1.37445         1.23088         1.02846         1.29998 
        1.38059         1.21919         1.01765         1.28722 
        1.38675         1.20791         1.00697         1.27287 
        1.39288         1.19753        0.996482         1.26305 
        1.39901          1.1843        0.986152         1.25189 
        1.40515         1.17189        0.975945         1.23834 
         1.4113         1.16587        0.965888         1.22849 
        1.41742         1.15038        0.956011         1.22095 
        1.42355         1.13754        0.946254          1.2032 
         1.4297         1.13101        0.936604         1.19876 
        1.43585         1.11815        0.927093         1.18769 
        1.44198         1.10874         0.91775         1.17156 
        1.44809         1.09811        0.908555         1.16607 
        1.45423         1.08855        0.899451         1.15142 
        1.46036         1.07884         0.89049         1.14233 
        1.46649         1.06546        0.881647         1.13539 
        1.47263         1.05819        0.872918         1.12454 
        1.47877         1.05288        0.864311         1.11286 
        1.48491         1.03598        0.855807         1.10562 
        1.49104         1.03137        0.847436         1.09383 
        1.49718         1.01875        0.839171         1.08687 
        1.50333         1.01139        0.831003         1.07504 
        1.50947         1.00304         0.82296         1.06492 
         1.5156        0.993267        0.815036         1.05795 
        1.52172        0.985658        0.807217         1.04874 
        1.52787         0.97541        0.799485         1.03865 
          1.534        0.969067        0.791864         1.03103 
        1.54013        0.959213        0.784351         1.02244 
        1.54627        0.950519        0.776921         1.01288 
        1.55241          0.9411        0.769587         1.00455 
        1.55855         0.93395        0.762359        0.996774 
        1.56467        0.926168        0.755243        0.989206 
         1.5708         0.91768        0.748198        0.979363 
        1.57695         0.90843        0.741233        0.971828 
        1.58308         0.89969        0.734373        0.966212 
        1.58922        0.895356        0.727595        0.957377 
        1.59535         0.88467        0.720905        0.949051 
         1.6015        0.877152         0.71429        0.940852 
        1.60764        0.871046        0.707762         0.93413 
        1.61376        0.862633        0.701333         0.92851 
        1.61989        0.856473        0.694979        0.920624 
        1.62604        0.846952         0.68869        0.913328 
        1.63218        0.843125        0.682482        0.906629 
        1.63831        0.834501        0.676366        0.899171 
        1.64444        0.827781        0.670322         0.89105 
        1.65059        0.821753        0.664337        0.883961 
        1.65673        0.813366        0.658433        0.877878 
        1.66285         0.80721        0.652616        0.871136 
        1.66898        0.801739        0.646868        0.863294 
        1.67512        0.792257        0.641178        0.857187 
        1.68127        0.785782        0.635552        0.851656 
         1.6874        0.782383        0.630006        0.845456 
        1.69353        0.774293        0.624529        0.838317 
        1.69967        0.768907        0.619104        0.831437 
        1.70581        0.763965        0.613747        0.826124 
        1.71193        0.756181        0.608473        0.820873 
        1.71806        0.750715         0.60325        0.813293 
        1.72421         0.74479        0.598078        0.807408 
        1.73035        0.736034        0.592973        0.801583 
        1.73649        0.734756        0.587929        0.794687 
        1.74262        0.726152        0.582947          0.7889 
        1.74876        0.721593         0.57802        0.784405 
        1.75489        0.716213         0.57316        0.779118 
        1.76101        0.708793        0.568357        0.772486 
        1.76715        0.704324        0.563603        0.766964 
        1.77329        0.699282        0.558898          0.7618 
        1.77943         0.69373        0.554244        0.756121 
        1.78557        0.690178        0.549651        0.750127 
        1.79171        0.684495        0.545108        0.744429 
        1.79785        0.678328        0.540616        0.739314 
        1.80399        0.671921        0.536176        0.734291 
        1.81012        0.667586        0.531791        0.727827 
        1.81625        0.662703        0.527458        0.722598 
        1.82239        0.658064        0.523166        0.719437 
        1.82853         0.65277        0.518924        0.715578 
        1.83466        0.647353        0.514734        0.710135 
        1.84078        0.642135        0.510594        0.704169 
        1.84692        0.638226        0.506493        0.699367 
        1.85306        0.634422        0.502432        0.694145 
         1.8592        0.628232        0.498422        0.689088 
        1.86533         0.62478        0.494458        0.685101 
        1.87147        0.617863        0.490533        0.679896 
