# k  (h/Mpc)    Pcb(k)  (Mpc/h)^3    Pcb_linear(k) (Mpc/h)^3    Pcb_NL(k) (Mpc/h)^3   ShotnoiseSubtracted = false
     0.00783031         9062.23         9107.65         9072.42 
       0.013688         11161.5         11401.9         11339.9 
       0.019231           11562           11700         11617.6 
      0.0249154         10966.2         10948.1         10869.5 
      0.0312784         9491.88         9561.65         9490.99 
      0.0375637            8043         8149.64         8088.65 
      0.0433917         7031.51         7052.36         6992.06 
      0.0492413         6171.56         6228.32         6174.15 
      0.0555754         5606.66         5615.56         5566.91 
      0.0619321         5056.65         5197.55         5149.34 
       0.067871         4815.49         4886.81         4839.76 
      0.0738098         4535.13         4577.13         4503.18 
      0.0800417            4182          4209.6         4141.25 
      0.0862327         3759.51          3799.7         3762.15 
      0.0921407         3376.22         3395.45         3367.92 
      0.0982031         3035.86         3007.18          3018.3 
       0.104506         2669.96         2667.11         2709.95 
       0.110769         2433.92         2410.24         2441.69 
       0.116806         2301.44         2235.93         2266.71 
       0.122832         2157.58         2116.88          2151.1 
       0.129052         2063.13         2026.71         2054.55 
       0.135211         2007.13         1944.92         1967.62 
       0.141259         1884.59         1853.58         1883.48 
       0.147318         1754.03         1743.29         1788.11 
       0.153489         1644.75         1614.55         1645.88 
       0.159709         1551.02         1479.04         1533.23 
       0.165845         1401.76         1352.87         1440.99 
       0.171974         1346.71          1244.8         1337.14 
       0.178125          1277.5         1159.45         1272.83 
       0.184229         1182.28         1097.05            1205 
        0.19034         1157.89         1051.82         1154.13 
       0.196428         1124.27         1016.57         1104.28 
       0.202534         1057.61         983.435         1070.78 
       0.208729         1041.64         946.119         1024.16 
       0.214876          999.83         902.599         998.479 
       0.220989         936.239         853.499         959.317 
       0.227147         909.244          801.33         914.936 
        0.23329         868.682         750.756         880.029 
       0.239377         848.756         705.731         839.704 
       0.245482         802.224         667.786         795.759 
       0.251667         769.558         637.072           771.9 
       0.257832         759.442          612.97         742.741 
       0.263955          720.73         593.208         718.091 
       0.270079         698.026         575.073         697.315 
        0.27624         669.783          556.37         674.993 
       0.282372         656.346         536.032         657.376 
        0.28843         650.148         514.126         637.735 
       0.294538          616.22         490.917         619.918 
       0.300721         596.863         467.542         601.617 
        0.30691         585.469         445.548         585.781 
       0.313033         558.571         426.105         563.759 
       0.319153         548.839         409.353         547.189 
       0.325316         538.499         394.988         534.466 
        0.33145         526.043         382.595          514.76 
       0.337538         507.369         371.374         502.481 
       0.343633         492.566         360.461         496.394 
       0.349808         480.693         349.204         486.581 
       0.355968         471.164         337.519         477.165 
       0.362074         455.891         325.622         465.498 
       0.368217         452.358         313.615          450.91 
       0.374374         442.872          301.98         440.684 
       0.380519         424.953          291.11         429.384 
       0.386598         419.717         281.287         422.295 
       0.392688         409.543         272.439         410.581 
        0.39888         398.977         264.291         402.278 
       0.405048         391.431         256.821         396.837 
       0.411186         389.309         249.759         386.345 
       0.417313         383.081          242.84         377.525 
       0.423458         372.504         235.922         371.477 
       0.429607          362.65         228.976         364.329 
       0.435692         356.464         222.128         356.717 
       0.441815          350.42         215.387         353.274 
       0.447964          341.78         208.886         346.197 
       0.454126         337.239         202.717         336.688 
       0.460267         332.125         196.978         334.077 
       0.466387         325.915         191.651         327.245 
        0.47254         321.429         186.619         322.087 
       0.478662         313.276          181.86         315.861 
       0.484765          309.58         177.292         308.921 
       0.490885         305.863         172.818         305.068 
       0.497035         300.344         168.385         301.331 
       0.503198         298.669         164.011         296.706 
       0.509342         290.945         159.749         292.953 
       0.515458         286.792         155.625         290.017 
       0.521598         281.081         151.631         284.041 
       0.527764         277.581         147.795         279.903 
       0.533884         276.351         144.176         276.219 
           0.54         271.101         140.733         271.901 
       0.546137         265.071         137.421         268.822 
       0.552299         263.777         134.217          264.15 
       0.558452         259.177         131.117         260.876 
       0.564573         257.123         128.118         258.602 
       0.570708         252.215         125.183          255.55 
       0.576825         248.258          122.32         250.525 
       0.582926         245.981         119.534           247.7 
       0.589034         242.286         116.826         245.105 
       0.595184         240.437         114.191         240.696 
       0.601379         236.209         111.636           239.3 
       0.607522          231.53         109.194         235.856 
       0.613639          230.12         106.845         233.622 
       0.619772         228.451         104.566         231.036 
       0.625918         225.524         102.353         228.212 
       0.632068         221.392         100.204         224.659 
       0.638161         219.571         98.1334         223.579 
         0.6443         217.817          96.102         220.898 
       0.650464          213.88         94.1143         216.842 
       0.656582         212.194         92.1909         215.192 
       0.662703         210.411         90.3174          213.25 
       0.668861         206.358         88.4854         210.912 
       0.675024         205.946         86.7057         208.369 
       0.681124           203.2         84.9982           206.2 
       0.687237         201.019         83.3389         203.886 
       0.693381         198.563         81.7198         201.631 
       0.699536         196.702         80.1428         199.871 
       0.705665         194.529         78.6144         198.713 
       0.711789         192.346         77.1255         196.057 
       0.717957         190.238         75.6625         194.241 
        0.72409         188.204         74.2436         193.156 
       0.730186         188.707         72.8686         191.291 
       0.736317         185.476         71.5205         188.859 
       0.742472             183         70.2019         187.167 
       0.748622         180.339         68.9189         185.059 
        0.75476         181.011         67.6724         183.767 
       0.760888         178.622         66.4599         181.348 
       0.767043         175.835         65.2735          180.32 
       0.773185         174.347         64.1193         179.216 
       0.779291         172.141              63         177.223 
       0.785407          171.11         61.9059         175.294 
       0.791564         169.594         60.8308         174.195 
       0.797719         167.115         59.7814         173.194 
       0.803834           167.5         58.7632         171.226 
       0.809972         165.815         57.7649         169.853 
       0.816124         163.254         56.7875         168.657 
       0.822261         161.892         55.8354         167.114 
       0.828378         161.666          54.908          165.18 
       0.834502         159.224         54.0012         164.233 
       0.840667         158.837         53.1092         163.298 
       0.846816         156.704         52.2401         161.778 
       0.852925         155.499         51.3963         160.476 
       0.859047         153.911         50.5696         159.257 
       0.865192         153.363         49.7586         158.083 
       0.871341         151.541          48.965         156.563 
       0.877463         150.287         48.1926         155.744 
       0.883569         150.072         47.4389          154.75 
       0.889708         148.555         46.6975         153.467 
       0.895864         147.155         45.9702         152.681 
       0.902008         145.616           45.26         151.065 
       0.908149          144.03         44.5653         149.763 
       0.914301         143.709          43.884         148.962 
       0.920448         143.282         43.2177         147.977 
       0.926574         140.899         42.5677         146.421 
       0.932687         140.608         41.9324         145.434 
       0.938823         139.521         41.3079          144.73 
       0.944975         138.251         40.6948         143.774 
       0.951105         136.982         40.0964         142.545 
       0.957225         136.519         39.5111         141.634 
       0.963368         135.163         38.9356         140.174 
       0.969511          133.88         38.3716          139.41 
       0.975621         132.701         37.8219         139.573 
       0.981748         131.832         37.2816         138.149 
       0.987916         131.112         36.7485         137.323 
        0.99406         130.366          36.228         136.214 
        1.00019         129.268         35.7186         135.104 
        1.00632         128.367         35.2195         134.186 
        1.01246         127.404         34.7293         133.059 
        1.01859         126.604         34.2493         132.703 
        1.02471         125.683          33.779         132.263 
        1.03085         124.654          33.316         131.162 
        1.03698         123.672         32.8627         130.098 
        1.04314         123.124         32.4159         129.433 
        1.04929          122.49         31.9785          128.84 
        1.05541         121.581          31.551         128.114 
        1.06154         120.589         31.1303         127.417 
        1.06769         119.801         30.7167         126.663 
        1.07382         119.089         30.3119          125.87 
        1.07993         118.268         29.9155         125.041 
        1.08607         117.418         29.5245         124.364 
        1.09222         116.711         29.1401         123.621 
        1.09836         115.777         28.7631          122.72 
        1.10449         114.974         28.3932         122.046 
        1.11063         114.226         28.0295         121.005 
        1.11677          113.54         27.6722         120.439 
         1.1229         112.622         27.3219         119.995 
        1.12903         112.074         26.9773         119.123 
        1.13518         111.218         26.6384          118.49 
        1.14131         110.589         26.3056         117.664 
        1.14745         109.973         25.9786          117.13 
        1.15359         108.736         25.6571         116.355 
        1.15973         108.443          25.341         116.133 
        1.16584         107.739         25.0317         115.027 
        1.17197         107.151          24.727         114.605 
        1.17811         106.179         24.4266         114.035 
        1.18424         105.634          24.132         113.427 
        1.19038         105.223         23.8415         112.788 
        1.19652         104.405         23.5558         112.098 
        1.20267         103.693         23.2749         111.495 
        1.20881         102.978         22.9986         110.941 
        1.21495         102.465         22.7273         110.108 
        1.22108         101.912         22.4604         109.886 
         1.2272         101.047         22.1985         109.078 
        1.23334         100.802         21.9401         108.745 
        1.23949         100.158         21.6852         107.834 
        1.24562         99.2797         21.4352         107.309 
        1.25174          98.718         21.1894         106.831 
        1.25789         98.2157         20.9468         106.276 
        1.26402         97.7794         20.7084         105.776 
        1.27014         97.1053         20.4743         105.608 
        1.27628          96.199         20.2432         105.092 
        1.28244         96.0954         20.0152         104.001 
        1.28858         95.1463          19.791         103.471 
        1.29471         94.6187         19.5708         103.163 
        1.30084         93.9513         19.3542         102.423 
        1.30697         93.7227         19.1405          102.08 
        1.31312         92.9954         18.9297         101.596 
        1.31925         92.3731         18.7228         101.006 
        1.32537         91.9658         18.5192         100.575 
        1.33151         91.6944          18.318         100.004 
        1.33765         90.8528         18.1198         99.5892 
        1.34378         90.5388          17.925         99.0721 
        1.34992         90.1506         17.7329         98.5805 
        1.35606         89.4349         17.5432         98.0262 
         1.3622         89.2488         17.3566            97.6 
        1.36833         88.3081         17.1732         96.9875 
        1.37445         87.9382         16.9925         96.5112 
        1.38059         87.5275         16.8139         96.2097 
        1.38675         86.7083         16.6375         95.4855 
        1.39288          86.429         16.4642          95.222 
        1.39901         85.7269         16.2936         94.8203 
        1.40515         85.3807         16.1249         94.4803 
         1.4113         84.9976         15.9587         94.0992 
        1.41742         84.3477         15.7956         93.4656 
        1.42355         84.1096         15.6343         92.8868 
         1.4297         83.4893         15.4749         92.5399 
        1.43585         82.9795         15.3178         92.0815 
        1.44198         82.4864         15.1634         91.7796 
        1.44809         81.8494         15.0115         91.1739 
        1.45423         81.7268         14.8611         90.7702 
        1.46036         81.0524          14.713         90.4435 
        1.46649         80.5138         14.5669         90.1422 
        1.47263         80.2462         14.4227          89.717 
        1.47877         79.7657         14.2805         89.0078 
        1.48491         79.2749           14.14         88.8388 
        1.49104         78.5848         14.0016         88.4084 
        1.49718         78.4205         13.8651         87.9048 
        1.50333         78.0135         13.7301         87.4674 
        1.50947         77.7001         13.5972         87.0669 
         1.5156         77.3598         13.4663         86.7257 
        1.52172         76.6486         13.3371         86.3966 
        1.52787         76.2427         13.2094         85.9736 
          1.534         75.8344         13.0835         85.6302 
        1.54013         75.5974         12.9593         85.1831 
        1.54627         74.8936         12.8366         84.8029 
        1.55241         74.6848         12.7154         84.4931 
        1.55855         74.1299          12.596         83.9717 
        1.56467         73.4975         12.4784         83.6341 
         1.5708         73.2849          12.362         83.3757 
        1.57695         72.9313         12.2469         83.0303 
        1.58308         72.5628         12.1336         82.6655 
        1.58922         72.2887         12.0216         82.2475 
        1.59535         72.0087          11.911         81.8555 
         1.6015         71.5551         11.8018         81.4482 
        1.60764         71.0935         11.6939          81.211 
        1.61376          70.681         11.5877         81.0622 
        1.61989         70.1776         11.4827          80.587 
        1.62604         69.9482         11.3788         80.0522 
        1.63218         69.6559         11.2762         79.7015 
        1.63831         69.2391         11.1752         79.5141 
        1.64444         68.9394         11.0753         79.1477 
        1.65059         68.4571         10.9764         78.6121 
        1.65673         68.0407         10.8789          78.362 
        1.66285         67.5777         10.7828         78.1581 
        1.66898         67.1912         10.6878         77.7341 
        1.67512         66.9388         10.5938         77.4865 
        1.68127         66.6822         10.5008         77.0786 
         1.6874         66.2243         10.4092         76.6415 
        1.69353         65.8335         10.3187         76.4905 
        1.69967         65.6059         10.2291         76.2092 
        1.70581         65.2161         10.1405         75.8199 
        1.71193         64.8075         10.0534         75.4872 
        1.71806         64.4511         9.96711         75.2729 
        1.72421         64.2141         9.88166         74.9118 
        1.73035         63.9361         9.79731          74.553 
        1.73649         63.4666         9.71396         74.2893 
        1.74262         62.9927         9.63165         73.9778 
        1.74876         62.8702         9.55024         73.6406 
        1.75489         62.4139         9.46995         73.3297 
        1.76101         62.0564          9.3906         73.0229 
        1.76715         61.8678         9.31205         72.6471 
        1.77329         61.4101         9.23431         72.3922 
        1.77943         61.2352         9.15742         72.1335 
        1.78557         60.9025         9.08152         71.7194 
        1.79171         60.5564         9.00646         71.4162 
        1.79785         60.2066         8.93225         71.2037 
        1.80399         59.9161         8.85888         70.9286 
        1.81012         59.5888         8.78644         70.6312 
        1.81625         59.3201         8.71484         70.3156 
        1.82239         59.0105         8.64393         70.0474 
        1.82853         58.5851         8.57384         69.8814 
        1.83466         58.3433          8.5046         69.5434 
        1.84078         58.0614          8.4362         69.1523 
        1.84692         57.8911         8.36845         69.0629 
        1.85306         57.5157         8.30135         68.7829 
         1.8592         57.2168          8.2351         68.3701 
        1.86533         56.8836         8.16961         68.1664 
        1.87147         56.5928         8.10475         67.8402 
