# k  (h/Mpc)    Pcb(k)  (Mpc/h)^3    Pcb_linear(k) (Mpc/h)^3    Pcb_NL(k) (Mpc/h)^3   ShotnoiseSubtracted = false
     0.00783031         16380.2         16450.4         16379.3 
       0.013688           20030         20590.1         20451.5 
       0.019231         20774.3         21126.6         20934.2 
      0.0249154         19780.2         19767.7         19557.8 
      0.0312784         17039.3         17263.8         17042.4 
      0.0375637         14405.1           14714           14516 
      0.0433917         12620.2         12732.7         12527.1 
      0.0492413         11061.6         11244.8         11055.3 
      0.0555754         10047.8         10138.4         9971.08 
      0.0619321         9000.99         9383.67         9220.17 
       0.067871         8583.19         8822.62         8667.34 
      0.0738098         8111.62         8263.49         8025.52 
      0.0800417         7468.12         7599.93         7380.73 
      0.0862327          6716.2         6859.89         6733.77 
      0.0921407            6059         6130.06         6034.05 
      0.0982031         5480.67         5429.07         5446.35 
       0.104506         4828.55         4815.11         4927.09 
       0.110769         4422.62         4351.36         4436.89 
       0.116806          4193.5         4036.67         4120.62 
       0.122832         3943.65         3821.72         3914.03 
       0.129052          3743.6         3658.94         3735.98 
       0.135211         3662.98         3511.28         3569.04 
       0.141259         3420.85         3346.37         3429.15 
       0.147318         3193.89         3147.26         3264.01 
       0.153489         3006.47         2914.84         3001.79 
       0.159709         2871.66         2670.18         2821.73 
       0.165845         2609.49          2442.4         2683.05 
       0.171974         2518.54          2247.3         2508.97 
       0.178125         2419.52         2093.22         2410.11 
       0.184229         2225.17         1980.55         2277.96 
        0.19034         2195.66          1898.9         2184.51 
       0.196428         2137.46         1835.25         2093.55 
       0.202534          2017.4         1775.44         2031.79 
       0.208729         1983.04         1708.07         1936.27 
       0.214876         1897.67          1629.5         1895.72 
       0.220989         1804.54         1540.86         1836.82 
       0.227147          1751.2         1446.68         1772.09 
        0.23329          1678.7         1355.37         1715.25 
       0.239377         1664.62         1274.09         1642.66 
       0.245482         1583.61         1205.58         1565.35 
       0.251667         1525.13         1150.13         1523.04 
       0.257832         1499.43         1106.62         1468.59 
       0.263955         1433.69         1070.94         1424.39 
       0.270079         1398.15         1038.21         1385.62 
        0.27624         1340.79         1004.44         1346.04 
       0.282372         1325.89         967.721         1321.83 
        0.28843         1301.62         928.174         1293.87 
       0.294538         1242.73         886.275         1258.56 
       0.300721         1219.34         844.074         1221.22 
        0.30691         1188.43         804.368         1201.94 
       0.313033         1142.57         769.266         1161.38 
       0.319153         1129.97         739.023            1127 
       0.325316         1115.69         713.088            1106 
        0.33145         1090.75         690.715          1066.2 
       0.337538         1055.48         670.457         1048.27 
       0.343633         1031.64         650.755         1037.15 
       0.349808         1013.22         630.433         1020.97 
       0.355968         992.487         609.338         1003.84 
       0.362074         962.229          587.86         985.204 
       0.368217         959.318         566.182          960.37 
       0.374374         944.263         545.178          941.82 
       0.380519          911.25         525.552         921.695 
       0.386598         906.365         507.818         909.658 
       0.392688         882.516         491.845         886.985 
        0.39888         865.411         477.136         872.934 
       0.405048         847.552          463.65         858.676 
       0.411186         845.336         450.901          842.17 
       0.417313         839.973         438.408         830.876 
       0.423458         815.331         425.919         817.656 
       0.429607         793.519         413.379         803.541 
       0.435692         786.097         401.016         787.198 
       0.441815         770.986         388.847         783.548 
       0.447964          761.52          377.11         772.345 
       0.454126         751.744         365.974         750.619 
       0.460267         742.174         355.612         748.619 
       0.466387         728.915         345.996         734.864 
        0.47254         717.913         336.911         724.659 
       0.478662         707.278         328.319         713.167 
       0.484765         699.375         320.073          704.48 
       0.490885         692.014         311.995         692.106 
       0.497035         678.294         303.991         685.719 
       0.503198         677.288         296.097         677.707 
       0.509342         664.653         288.401         666.736 
       0.515458         651.458         280.956         662.284 
       0.521598         649.779         273.746         654.699 
       0.527764         634.603          266.82         647.776 
       0.533884         627.924         260.287         639.754 
           0.54         623.217         254.071         631.308 
       0.546137           614.2         248.093         623.677 
       0.552299         610.504         242.307         615.153 
       0.558452         602.369         236.711         610.339 
       0.564573         598.501         231.297         605.274 
       0.570708         591.592         225.998         598.473 
       0.576825         579.897          220.83         589.447 
       0.582926         578.246           215.8         584.822 
       0.589034         569.858          210.91         575.854 
       0.595184         564.001         206.154         570.432 
       0.601379         555.476         201.541         565.029 
       0.607522         546.705         197.132          557.09 
       0.613639         545.971         192.891         555.414 
       0.619772         541.736         188.778         553.873 
       0.625918          532.64         184.783          545.22 
       0.632068         530.249         180.902         541.743 
       0.638161         523.434         177.164         533.899 
         0.6443         517.468         173.497          529.98 
       0.650464         513.098         169.908         521.722 
       0.656582         508.919         166.436         518.725 
       0.662703         503.442         163.054         515.624 
       0.668861         496.882         159.746         512.676 
       0.675024           494.8         156.533         508.575 
       0.681124         484.833         153.451         500.345 
       0.687237         484.866         150.455         495.948 
       0.693381         477.022         147.532         491.763 
       0.699536         477.354         144.685         488.496 
       0.705665         469.893         141.926         482.396 
       0.711789         468.791         139.238         479.239 
       0.717957         462.389         136.597          478.14 
        0.72409         458.198         134.035         472.807 
       0.730186         457.761         131.553         468.096 
       0.736317         450.534         129.119         464.449 
       0.742472         446.285         126.738         460.578 
       0.748622         444.639         124.422         456.359 
        0.75476         439.082         122.172         457.196 
       0.760888         436.844         119.983         450.985 
       0.767043         433.581         117.841         446.297 
       0.773185         429.871         115.757         443.374 
       0.779291         425.499         113.736         439.494 
       0.785407         422.278         111.761         437.215 
       0.791564         420.017          109.82         434.645 
       0.797719         413.356         107.926         430.181 
       0.803834         414.407         106.088         428.288 
       0.809972          407.62         104.285         425.311 
       0.816124         404.531         102.521         419.622 
       0.822261         401.796         100.802         417.999 
       0.828378         399.979         99.1277         414.869 
       0.834502         393.311         97.4904         413.291 
       0.840667         392.858         95.8801         409.391 
       0.846816         388.261         94.3111         406.599 
       0.852925         388.225         92.7878         404.187 
       0.859047         383.857         91.2953         400.763 
       0.865192         381.706         89.8312         397.629 
       0.871341         376.831         88.3985         395.604 
       0.877463         375.909          87.004         393.039 
       0.883569          372.36         85.6433         391.347 
       0.889708         368.397         84.3049          387.42 
       0.895864         364.401         82.9919         385.252 
       0.902008         363.418         81.7097         382.497 
       0.908149         359.813         80.4554         379.109 
       0.914301         358.414         79.2256         376.193 
       0.920448         354.228         78.0227         374.598 
       0.926574         352.408         76.8491         371.809 
       0.932687         351.243         75.7022         369.074 
       0.938823         347.154         74.5748          368.53 
       0.944975         346.161         73.4679          365.23 
       0.951105         342.783         72.3875         362.508 
       0.957225         338.644         71.3309         360.584 
       0.963368         338.959         70.2919         358.484 
       0.969511         333.633         69.2737         356.122 
       0.975621         331.831         68.2813          353.67 
       0.981748          330.62         67.3059         351.717 
       0.987916         328.269         66.3435         350.023 
        0.99406         324.734         65.4038         347.683 
        1.00019         321.739         64.4842         344.439 
        1.00632          321.24         63.5832         342.375 
        1.01246         318.248         62.6982          339.87 
        1.01859         315.289         61.8316         337.738 
        1.02471         313.412         60.9826         336.319 
        1.03085         312.135         60.1467         335.036 
        1.03698         310.095         59.3283         333.643 
        1.04314         307.941         58.5217         330.987 
        1.04929         306.523         57.7321         328.122 
        1.05541          303.14         56.9603         326.175 
        1.06154         300.962         56.2008         324.627 
        1.06769         298.563          55.454         322.441 
        1.07382         296.061         54.7233         320.556 
        1.07993         295.324         54.0076         319.081 
        1.08607          293.67         53.3017         316.546 
        1.09222         290.665         52.6078          314.83 
        1.09836         289.238         51.9272         313.735 
        1.10449         287.214         51.2594         311.851 
        1.11063          285.61         50.6027         309.581 
        1.11677         282.355         49.9578         307.689 
         1.1229         281.775         49.3253         306.129 
        1.12903         279.015         48.7032         304.666 
        1.13518         277.252         48.0914          302.42 
        1.14131         275.855         47.4905         300.912 
        1.14745         273.015         46.9002          298.82 
        1.15359         270.883         46.3199         297.669 
        1.15973         269.581         45.7491          295.89 
        1.16584         267.884         45.1906         294.373 
        1.17197         266.248         44.6407         293.058 
        1.17811          263.32         44.0983         291.179 
        1.18424         262.311         43.5665         289.563 
        1.19038         260.977         43.0419         288.574 
        1.19652         258.136         42.5263         286.411 
        1.20267          257.29         42.0191         284.693 
        1.20881         255.403         41.5203         283.419 
        1.21495         253.832         41.0305         281.495 
        1.22108         252.256         40.5487         279.652 
         1.2272         249.219         40.0757         278.084 
        1.23334         248.242         39.6093          276.69 
        1.23949         246.678         39.1492         275.577 
        1.24562         245.384         38.6977         273.788 
        1.25174         243.964         38.2541         272.481 
        1.25789         241.473         37.8161           270.8 
        1.26402         240.745         37.3857         269.992 
        1.27014         239.284         36.9631         268.035 
        1.27628         237.567         36.5458          267.38 
        1.28244         235.218         36.1342         266.115 
        1.28858         234.351         35.7295         264.309 
        1.29471         232.771          35.332          262.03 
        1.30084          232.21         34.9408         260.999 
        1.30697          229.47         34.5551         260.006 
        1.31312         228.181         34.1746         258.212 
        1.31925         226.855         33.8011         256.929 
        1.32537         225.907         33.4335         255.428 
        1.33151         223.672         33.0701         254.265 
        1.33765         221.995         32.7124         253.091 
        1.34378         221.359         32.3606          251.78 
        1.34992         218.898         32.0138         250.114 
        1.35606          217.96         31.6714         248.564 
         1.3622         216.155         31.3346         247.778 
        1.36833         215.773         31.0034         246.771 
        1.37445         214.754         30.6773          244.43 
        1.38059         211.949         30.3548         243.866 
        1.38675         210.577         30.0362         242.954 
        1.39288         209.905         29.7235         240.748 
        1.39901         207.856         29.4154         239.784 
        1.40515         206.986         29.1109         238.574 
         1.4113         205.494         28.8109         237.125 
        1.41742         203.899         28.5163         236.132 
        1.42355         203.123         28.2253         234.783 
         1.4297          201.69         27.9374         233.515 
        1.43585          200.54         27.6537          232.85 
        1.44198         198.987         27.3751         231.477 
        1.44809         197.958         27.1008         230.419 
        1.45423         196.727         26.8292         228.566 
        1.46036         195.794         26.5619         227.689 
        1.46649         194.231         26.2982         226.941 
        1.47263         192.969         26.0378         225.552 
        1.47877         191.759         25.7811         224.108 
        1.48491         190.287         25.5274         222.792 
        1.49104         188.436         25.2777         222.103 
        1.49718         187.966         25.0312         221.191 
        1.50333         186.298         24.7875         219.939 
        1.50947         185.256         24.5476         218.981 
         1.5156         184.201         24.3113         217.815 
        1.52172         183.023          24.078         216.219 
        1.52787         181.895         23.8474         215.501 
          1.534         181.281         23.6201         214.471 
        1.54013         179.548          23.396         213.367 
        1.54627         178.802         23.1744         212.588 
        1.55241         177.714         22.9556         211.573 
        1.55855         176.465           22.74         210.246 
        1.56467         175.424         22.5277         209.144 
         1.5708         173.924         22.3176         208.157 
        1.57695         173.289         22.1098         207.134 
        1.58308         172.166         21.9052          206.11 
        1.58922         170.786          21.703         205.064 
        1.59535          169.58         21.5035         204.231 
         1.6015         168.838         21.3062         203.299 
        1.60764         167.444         21.1114         202.164 
        1.61376         166.342         20.9197         201.134 
        1.61989         165.346         20.7301         200.201 
        1.62604         164.575         20.5425         199.089 
        1.63218         163.381         20.3574         198.156 
        1.63831         162.642         20.1749         197.377 
        1.64444         161.134         19.9947         196.361 
        1.65059         160.343         19.8161         195.568 
        1.65673         159.338           19.64         194.541 
        1.66285         158.344         19.4665         193.434 
        1.66898         157.508         19.2951         192.562 
        1.67512         156.302         19.1253         191.712 
        1.68127         155.457         18.9575         190.887 
         1.6874         154.435         18.7921         190.039 
        1.69353          153.78         18.6287          189.08 
        1.69967         152.485         18.4669         188.111 
        1.70581         151.873         18.3071          187.34 
        1.71193         150.683         18.1498         186.493 
        1.71806         149.649          17.994         185.203 
        1.72421         148.754         17.8397         184.442 
        1.73035         147.806         17.6875         183.757 
        1.73649         146.663          17.537          182.79 
        1.74262         145.953         17.3884         181.937 
        1.74876         145.214         17.2414         181.134 
        1.75489         144.633         17.0965         180.334 
        1.76101         143.385         16.9532          179.56 
        1.76715         142.438         16.8114           178.8 
        1.77329         141.398          16.671          177.86 
        1.77943         140.532         16.5322         176.889 
        1.78557         139.543         16.3952         176.095 
        1.79171         138.973         16.2597         175.326 
        1.79785         137.875         16.1257         174.515 
        1.80399         137.193         15.9933         173.713 
        1.81012         136.722         15.8625         173.045 
        1.81625         135.259         15.7332         172.256 
        1.82239         134.941         15.6052         171.302 
        1.82853         133.798         15.4787         170.442 
        1.83466          132.67         15.3537         169.569 
        1.84078         132.194         15.2302         168.798 
        1.84692         131.539         15.1079         168.309 
        1.85306         130.537         14.9867         167.382 
         1.8592         129.896         14.8671         166.393 
        1.86533         128.669         14.7489          166.02 
        1.87147          127.92         14.6318         165.513 
