# k  (h/Mpc)    Pcb(k)  (Mpc/h)^3    Pcb_linear(k) (Mpc/h)^3    Pcb_NL(k) (Mpc/h)^3   ShotnoiseSubtracted = false
     0.00783031          6075.9         6109.11         6086.34 
       0.013688         7511.16         7648.97         7611.22 
       0.019231         7774.78         7849.43         7800.56 
      0.0249154         7357.95         7345.19         7302.82 
      0.0312784         6383.57         6415.15         6382.18 
      0.0375637         5415.95         5467.87         5440.62 
      0.0433917         4728.41         4731.71         4706.42 
      0.0492413         4153.86         4178.86         4156.81 
      0.0555754         3771.78         3767.75         3747.49 
      0.0619321         3415.46         3487.29         3466.97 
       0.067871         3248.07         3278.81         3258.18 
      0.0738098          3054.4         3071.04         3037.81 
      0.0800417          2817.4         2824.45         2793.77 
      0.0862327         2533.29         2549.43          2533.2 
      0.0921407          2270.6          2278.2         2267.02 
      0.0982031         2035.61         2017.69         2024.89 
       0.104506         1790.03         1789.52          1811.7 
       0.110769         1628.15         1617.17         1633.55 
       0.116806         1535.49         1500.22         1516.15 
       0.122832         1439.44         1420.34         1437.97 
       0.129052            1380         1359.84         1374.13 
       0.135211         1338.11         1304.96         1317.09 
       0.141259         1260.23         1243.68         1258.84 
       0.147318         1173.26         1169.68         1192.74 
       0.153489         1097.71          1083.3          1099.3 
       0.159709         1027.83         992.374         1019.37 
       0.165845          928.19         907.722          951.64 
       0.171974         886.748         835.211         880.355 
       0.178125         835.804         777.946         833.408 
       0.184229          777.24         736.076         789.476 
        0.19034         758.241         705.731          755.97 
       0.196428         734.798         682.076         724.066 
       0.202534         692.713         659.847         701.711 
       0.208729         680.803         634.809         672.726 
       0.214876         654.551         605.609         653.004 
       0.220989         609.934         572.665         624.654 
       0.227147         591.168         537.661         592.701 
        0.23329         563.095         503.728         567.085 
       0.239377         544.707         473.518         539.778 
       0.245482         514.081         448.059         510.562 
       0.251667         491.555         427.451         493.708 
       0.257832         484.899         411.279         474.903 
       0.263955         459.677          398.02         458.801 
       0.270079         444.605         385.852         445.023 
        0.27624         426.879         373.303         430.107 
       0.282372          416.28         359.657         417.948 
        0.28843         412.241         344.959         404.154 
       0.294538         391.022         329.387         391.659 
       0.300721         375.604         313.703         379.387 
        0.30691         368.183         298.946         367.116 
       0.313033         351.039         285.901         352.643 
       0.319153         344.146          274.66         342.063 
       0.325316          334.77         265.022         333.322 
        0.33145         326.039         256.707         321.255 
       0.337538         315.101         249.178         312.524 
       0.343633          305.41         241.855         307.403 
       0.349808         297.225         234.303         300.717 
       0.355968         290.442         226.463         294.399 
       0.362074         282.589          218.48         286.304 
       0.368217         278.138         210.424         276.661 
       0.374374         271.219         202.617         269.827 
       0.380519         259.812         195.324         262.216 
       0.386598         255.263         188.733         256.468 
       0.392688         248.449         182.796         249.992 
        0.39888         242.892         177.329         243.504 
       0.405048         237.897         172.317         239.655 
       0.411186         235.089         167.579         233.921 
       0.417313         229.875         162.936         227.529 
       0.423458          224.01         158.295         223.307 
       0.429607         218.828         153.634         218.858 
       0.435692         214.747         149.039         214.155 
       0.441815         210.002         144.517         211.462 
       0.447964         203.802         140.155         206.453 
       0.454126          200.33         136.016         200.651 
       0.460267         198.135         132.165         198.387 
       0.466387         193.839         128.591         193.935 
        0.47254         191.483         125.214         190.503 
       0.478662         185.344         122.021         186.812 
       0.484765         182.938         118.956         182.195 
       0.490885         179.806         115.954         179.917 
       0.497035         177.764          112.98         177.455 
       0.503198         174.811         110.046         174.258 
       0.509342         170.141         107.185         171.694 
       0.515458         168.023         104.418         169.791 
       0.521598         163.968         101.739         165.673 
       0.527764         162.271         99.1648         162.351 
       0.533884          161.38         96.7366         160.119 
           0.54          157.15         94.4264         157.618 
       0.546137         153.589         92.2046         155.781 
       0.552299         151.861         90.0544          152.47 
       0.558452         149.089         87.9748         150.033 
       0.564573         148.292         85.9626         148.585 
       0.570708         144.382          83.993         146.366 
       0.576825         142.657         82.0723         143.668 
       0.582926         141.104          80.203         141.612 
       0.589034         138.813         78.3857          140.23 
       0.595184         137.338         76.6182         137.765 
       0.601379          134.26         74.9035         136.574 
       0.607522          131.95         73.2648         133.862 
       0.613639          130.82         71.6889         132.496 
       0.619772         128.948         70.1601         130.336 
       0.625918         127.858         68.6752         129.109 
       0.632068         125.148          67.233         126.944 
       0.638161         123.463         65.8438         126.012 
         0.6443         122.836         64.4809         124.043 
       0.650464         120.341         63.1472          121.67 
       0.656582         119.754         61.8566         120.905 
       0.662703         118.196         60.5996         119.018 
       0.668861         115.726         59.3704         117.793 
       0.675024          115.67         58.1763         116.104 
       0.681124         113.747         57.0306         114.817 
       0.687237         111.833         55.9173         113.361 
       0.693381         111.063         54.8309         111.875 
       0.699536          109.65         53.7728         111.101 
       0.705665         108.128         52.7473         110.208 
       0.711789         106.707         51.7483         108.069 
       0.717957         105.427         50.7667         107.187 
        0.72409          104.61         49.8147           106.6 
       0.730186         104.023         48.8921         105.319 
       0.736317         102.197         47.9876         103.772 
       0.742472         100.871         47.1028         102.777 
       0.748622         99.3003          46.242         101.551 
        0.75476         99.1255         45.4056          100.39 
       0.760888         98.3572         44.5921         99.1267 
       0.767043         96.4679         43.7961         98.6993 
       0.773185          95.303         43.0216         97.9748 
       0.779291         94.2605         42.2706         96.8398 
       0.785407         93.1555         41.5366         95.4954 
       0.791564         92.8707         40.8152          94.688 
       0.797719         91.6597         40.1111         94.0739 
       0.803834         90.9643         39.4279         92.7396 
       0.809972         90.2985         38.7581         91.9591 
       0.816124         89.1297         38.1023         91.3896 
       0.822261          87.976         37.4634         90.2651 
       0.828378         87.7647         36.8412         89.0562 
       0.834502          86.448         36.2328         88.7322 
       0.840667         85.9048         35.6343         88.1531 
       0.846816         85.0893         35.0512         87.1843 
       0.852925          84.111          34.485         86.3486 
       0.859047         83.7071         33.9303         85.4271 
       0.865192         82.5411         33.3862         84.9166 
       0.871341         81.6809         32.8537         84.0033 
       0.877463         81.1553         32.3354         83.4279 
       0.883569          80.894         31.8297         82.8722 
       0.889708         80.0974         31.3323         82.0709 
       0.895864         79.3753         30.8443         81.4705 
       0.902008         78.5542         30.3678         80.6407 
       0.908149         77.6075         29.9016         80.0543 
       0.914301         77.3386         29.4445         79.5462 
       0.920448         77.0592         28.9975         78.8428 
       0.926574         75.4688         28.5613         77.9555 
       0.932687         75.2023         28.1351         77.4924 
       0.938823         74.5841         27.7161         76.7562 
       0.944975         73.6909         27.3047         76.1582 
       0.951105         73.1099         26.9032         75.7534 
       0.957225         72.9517         26.5105         75.1934 
       0.963368         72.1609         26.1243         74.3141 
       0.969511         71.5768         25.7459          73.838 
       0.975621          70.994          25.377         73.8024 
       0.981748         70.3041         25.0145         72.9857 
       0.987916         69.7696         24.6569         72.6161 
        0.99406         69.4625         24.3076         71.9398 
        1.00019         68.6154         23.9658         71.3523 
        1.00632         68.1155          23.631         70.8831 
        1.01246         67.6632         23.3021         70.2756 
        1.01859         67.3726           22.98         69.9031 
        1.02471         66.6174         22.6645         69.5392 
        1.03085         66.1117         22.3538         68.9156 
        1.03698         65.6898         22.0496         68.3779 
        1.04314         65.1864         21.7499         67.8556 
        1.04929         64.6491         21.4564         67.5794 
        1.05541         64.2859         21.1695          67.308 
        1.06154         63.8856         20.8873         66.7447 
        1.06769         63.1406         20.6097         66.3216 
        1.07382         62.6876         20.3382         65.8394 
        1.07993         62.4507         20.0722          65.375 
        1.08607          61.952         19.8098           64.96 
        1.09222         61.6645         19.5519         64.4257 
        1.09836         61.0854          19.299         64.0588 
        1.10449         60.7566         19.0508         63.6346 
        1.11063         60.2017         18.8067         63.1038 
        1.11677         59.9768          18.567          62.701 
         1.1229         59.3914          18.332         62.5104 
        1.12903         59.1953         18.1008         62.0618 
        1.13518         58.9619         17.8734         61.6367 
        1.14131         58.3192         17.6501          61.315 
        1.14745         57.8737         17.4307         60.9318 
        1.15359         57.2366          17.215         60.6529 
        1.15973         57.2181         17.0029         60.2428 
        1.16584         56.7681         16.7953         59.7534 
        1.17197         56.1815         16.5909         59.4778 
        1.17811         55.9291         16.3893          59.023 
        1.18424         55.2441         16.1917         58.6865 
        1.19038         55.1698         15.9967         58.4957 
        1.19652         54.8856         15.8051         57.9955 
        1.20267         54.4519         15.6166         57.7988 
        1.20881         54.0852         15.4312         57.3888 
        1.21495         53.8505         15.2492         57.1327 
        1.22108         53.6535         15.0701         56.7857 
         1.2272         53.0834         14.8943         56.5113 
        1.23334         52.8182          14.721         56.1384 
        1.23949         52.4921           14.55         55.7285 
        1.24562         52.0977         14.3822         55.4826 
        1.25174         51.7569         14.2173         55.2521 
        1.25789         51.7336         14.0545         54.8492 
        1.26402         51.2725         13.8946         54.5305 
        1.27014         51.0451         13.7375         54.3393 
        1.27628         50.5046         13.5824         54.0146 
        1.28244         50.4257         13.4295         53.6994 
        1.28858         50.0286         13.2791         53.4287 
        1.29471          49.698         13.1313         53.2184 
        1.30084         49.2699         12.9859         52.7241 
        1.30697          49.283         12.8426         52.4325 
        1.31312         48.8098         12.7012         52.3377 
        1.31925         48.4404         12.5623         51.9862 
        1.32537         48.2075         12.4257         51.7114 
        1.33151         47.9118         12.2907          51.466 
        1.33765         47.6822         12.1577         51.2044 
        1.34378         47.4881          12.027          50.918 
        1.34992           47.12         11.8981         50.6959 
        1.35606         46.7967         11.7708         50.5133 
         1.3622         46.5595         11.6456         50.2241 
        1.36833          46.351         11.5226         49.9473 
        1.37445         45.9065         11.4014         49.6907 
        1.38059         45.8153         11.2815         49.6079 
        1.38675         45.3176         11.1631         49.2336 
        1.39288         45.3182         11.0469         49.0701 
        1.39901         44.9276         10.9324         48.8041 
        1.40515         44.7376         10.8192          48.536 
         1.4113         44.6766         10.7077         48.3066 
        1.41742          44.312         10.5982         48.0721 
        1.42355         43.9733         10.4901         47.8021 
         1.4297         43.7789         10.3831           47.53 
        1.43585         43.4716         10.2776         47.3968 
        1.44198         43.1999         10.1741         47.2063 
        1.44809         42.9359         10.0721         46.8364 
        1.45423         42.7962         9.97122         46.6175 
        1.46036          42.577         9.87187         46.4506 
        1.46649         42.3558         9.77384          46.279 
        1.47263         42.0851         9.67707         46.0836 
        1.47877         41.9135         9.58166         45.8364 
        1.48491         41.7134         9.48738         45.6002 
        1.49104         41.3487         9.39458         45.3671 
        1.49718         41.2324         9.30295         45.1667 
        1.50333         41.0783          9.2124         44.9974 
        1.50947         40.7441         9.12324         44.8131 
         1.5156         40.5881          9.0354         44.6114 
        1.52172         40.2797         8.94872         44.4064 
        1.52787         40.1206           8.863         44.1978 
          1.534         39.8867         8.77852         44.0154 
        1.54013         39.8311         8.69522         43.8015 
        1.54627         39.4278         8.61286           43.58 
        1.55241         39.2238         8.53156         43.3912 
        1.55855         39.1651         8.45142          43.209 
        1.56467         38.8884         8.37254         43.0269 
         1.5708         38.7399         8.29444         42.8783 
        1.57695         38.5197         8.21722         42.6926 
        1.58308         38.2145         8.14117         42.4641 
        1.58922         38.0418         8.06603         42.2831 
        1.59535         37.9142         7.99187         42.1218 
         1.6015         37.8335         7.91854         41.9078 
        1.60764         37.5386         7.84617         41.7172 
        1.61376          37.301          7.7749         41.5812 
        1.61989         37.0778         7.70446         41.3761 
        1.62604         36.9156         7.63474         41.2122 
        1.63218         36.7104         7.56592         41.0777 
        1.63831         36.6036         7.49811         40.9119 
        1.64444         36.3823         7.43111         40.7194 
        1.65059         36.1841         7.36477         40.5456 
        1.65673         35.9971         7.29931         40.3629 
        1.66285         35.9215         7.23483         40.2079 
        1.66898         35.5887          7.1711         40.0981 
        1.67512         35.5335         7.10803         39.9387 
        1.68127         35.3144         7.04565         39.7212 
         1.6874          35.123         6.98417         39.5035 
        1.69353         35.0408         6.92345         39.3481 
        1.69967         34.8835         6.86332         39.2302 
        1.70581         34.5715         6.80393         39.1437 
        1.71193         34.4146         6.74546         38.9976 
        1.71806         34.3078         6.68756         38.7061 
        1.72421         34.1214         6.63022         38.5336 
        1.73035         33.9345         6.57363         38.4785 
        1.73649         33.6972         6.51771         38.3766 
        1.74262         33.4884         6.46248         38.0912 
        1.74876          33.462         6.40786          37.913 
        1.75489         33.2387         6.35398         37.8294 
        1.76101         33.1221         6.30074         37.7125 
        1.76715         33.0129         6.24804         37.5579 
        1.77329         32.6995         6.19588          37.399 
        1.77943         32.6888         6.14429         37.2505 
        1.78557         32.5285         6.09336         37.1057 
        1.79171         32.3838           6.043         36.9543 
        1.79785         32.1898         5.99321         36.8435 
        1.80399         32.0415         5.94398         36.7654 
        1.81012         31.9397         5.89537         36.5132 
        1.81625         31.6439         5.84733         36.2939 
        1.82239         31.5303         5.79975         36.2207 
        1.82853          31.417         5.75273         36.1146 
        1.83466         31.2401         5.70627         35.9743 
        1.84078         31.0984         5.66038         35.8398 
        1.84692          30.953         5.61492         35.7337 
        1.85306         30.7471          5.5699         35.6037 
         1.8592         30.7104         5.52544         35.4534 
        1.86533         30.5253          5.4815         35.3241 
        1.87147         30.3678         5.43799          35.197 
