# k  (h/Mpc)    P(k)  (Mpc/h)^3    P_linear(k)  (Mpc/h)^3     P_NL(k)  ShotnoiseSubtracted = false
     0.00783031         11502.8         11557.1         11510.7 
       0.013688           14129         14467.1         14382.1 
       0.019231         14643.3         14844.9         14729.8 
      0.0249154         13909.8         13890.5         13774.2 
      0.0312784         12018.5         12131.3         12018.6 
      0.0375637         10174.8         10339.7         10240.6 
      0.0433917         8903.06         8947.52         8846.98 
      0.0492413         7809.72         7902.01         7810.51 
      0.0555754         7095.63         7124.56         7043.09 
      0.0619321         6382.11          6594.2         6513.96 
       0.067871         6082.01         6199.95         6122.76 
      0.0738098         5734.93         5807.05         5687.17 
      0.0800417         5286.05         5340.75         5229.99 
      0.0862327         4752.03          4820.7         4758.55 
      0.0921407         4274.47         4307.83         4261.19 
      0.0982031         3852.14         3815.22         3828.88 
       0.104506         3389.46         3383.77         3447.23 
       0.110769         3095.12         3057.88         3104.77 
       0.116806         2930.74         2836.73         2882.72 
       0.122832         2749.57         2685.69         2736.72 
       0.129052         2622.72         2571.29         2613.09 
       0.135211          2557.5         2467.53         2500.47 
       0.141259         2396.07         2351.64         2396.67 
       0.147318         2231.49         2211.72         2277.99 
       0.153489         2095.62         2048.38         2095.53 
       0.159709         1986.21         1876.45         1958.81 
       0.165845         1797.82         1716.38         1849.61 
       0.171974         1731.84         1579.28          1720.9 
       0.178125         1650.87            1471          1644.3 
       0.184229         1523.31         1391.82         1555.67 
        0.19034         1496.21         1334.44          1490.6 
       0.196428         1454.45         1289.72         1426.35 
       0.202534         1368.38         1247.68         1383.53 
       0.208729         1347.91         1200.34         1321.09 
       0.214876         1291.99         1145.12         1290.91 
       0.220989          1216.1         1082.83         1244.31 
       0.227147          1181.3         1016.65         1191.77 
        0.23329         1130.29         952.481         1149.78 
       0.239377         1111.72          895.36         1098.67 
       0.245482         1052.88         847.219         1043.19 
       0.251667         1011.91         808.249         1013.54 
       0.257832         997.436         777.673         975.758 
       0.263955         948.912         752.601         944.234 
       0.270079         920.822         729.594         917.653 
        0.27624         883.301         705.869         889.588 
       0.282372         868.648         680.062         868.493 
        0.28843         858.551         652.271         845.157 
       0.294538         814.795         622.827         822.318 
       0.300721         793.621         593.169         798.195 
        0.30691          777.35         565.266          780.71 
       0.313033         742.861           540.6         752.469 
       0.319153         731.703         519.346           730.4 
       0.325316         720.809         501.118         714.552 
        0.33145         704.757         485.397         688.225 
       0.337538         679.857         471.161         673.757 
       0.343633          661.72         457.314         666.636 
       0.349808         647.105         443.037         654.412 
       0.355968          634.79          428.21         642.599 
       0.362074         613.078         413.116         628.295 
       0.368217         610.554         397.882         609.713 
       0.374374         599.739         383.121         596.857 
       0.380519          576.26          369.33         582.426 
       0.386598         570.826         356.868         574.508 
       0.392688         557.122         345.642         558.081 
        0.39888         542.953         335.305         548.706 
       0.405048         532.671         325.828         541.056 
       0.411186         530.953          316.87          527.33 
       0.417313         525.149          308.09         517.266 
       0.423458         509.834         299.313         509.669 
       0.429607         495.577         290.502          499.72 
       0.435692         488.687         281.813         489.491 
       0.441815         480.285         273.261         485.585 
       0.447964          470.69         265.013         476.885 
       0.454126         465.126         257.188         463.964 
       0.460267         457.503         249.904         461.425 
       0.466387         449.668         243.148         452.387 
        0.47254         442.922         236.763         445.972 
       0.478662         433.894         230.725         437.442 
       0.484765         428.958         224.929          429.34 
       0.490885         424.358         219.255         423.398 
       0.497035         415.511         213.628         418.633 
       0.503198         414.942         208.081         412.702 
       0.509342         405.435         202.672          407.48 
       0.515458         398.338         197.441         403.864 
       0.521598         392.835         192.374         396.726 
       0.527764         386.349         187.506         391.896 
       0.533884         383.996         182.916         386.792 
           0.54           378.8         178.547         380.824 
       0.546137         371.084         174.346         376.326 
       0.552299         370.135          170.28         370.801 
       0.558452           363.9         166.348         366.974 
       0.564573         360.603         162.543         363.952 
       0.570708         355.636          158.82         360.274 
       0.576825         349.119         155.187         353.368 
       0.582926         347.053         151.653         349.835 
       0.589034         341.456         148.217          345.45 
       0.595184         338.929         144.874         340.316 
       0.601379         333.503         141.632         337.666 
       0.607522         327.041         138.534           333.5 
       0.613639         325.736         135.554         331.112 
       0.619772         324.271         132.663          329.01 
       0.625918         318.389         129.855         324.021 
       0.632068         315.136         127.128         319.842 
       0.638161         312.487         124.501         317.707 
         0.6443         308.986         121.924          314.55 
       0.650464         304.621         119.403         308.939 
       0.656582         301.784         116.962         306.536 
       0.662703         299.686         114.585         305.052 
       0.668861         294.296         112.261         301.918 
       0.675024         293.042         110.003         298.874 
       0.681124         289.292         107.837         294.649 
       0.687237         287.114         105.732          291.96 
       0.693381         283.121         103.678         289.155 
       0.699536         281.351         101.677         286.994 
       0.705665         278.236         99.7378          284.34 
       0.711789         275.969         97.8489         282.004 
       0.717957          272.74         95.9928         279.929 
        0.72409           269.4         94.1926         277.659 
       0.730186         270.991         92.4481         275.057 
       0.736317         265.937         90.7378         272.038 
       0.742472         263.294         89.0649         269.408 
       0.748622          260.22         87.4372          266.86 
        0.75476         260.004         85.8557         266.307 
       0.760888         256.748         84.3175         262.565 
       0.767043         253.657         82.8123         260.916 
       0.773185         252.106         81.3479         258.963 
       0.779291          248.58         79.9278         256.111 
       0.785407         247.475         78.5398         254.214 
       0.791564          245.21         77.1758         252.368 
       0.797719         241.258         75.8445         250.734 
       0.803834         242.887         74.5527             249 
       0.809972         239.316         73.2861         246.916 
       0.816124         235.956         72.0461         244.525 
       0.822261          234.08         70.8382         242.894 
       0.828378         233.686         69.6616          240.65 
       0.834502         230.217         68.5111          239.14 
       0.840667         230.348         67.3794         237.136 
       0.846816         226.024         66.2769         235.713 
       0.852925         225.769         65.2063         233.928 
       0.859047         223.476         64.1575         232.339 
       0.865192         223.029         63.1286         230.365 
       0.871341         219.953         62.1218          228.63 
       0.877463         218.086         61.1418         227.438 
       0.883569         217.489         60.1855         226.228 
       0.889708         215.227          59.245         224.001 
       0.895864          213.27         58.3223         222.779 
       0.902008         211.377         57.4212         220.964 
       0.908149         209.627         56.5398         218.998 
       0.914301         208.258         55.6755         217.732 
       0.920448         207.691         54.8302          215.97 
       0.926574          205.41         54.0054          214.33 
       0.932687           204.5         53.1995          213.03 
       0.938823         202.665         52.4072         212.148 
       0.944975         201.711         51.6293          210.97 
       0.951105          199.46         50.8701         209.218 
       0.957225         198.051         50.1276         207.625 
       0.963368         197.442         49.3974         205.955 
       0.969511         194.243         48.6819         204.547 
       0.975621         193.018         47.9845         204.147 
       0.981748         192.247          47.299         202.699 
       0.987916         191.225         46.6227         201.388 
        0.99406         189.522         45.9623          200.09 
        1.00019          188.35          45.316         198.554 
        1.00632         187.433         44.6829         196.924 
        1.01246          185.78          44.061         195.346 
        1.01859         184.064          43.452          194.81 
        1.02471         182.651         42.8553         194.057 
        1.03085         181.638         42.2679         192.761 
        1.03698         180.484         41.6928         191.751 
        1.04314         179.994         41.1259         190.323 
        1.04929         178.739          40.571         189.075 
        1.05541          177.39         40.0287         188.027 
        1.06154         175.656         39.4949          186.96 
        1.06769         174.698         38.9701         186.074 
        1.07382         174.004         38.4567         184.822 
        1.07993         172.107         37.9536         183.643 
        1.08607          171.29         37.4576         182.768 
        1.09222         169.909           36.97         181.919 
        1.09836         169.261         36.4916         180.916 
        1.10449         167.701         36.0224         179.828 
        1.11063         166.544         35.5609          178.49 
        1.11677         165.727         35.1077         177.377 
         1.1229         164.503         34.6632         176.442 
        1.12903         163.464          34.226         175.558 
        1.13518         162.195         33.7961         174.552 
        1.14131         161.506         33.3738          173.31 
        1.14745         160.022          32.959         172.597 
        1.15359         158.626         32.5511         171.537 
        1.15973         158.299         32.1501         170.652 
        1.16584         157.298         31.7576         169.183 
        1.17197         156.346         31.3711         168.708 
        1.17811         154.865         30.9899         168.033 
        1.18424         154.172         30.6162         166.684 
        1.19038         153.217         30.2476         166.233 
        1.19652         151.874         29.8852         165.404 
        1.20267         151.089         29.5288          164.21 
        1.20881         149.894         29.1783         163.507 
        1.21495         149.617          28.834         162.428 
        1.22108         148.376         28.4954         161.883 
         1.2272         147.202         28.1631         160.453 
        1.23334          146.61         27.8353         160.119 
        1.23949          145.94          27.512         159.196 
        1.24562         144.752         27.1947         157.967 
        1.25174         143.988         26.8829          157.39 
        1.25789         142.734         26.5751          156.53 
        1.26402         142.504         26.2727         155.652 
        1.27014         141.597         25.9757         155.352 
        1.27628         140.168         25.6825         154.927 
        1.28244         139.596         25.3932         153.544 
        1.28858         138.592         25.1088         152.622 
        1.29471         137.745         24.8294         151.901 
        1.30084         136.823         24.5546         151.061 
        1.30697         135.907         24.2835         150.433 
        1.31312         135.056         24.0161         149.369 
        1.31925         134.113         23.7536         148.747 
        1.32537         133.633         23.4953         148.273 
        1.33151         132.885         23.2399         147.338 
        1.33765         131.678         22.9885         146.666 
        1.34378         131.472         22.7413         145.952 
        1.34992         130.621         22.4976         145.043 
        1.35606         129.758          22.257          144.23 
         1.3622         129.214         22.0203         143.677 
        1.36833         127.811         21.7876         142.777 
        1.37445         127.702         21.5584         142.104 
        1.38059         126.646         21.3318          141.35 
        1.38675         125.904         21.1079         140.612 
        1.39288         124.951         20.8881         139.668 
        1.39901         124.253         20.6716         139.349 
        1.40515         123.806         20.4576         138.865 
         1.4113         122.879         20.2468         138.186 
        1.41742          122.07         20.0398         137.628 
        1.42355         121.868         19.8352         136.918 
         1.4297          120.73          19.633         136.201 
        1.43585         120.085         19.4336          135.27 
        1.44198         118.966         19.2377         134.754 
        1.44809         118.429          19.045         134.211 
        1.45423         118.109         18.8542         133.389 
        1.46036         117.007         18.6663         132.771 
        1.46649         116.393          18.481          132.36 
        1.47263         115.836          18.298         131.816 
        1.47877         114.892         18.1176         130.867 
        1.48491         114.484         17.9393         130.409 
        1.49104         113.143         17.7638         130.069 
        1.49718         112.984         17.5906         128.927 
        1.50333         112.519         17.4194         128.316 
        1.50947         111.747         17.2508          127.88 
         1.5156         111.022         17.0847         127.285 
        1.52172         110.343         16.9208         126.717 
        1.52787         109.808         16.7587         126.052 
          1.534         109.171         16.5989         125.536 
        1.54013         108.543         16.4414         125.008 
        1.54627         107.728         16.2857         124.425 
        1.55241          107.44          16.132         123.861 
        1.55855         106.677         15.9804         123.224 
        1.56467         105.959         15.8313         122.586 
         1.5708         105.036         15.6836         122.124 
        1.57695         104.848         15.5376         121.608 
        1.58308         104.044         15.3938         120.931 
        1.58922         103.928         15.2517         120.359 
        1.59535         103.337         15.1115         119.878 
         1.6015          102.28         14.9728         119.265 
        1.60764         101.666          14.836         118.709 
        1.61376          101.21         14.7012         118.432 
        1.61989         100.779          14.568         117.972 
        1.62604         100.032         14.4362         117.083 
        1.63218          99.569         14.3061         116.514 
        1.63831         98.8928         14.1779         116.286 
        1.64444           98.21         14.0512         115.561 
        1.65059         97.6594         13.9257         115.026 
        1.65673         97.4639          13.802         114.577 
        1.66285         96.8721           13.68         114.106 
        1.66898         96.0701         13.5595         113.607 
        1.67512         95.6011         13.4403         113.108 
        1.68127         95.1277         13.3223         112.533 
         1.6874         94.2908         13.2061         112.018 
        1.69353         93.8414         13.0913         111.663 
        1.69967         93.3295         12.9776         111.099 
        1.70581          93.054         12.8653         110.523 
        1.71193         92.3199         12.7547         110.084 
        1.71806         91.7698         12.6452         109.701 
        1.72421         91.2013         12.5368         109.201 
        1.73035         90.7815         12.4298         108.593 
        1.73649         90.1143         12.3241         108.045 
        1.74262         89.8063         12.2196         107.729 
        1.74876         89.1374         12.1164         107.267 
        1.75489         88.7734         12.0145          106.68 
        1.76101           88.21         11.9138         106.165 
        1.76715         87.5932         11.8142          105.78 
        1.77329         87.1765         11.7155         105.337 
        1.77943         86.7066          11.618         104.833 
        1.78557         86.3102         11.5217         104.379 
        1.79171         85.8096         11.4265         103.986 
        1.79785         85.0492         11.3323         103.599 
        1.80399         84.9902         11.2392         103.142 
        1.81012           84.16         11.1473         102.581 
        1.81625         83.7303         11.0565         102.111 
        1.82239         83.3252         10.9665         101.754 
        1.82853         82.8338         10.8776         101.321 
        1.83466         82.2184         10.7898         100.847 
        1.84078         81.9934          10.703         100.454 
        1.84692         81.7008          10.617         100.196 
        1.85306         81.1225         10.5319         99.7001 
         1.8592         80.7477         10.4478         99.1463 
        1.86533         80.1397         10.3647         98.7969 
        1.87147         79.7959         10.2825         98.2081 
        1.87761         79.0554          10.201         97.7488 
