# k  (h/Mpc)    P(k)  (Mpc/h)^3    P_linear(k)  (Mpc/h)^3     P_NL(k)  ShotnoiseSubtracted = false
     0.00783031         3711.53         3733.63         3719.94 
       0.013688          4604.6          4675.4         4654.07 
       0.019231         4762.27         4798.22         4771.36 
      0.0249154         4496.82         4490.14          4469.1 
      0.0312784         3909.62          3921.7         3908.35 
      0.0375637         3321.09         3342.66          3332.5 
      0.0433917         2895.18         2892.65         2884.41 
      0.0492413         2545.85         2554.69         2547.98 
      0.0555754         2309.67         2303.37         2296.83 
      0.0619321         2100.17         2131.93         2125.14 
       0.067871          1993.6         2004.48         1996.94 
      0.0738098         1872.36         1877.46         1864.86 
      0.0800417         1726.94         1726.72          1715.1 
      0.0862327         1553.46         1558.58          1552.7 
      0.0921407         1390.28         1392.77         1389.19 
      0.0982031         1242.89         1233.51         1237.29 
       0.104506         1093.54         1094.02         1103.76 
       0.110769         992.679         988.655         996.018 
       0.116806         933.154         917.157           924.2 
       0.122832         875.607         868.323         875.995 
       0.129052         840.665          831.34         837.512 
       0.135211         812.642         797.791          803.15 
       0.141259         767.514         760.322         766.748 
       0.147318          715.49         715.085         724.899 
       0.153489          667.91         662.277         669.159 
       0.159709         621.175         606.689         617.992 
       0.165845         561.363         554.937         573.205 
       0.171974         532.374         510.608         529.101 
       0.178125         499.105         475.599         498.235 
       0.184229          466.42         450.001         472.003 
        0.19034         453.337          431.45         452.025 
       0.196428         438.456         416.988         433.843 
       0.202534         415.089         403.399         420.175 
       0.208729         406.363         388.092         403.578 
       0.214876         390.926          370.24         389.764 
       0.220989         363.718           350.1         371.392 
       0.227147         351.006         328.701         350.979 
        0.23329         332.987         307.955         333.796 
       0.239377         319.094         289.487         316.759 
       0.245482          301.06         273.922         299.391 
       0.251667         286.962         261.322         288.427 
       0.257832         282.191         251.436         277.428 
       0.263955         268.073          243.33         267.967 
       0.270079         259.319         235.892         259.718 
        0.27624         249.096         228.221         250.882 
       0.282372         241.867         219.877         243.347 
        0.28843         238.512         210.892         234.767 
       0.294538         226.712         201.372         226.527 
       0.300721         216.235         191.783          218.57 
        0.30691         211.172         182.762         210.372 
       0.313033         201.431         174.787         201.774 
       0.319153          197.22         167.915         195.403 
       0.325316         189.913         162.021         189.909 
        0.33145         184.287         156.938         183.263 
       0.337538          178.68         152.336         177.923 
       0.343633         173.414         147.859         174.055 
       0.349808         168.301         143.242         169.886 
       0.355968         163.701         138.449          166.09 
       0.362074         160.022         133.568         160.983 
       0.368217         156.061         128.643          155.16 
       0.374374         152.003          123.87         151.062 
       0.380519         145.299         119.412         146.344 
       0.386598         141.849         115.382         142.504 
       0.392688         137.675         111.753         138.955 
        0.39888         135.033         108.411         134.908 
       0.405048         131.983         105.347         132.037 
       0.411186         129.353          102.45          129.41 
       0.417313         125.972         99.6115         125.531 
       0.423458         122.806         96.7737         122.948 
       0.429607         120.352         93.9249         120.055 
       0.435692         118.142         91.1156         117.386 
       0.441815         114.379         88.3507         115.466 
       0.447964         110.795         85.6839         112.301 
       0.454126         108.704         83.1539         109.159 
       0.460267         107.719          80.799         107.451 
       0.466387          104.99         78.6145         104.776 
        0.47254         103.687         76.5501         102.834 
       0.478662         100.085          74.598         100.665 
       0.484765         98.4572         72.7242         98.1298 
       0.490885         96.0921         70.8896         96.7955 
       0.497035           95.16         69.0703         95.2241 
       0.503198         92.8849         67.2767         93.0445 
       0.509342         90.4623         65.5281         91.4968 
       0.515458         89.2735         63.8365         90.3385 
       0.521598         87.0533         62.1984         87.8238 
       0.527764         86.0332         60.6246         85.6731 
       0.533884         85.0069         59.1403         84.3128 
           0.54         82.7632         57.7279         82.9081 
       0.546137         80.6199         56.3697         81.7976 
       0.552299         79.3579          55.055          79.874 
       0.558452          77.802         53.7837         78.3615 
       0.564573         77.3722         52.5534         77.4673 
       0.570708         75.0452         51.3496         76.1494 
       0.576825         74.2904         50.1751         74.7977 
       0.582926         73.3103         49.0324         73.5408 
       0.589034         71.9186         47.9214          72.652 
       0.595184         70.9151         46.8406         71.3006 
       0.601379         69.1084         45.7925         70.3871 
       0.607522         68.0254         44.7907         68.7791 
       0.613639         67.3076         43.8273         67.9239 
       0.619772         66.0509         42.8926         66.7573 
       0.625918         65.1209         41.9848         66.1064 
       0.632068         64.2942         41.1031         64.8331 
       0.638161         63.0287         40.2538         64.0321 
         0.6443         62.4558         39.4206         62.8891 
       0.650464         61.0435         38.6052          61.878 
       0.656582         60.7168         37.8162         61.2617 
       0.662703         59.8704         37.0478         60.1302 
       0.668861         58.4745         36.2963         59.4798 
       0.675024         58.1313         35.5662         58.4753 
       0.681124         57.3886         34.8659         57.6421 
       0.687237         56.2171         34.1852         56.8379 
       0.693381         55.5999         33.5211         55.9914 
       0.699536         55.0657         32.8742         55.6087 
       0.705665         54.1251         32.2472         54.8981 
       0.711789         53.2852         31.6365         53.7486 
       0.717957         52.4548         31.0364         53.3504 
        0.72409         51.9676         30.4544         52.8209 
       0.730186         51.6204         29.8903         52.0455 
       0.736317         50.6444         29.3374         51.2846 
       0.742472         50.0567         28.7965         50.7178 
       0.748622         49.2581         28.2702         49.9881 
        0.75476         48.4609         27.7589         49.4403 
       0.760888         48.3546         27.2616         48.8489 
       0.767043          47.394         26.7749         48.4547 
       0.773185         46.8996         26.3014         47.8819 
       0.779291         46.2967         25.8423         47.3564 
       0.785407         45.6155         25.3935         46.6587 
       0.791564         45.5684         24.9525         46.1145 
       0.797719          44.734         24.5221         45.7389 
       0.803834         44.3752         24.1044         45.0923 
       0.809972          43.772         23.6949         44.6307 
       0.816124         43.3141          23.294         44.1734 
       0.822261         42.7393         22.9034         43.5589 
       0.828378         42.4879          22.523          42.986 
       0.834502         41.9417          22.151         42.8276 
       0.840667         41.5787         21.7851         42.2703 
       0.846816         40.8704         21.4286         41.8438 
       0.852925         40.6473         21.0825         41.5794 
       0.859047         40.3708         20.7434         40.9432 
       0.865192         39.6919         20.4107         40.5454 
       0.871341         39.2464         20.0852         40.2051 
       0.877463         38.9188         19.7684         39.7911 
       0.883569          38.722         19.4592         39.5017 
       0.889708         38.2345         19.1551         38.9883 
       0.895864         37.7955         18.8568         38.5769 
       0.902008         37.3759         18.5654         38.2486 
       0.908149         37.0412         18.2805         37.9794 
       0.914301         36.7547          18.001         37.6881 
       0.920448         36.3895         17.7277         37.2058 
       0.926574         35.8421         17.4611         36.7946 
       0.932687         35.5596         17.2005         36.5175 
       0.938823         35.1378         16.9443         36.1149 
       0.944975         34.8319         16.6928         35.7603 
       0.951105         34.5437         16.4473         35.5059 
       0.957225         34.3273         16.2073         35.1756 
       0.963368         33.8886         15.9712         34.8155 
       0.969511         33.6157         15.7398         34.4973 
       0.975621         33.3336         15.5143         34.2881 
       0.981748         32.9443         15.2927         34.0053 
       0.987916         32.7243         15.0741         33.6547 
        0.99406         32.3462         14.8605         33.3871 
        1.00019         32.1431         14.6516         33.0803 
        1.00632         31.8563         14.4469         32.8462 
        1.01246         31.5885         14.2458         32.5953 
        1.01859          31.264         14.0489          32.332 
        1.02471         30.9602          13.856          32.051 
        1.03085         30.8303         13.6661         31.7658 
        1.03698         30.5803         13.4801         31.4933 
        1.04314         30.2853         13.2969         31.1682 
        1.04929          29.912         13.1174         31.0237 
        1.05541         29.8124         12.9421         30.8872 
        1.06154         29.6096         12.7695         30.4893 
        1.06769         29.1569         12.5998         30.2353 
        1.07382         29.0205         12.4338          30.076 
        1.07993         28.7545         12.2712         29.7802 
        1.08607         28.5611         12.1108         29.5767 
        1.09222         28.3302         11.9531         29.4253 
        1.09836         28.0586         11.7985         29.1762 
        1.10449         27.9346         11.6468         28.8972 
        1.11063         27.6627         11.4976         28.7339 
        1.11677         27.5888          11.351         28.4904 
         1.1229         27.2919         11.2073         28.2805 
        1.12903         27.0698          11.066         28.0799 
        1.13518         26.9563          10.927         27.8139 
        1.14131         26.7029         10.7904         27.6555 
        1.14745         26.3944         10.6563         27.4904 
        1.15359         26.1499         10.5244          27.284 
        1.15973          26.012         10.3948         27.1222 
        1.16584         25.8248         10.2679         26.9279 
        1.17197         25.5214         10.1429         26.7634 
        1.17811         25.4182         10.0197         26.4423 
        1.18424         25.1382         9.89884         26.3367 
        1.19038         25.0536         9.77966         26.2341 
        1.19652         24.8227          9.6625         25.9688 
        1.20267         24.7083         9.54726         25.8237 
        1.20881         24.4952         9.43394         25.6704 
        1.21495          24.353         9.32264         25.5407 
        1.22108         24.2773         9.21316          25.315 
         1.2272         24.0736         9.10571         25.1714 
        1.23334         23.8998         8.99973         25.0349 
        1.23949         23.6947         8.89519         24.8016 
        1.24562         23.4562         8.79261          24.666 
        1.25174         23.3656          8.6918         24.5254 
        1.25789         23.2565         8.59228         24.3586 
        1.26402         23.1062          8.4945         24.1766 
        1.27014         22.9424         8.39848         24.0559 
        1.27628         22.7134         8.30367         23.8697 
        1.28244          22.693         8.21015         23.8114 
        1.28858         22.4492          8.1182         23.6031 
        1.29471         22.2599         8.02786         23.4496 
        1.30084          22.121           7.939         23.3667 
        1.30697         22.0184         7.85134         23.1769 
        1.31312         21.8277         7.76489         23.0304 
        1.31925         21.6994         7.68002         22.9305 
        1.32537         21.5339         7.59651         22.8131 
        1.33151         21.3905         7.51395         22.6658 
        1.33765         21.3458         7.43266         22.5333 
        1.34378         21.2011         7.35274         22.4041 
        1.34992           21.04         7.27394          22.293 
        1.35606         20.8862         7.19613         22.1375 
         1.3622         20.7298          7.1196         22.0229 
        1.36833         20.6719         7.04437         21.9213 
        1.37445         20.5262         6.97026         21.7417 
        1.38059         20.3872           6.897         21.6114 
        1.38675         20.2402         6.82461         21.5299 
        1.39288         20.1132         6.75355         21.3912 
        1.39901         19.9902         6.68354         21.2856 
        1.40515         19.8932         6.61437         21.1651 
         1.4113          19.795         6.54621         21.0486 
        1.41742         19.6874         6.47927         20.9512 
        1.42355         19.5116         6.41314         20.7972 
         1.4297         19.3932         6.34774         20.6923 
        1.43585         19.2833         6.28328         20.6248 
        1.44198         19.2124         6.21996         20.5004 
        1.44809         19.0904         6.15764         20.4127 
        1.45423          18.976         6.09594         20.2601 
        1.46036         18.8613          6.0352         20.1417 
        1.46649         18.7419         5.97527         20.0617 
        1.47263         18.6325         5.91611         19.9921 
        1.47877         18.5584         5.85778         19.9081 
        1.48491          18.441         5.80015         19.7293 
        1.49104          18.314         5.74341         19.6457 
        1.49718         18.2496         5.68739         19.5762 
        1.50333         18.1656         5.63204         19.4791 
        1.50947         18.0436         5.57753         19.3936 
         1.5156         17.9435         5.52383         19.2915 
        1.52172         17.8159         5.47083         19.1593 
        1.52787         17.7439         5.41843         19.0666 
          1.534         17.6691         5.36678         18.9795 
        1.54013         17.5859         5.31586         18.8521 
        1.54627         17.4262          5.2655         18.7494 
        1.55241         17.3236          5.2158         18.6839 
        1.55855         17.2612         5.16681         18.6047 
        1.56467         17.2053         5.11858         18.5163 
         1.5708          17.105         5.07084         18.4364 
        1.57695         17.0107         5.02363         18.3442 
        1.58308         16.8602         4.97714         18.2592 
        1.58922         16.7951          4.9312         18.1978 
        1.59535         16.7102         4.88586         18.1046 
         1.6015         16.5928         4.84103          18.011 
        1.60764         16.5328         4.79678         17.9098 
        1.61376         16.4726         4.75321         17.8078 
        1.61989         16.3308         4.71015         17.7611 
        1.62604         16.2835         4.66752         17.7131 
        1.63218         16.2094         4.62545         17.6247 
        1.63831         16.0889           4.584         17.5321 
        1.64444         16.0081         4.54304           17.47 
        1.65059         15.9275         4.50248         17.3616 
        1.65673         15.8766         4.46246         17.2894 
        1.66285         15.7464         4.42304         17.2274 
        1.66898         15.7194         4.38408         17.1249 
        1.67512         15.6683         4.34552         17.0359 
        1.68127         15.5531         4.30739         16.9711 
         1.6874         15.5028          4.2698         16.8945 
        1.69353         15.3456         4.23268         16.7906 
        1.69967         15.2985         4.19592         16.7465 
        1.70581          15.238         4.15961         16.7007 
        1.71193         15.1306         4.12386         16.6231 
        1.71806         15.0894         4.08846         16.5486 
        1.72421         15.0148         4.05341         16.4896 
        1.73035         14.9272         4.01881         16.4182 
        1.73649         14.8775         3.98462         16.3309 
        1.74262         14.7633         3.95086         16.2588 
        1.74876         14.7163         3.91747         16.1874 
        1.75489         14.6627         3.88453         16.1126 
        1.76101         14.5584         3.85198         16.0445 
        1.76715         14.5128         3.81976         15.9899 
        1.77329         14.4275         3.78787         15.9084 
        1.77943         14.3542         3.75633         15.8357 
        1.78557          14.316          3.7252         15.8039 
        1.79171         14.2135         3.69441         15.7345 
        1.79785         14.1633         3.66397         15.6532 
        1.80399         14.0785         3.63387          15.609 
        1.81012          14.044         3.60416         15.5346 
        1.81625          13.948         3.57479         15.4772 
        1.82239         13.8837          3.5457         15.4424 
        1.82853         13.8212         3.51695         15.3603 
        1.83466         13.7343         3.48855         15.2878 
        1.84078         13.7032         3.46049         15.2372 
        1.84692          13.676          3.4327         15.1682 
        1.85306         13.5867         3.40518         15.1058 
         1.8592         13.5386           3.378         15.0549 
        1.86533         13.4153         3.35114         14.9959 
        1.87147         13.3703         3.32454         14.9346 
        1.87761         13.3246         3.29821         14.8841 
