# k  (h/Mpc)    P(k)  (Mpc/h)^3    P_linear(k)  (Mpc/h)^3     P_NL(k)  ShotnoiseSubtracted = false
     0.00783031         305.589         307.868         306.665 
       0.013688         382.601         385.762         384.192 
       0.019231         394.716          395.99         394.153 
      0.0249154         370.337          370.61          369.43 
      0.0312784         323.553         323.717         323.382 
      0.0375637          275.74         275.933         275.869 
      0.0433917         239.268         238.792         238.952 
      0.0492413         211.011         210.898         211.106 
      0.0555754         190.677         190.154         190.261 
      0.0619321         175.414         176.002         176.036 
       0.067871         165.386         165.482          165.39 
      0.0738098         154.938         154.997         154.804 
      0.0800417         142.648         142.553         142.368 
      0.0862327          128.61         128.673         128.567 
      0.0921407         114.909         114.984         114.963 
      0.0982031         102.049         101.836         101.919 
       0.104506         90.2208         90.3205         90.4747 
       0.110769         81.5908         81.6221         81.7644 
       0.116806         75.9341         75.7194         75.8218 
       0.122832         71.6564         71.6878         71.7687 
       0.129052         68.7139         68.6346         68.6677 
       0.135211         66.0044         65.8649         65.8659 
       0.141259         62.7392         62.7716         62.7705 
       0.147318         58.8499         59.0369         59.0694 
       0.153489         54.6207         54.6772         54.7084 
       0.159709         50.1388         50.0879         50.1717 
       0.165845         45.6619         45.8153         45.9662 
       0.171974         42.3308         42.1556         42.3118 
       0.178125         39.4108         39.2653         39.4493 
       0.184229         37.1889         37.1519         37.3265 
        0.19034         35.8048         35.6204         35.7723 
       0.196428         34.5372         34.4264         34.5353 
       0.202534         33.2055         33.3045         33.4051 
       0.208729         32.0843         32.0407         32.1333 
       0.214876         30.7135         30.5669         30.6939 
       0.220989         28.8471         28.9042         29.0507 
       0.227147         27.3019         27.1375         27.2944 
        0.23329         25.6214         25.4247         25.6147 
       0.239377         24.1285            23.9         24.1067 
       0.245482         22.8243          22.615         22.8047 
       0.251667         21.7053         21.5748         21.7755 
       0.257832         20.9868         20.7586         20.9473 
       0.263955         20.2274         20.0893         20.2611 
       0.270079         19.5955         19.4752         19.6354 
        0.27624         18.8902         18.8419         18.9906 
       0.282372         18.2151          18.153         18.3141 
        0.28843         17.5817         17.4112         17.5795 
       0.294538         16.7779         16.6253         16.8028 
       0.300721         15.9298         15.8336         16.0258 
        0.30691         15.2734         15.0888         15.2868 
       0.313033         14.5955         14.4304         14.6242 
       0.319153          14.129          13.863         14.0635 
       0.325316         13.5021         13.3765          13.579 
        0.33145         13.0779         12.9568         13.1457 
       0.337538         12.7176         12.5768         12.7568 
       0.343633         12.3701         12.2072         12.3831 
       0.349808         11.9632         11.8261         12.0081 
       0.355968         11.5493         11.4303          11.633 
       0.362074         11.1943         11.0274         11.2212 
       0.368217         10.7817         10.6208         10.8011 
       0.374374         10.4457         10.2268         10.4206 
       0.380519         10.0173         9.85865         10.0465 
       0.386598         9.66807         9.52599         9.71868 
       0.392688         9.35164         9.22634         9.41708 
        0.39888         9.10571          8.9504         9.13886 
       0.405048         8.85893         8.69744         8.87314 
       0.411186         8.60496         8.45831         8.64914 
       0.417313         8.37234         8.22394         8.40706 
       0.423458         8.10625         7.98965         8.17502 
       0.429607         7.91359         7.75445         7.93365 
       0.435692         7.69407         7.52252         7.70813 
       0.441815         7.43872         7.29424         7.48922 
       0.447964         7.18787         7.07408          7.2623 
       0.454126         7.01745          6.8652         7.05084 
       0.460267         6.85403         6.67078         6.86093 
       0.466387         6.65462         6.49042         6.67136 
        0.47254         6.49773         6.31998         6.50195 
       0.478662         6.32152         6.15883         6.33619 
       0.484765          6.1684         6.00412         6.18108 
       0.490885         5.99847         5.85266         6.04115 
       0.497035          5.8304         5.70246         5.89288 
       0.503198         5.70451         5.55438         5.73005 
       0.509342         5.53622         5.41001         5.58954 
       0.515458         5.41961         5.27035         5.45775 
       0.521598         5.28551         5.13511         5.30871 
       0.527764         5.17688         5.00518         5.17756 
       0.533884         5.01537         4.88264         5.05442 
           0.54         4.90966         4.76602         4.93463 
       0.546137         4.77765         4.65389         4.82643 
       0.552299         4.67962         4.54536         4.70568 
       0.558452          4.5732         4.44039         4.60305 
       0.564573         4.47706         4.33882         4.51313 
       0.570708         4.37595         4.23943         4.40955 
       0.576825         4.27996         4.14246         4.30883 
       0.582926         4.17507         4.04812         4.21701 
       0.589034         4.09824          3.9564         4.13038 
       0.595184         4.01808         3.86717         4.02416 
       0.601379         3.91375         3.78064         3.95005 
       0.607522         3.82836         3.69793         3.86363 
       0.613639         3.73605         3.61839         3.78101 
       0.619772         3.67466         3.54122         3.70853 
       0.625918         3.59558         3.46628         3.62685 
       0.632068         3.52757         3.39348         3.55085 
       0.638161          3.4513         3.32337         3.48055 
         0.6443         3.37902         3.25458         3.40821 
       0.650464            3.31         3.18726         3.34734 
       0.656582         3.25769         3.12212         3.27923 
       0.662703         3.19132         3.05867         3.21274 
       0.668861         3.11034         2.99663         3.15514 
       0.675024         3.05547         2.93636         3.09077 
       0.681124         3.02602         2.87853         3.03005 
       0.687237         2.95248         2.82234         2.96776 
       0.693381         2.88034         2.76751         2.90943 
       0.699536          2.8447          2.7141         2.85771 
       0.705665         2.79006         2.66234         2.81461 
       0.711789         2.72593         2.61192         2.76092 
       0.717957         2.67704         2.56237         2.70609 
        0.72409         2.63131         2.51432         2.65881 
       0.730186         2.59662         2.46775         2.60776 
       0.736317         2.53765          2.4221         2.56006 
       0.742472         2.50061         2.37744         2.52249 
       0.748622         2.45811           2.334         2.47891 
        0.75476         2.40332         2.29178         2.43015 
       0.760888         2.37222         2.25072          2.3896 
       0.767043         2.30862         2.21054         2.35062 
       0.773185         2.27871         2.17145         2.31278 
       0.779291         2.25524         2.13355         2.27353 
       0.785407         2.20899         2.09649         2.23366 
       0.791564         2.17141         2.06009         2.19696 
       0.797719         2.13391         2.02455         2.15608 
       0.803834         2.09868         1.99006         2.12294 
       0.809972         2.06365         1.95626         2.09309 
       0.816124         2.02938         1.92316         2.05449 
       0.822261         1.99989         1.89091          2.0206 
       0.828378         1.96382         1.85951         1.98911 
       0.834502         1.93281         1.82879         1.95545 
       0.840667         1.90721         1.79859         1.92653 
       0.846816         1.87384         1.76915          1.9015 
       0.852925         1.84064         1.74058         1.86905 
       0.859047         1.81294         1.71258         1.84439 
       0.865192         1.78522         1.68512          1.8134 
       0.871341         1.76063         1.65824         1.78485 
       0.877463         1.72811         1.63208         1.75631 
       0.883569          1.7034         1.60656         1.73284 
       0.889708         1.68144         1.58145         1.70695 
       0.895864          1.6561         1.55682         1.68012 
       0.902008         1.62573         1.53277         1.65578 
       0.908149         1.60557         1.50924         1.63214 
       0.914301         1.58507         1.48617         1.60672 
       0.920448         1.56227          1.4636         1.58262 
       0.926574         1.54401         1.44159         1.56174 
       0.932687         1.51922         1.42008         1.53549 
       0.938823         1.49038         1.39893         1.51987 
       0.944975         1.47477         1.37816         1.49297 
       0.951105         1.44617          1.3579          1.4725 
       0.957225         1.42848         1.33808         1.45509 
       0.963368         1.41244         1.31859         1.43285 
       0.969511         1.39457         1.29949         1.41377 
       0.975621         1.37018         1.28087         1.39027 
       0.981748         1.34565         1.26257         1.37211 
       0.987916         1.33029         1.24452         1.35795 
        0.99406         1.31641         1.22689         1.34051 
        1.00019         1.29739         1.20964         1.32233 
        1.00632         1.28438         1.19274         1.30241 
        1.01246         1.26484         1.17614         1.28465 
        1.01859         1.24815         1.15988         1.26922 
        1.02471         1.22689         1.14396         1.25263 
        1.03085         1.21088         1.12827         1.23362 
        1.03698         1.19789         1.11292         1.21732 
        1.04314         1.18226         1.09779         1.20266 
        1.04929         1.16957         1.08298         1.18754 
        1.05541         1.14892          1.0685         1.17404 
        1.06154         1.13779         1.05425         1.15904 
        1.06769         1.12486         1.04025         1.14425 
        1.07382         1.10863         1.02654         1.12954 
        1.07993         1.09464         1.01311          1.1152 
        1.08607         1.08208        0.999872         1.10241 
        1.09222         1.06591        0.986855         1.08695 
        1.09836         1.05608        0.974087          1.0749 
        1.10449         1.03865        0.961561         1.06204 
        1.11063         1.02618        0.949242         1.04713 
        1.11677         1.01606        0.937144         1.03638 
         1.1229        0.999569        0.925279         1.02404 
        1.12903        0.991353         0.91361         1.01129 
        1.13518        0.977083        0.902133        0.999404 
        1.14131        0.966803        0.890861        0.987781 
        1.14745         0.95747        0.879787        0.974165 
        1.15359        0.943968        0.868901        0.964574 
        1.15973        0.933948        0.858195        0.953921 
        1.16584         0.92124        0.847719        0.941418 
        1.17197        0.909537        0.837402        0.931274 
        1.17811        0.898628        0.827227        0.921458 
        1.18424        0.888581        0.817251        0.909111 
        1.19038        0.876915        0.807412        0.899209 
        1.19652        0.870466        0.797738        0.889947 
        1.20267        0.861384        0.788225        0.877471 
        1.20881        0.846973        0.778868        0.869093 
        1.21495        0.839654         0.76968        0.861737 
        1.22108        0.830604        0.760641        0.850084 
         1.2272        0.818478         0.75177        0.839585 
        1.23334        0.810974         0.74302        0.831391 
        1.23949        0.803412        0.734389        0.823584 
        1.24562        0.793845         0.72592        0.814278 
        1.25174        0.785506        0.717598        0.804261 
        1.25789        0.774147        0.709381        0.795572 
        1.26402        0.767022        0.701308        0.787126 
        1.27014        0.756395        0.693381        0.778566 
        1.27628        0.750874        0.685554        0.769905 
        1.28244        0.742696        0.677832        0.761851 
        1.28858        0.733014        0.670241        0.752781 
        1.29471        0.725145        0.662783         0.74565 
        1.30084        0.718097        0.655446        0.739713 
        1.30697         0.71272        0.648209        0.731281 
        1.31312        0.704043        0.641072        0.723297 
        1.31925        0.696427        0.634065        0.716814 
        1.32537        0.689329         0.62717        0.709441 
        1.33151        0.681634        0.620354        0.702068 
        1.33765        0.674463        0.613643        0.694911 
        1.34378        0.666348        0.607045        0.688048 
        1.34992        0.662185        0.600539        0.681239 
        1.35606        0.653808        0.594115        0.673101 
         1.3622        0.647599        0.587797        0.666753 
        1.36833        0.641664        0.581585        0.660977 
        1.37445        0.635099        0.575467        0.654712 
        1.38059        0.628344        0.569418        0.647674 
        1.38675         0.62169        0.563442        0.640848 
        1.39288        0.614854        0.557575        0.634565 
        1.39901         0.60972        0.551795        0.628784 
        1.40515         0.60297        0.546085        0.622203 
         1.4113        0.599384        0.540457        0.616844 
        1.41742         0.59203         0.53493          0.6124 
        1.42355        0.584039        0.529471        0.603825 
         1.4297        0.581093        0.524071        0.600133 
        1.43585        0.573839        0.518749        0.593944 
        1.44198         0.56918        0.513522        0.586272 
        1.44809        0.562842        0.508376        0.583243 
        1.45423        0.558125        0.503283        0.575565 
        1.46036        0.552608        0.498268         0.57091 
        1.46649        0.547016        0.493321        0.566984 
        1.47263        0.540967        0.488436        0.561083 
        1.47877        0.539084         0.48362        0.555739 
        1.48491        0.530332        0.478862        0.551483 
        1.49104        0.528475        0.474178        0.544948 
        1.49718        0.521301        0.469553        0.541555 
        1.50333        0.517615        0.464983        0.534909 
        1.50947        0.513171        0.460483        0.529754 
         1.5156        0.507875        0.456049        0.526266 
        1.52172        0.503786        0.451674        0.520817 
        1.52787        0.497644        0.447347        0.515976 
          1.534        0.494763        0.443083        0.512105 
        1.54013          0.4898        0.438879        0.507452 
        1.54627        0.485334        0.434722        0.502543 
        1.55241        0.480478        0.430618        0.498075 
        1.55855        0.476369        0.426573        0.493742 
        1.56467        0.472453        0.422592        0.489893 
         1.5708        0.467698         0.41865         0.48492 
        1.57695        0.463196        0.414753        0.480319 
        1.58308        0.458088        0.410914        0.477071 
        1.58922        0.455722        0.407121        0.473072 
        1.59535        0.450693        0.403378        0.468599 
         1.6015        0.446899        0.399677        0.464061 
        1.60764        0.443077        0.396024        0.460699 
        1.61376        0.439164        0.392427        0.457876 
        1.61989        0.435276        0.388872        0.453614 
        1.62604        0.431077        0.385352        0.449533 
        1.63218        0.428428        0.381879        0.445964 
        1.63831        0.423875        0.378457         0.44223 
        1.64444        0.420783        0.375075        0.438045 
        1.65059        0.416522        0.371726        0.434335 
        1.65673        0.413159        0.368422        0.431042 
        1.66285         0.41005        0.365168        0.427575 
        1.66898        0.406387        0.361951        0.423699 
        1.67512         0.40216        0.358768        0.420211 
        1.68127        0.398548        0.355619        0.417047 
         1.6874        0.396332        0.352516        0.413973 
        1.69353        0.392463        0.349452        0.410635 
        1.69967        0.389277        0.346416        0.406751 
        1.70581        0.386589        0.343419        0.403492 
        1.71193        0.383676        0.340468        0.400653 
        1.71806         0.38012        0.337545        0.397105 
        1.72421         0.37663        0.334651         0.39433 
        1.73035        0.372928        0.331795        0.391157 
        1.73649        0.371406        0.328972        0.387252 
        1.74262        0.367063        0.326185        0.384323 
        1.74876        0.365018        0.323428        0.382008 
        1.75489        0.362002        0.320708        0.379175 
        1.76101        0.358523        0.318021        0.375763 
        1.76715        0.355978        0.315361        0.373138 
        1.77329        0.352936        0.312728        0.370549 
        1.77943        0.349998        0.310124        0.367488 
        1.78557        0.348309        0.307554        0.364218 
        1.79171        0.345268        0.305012        0.361086 
        1.79785        0.341938        0.302499        0.358488 
        1.80399        0.338464        0.300014        0.356213 
        1.81012        0.336716        0.297561        0.352726 
        1.81625        0.334554        0.295136        0.349843 
        1.82239        0.332143        0.292734        0.348214 
        1.82853         0.32881        0.290361        0.345941 
        1.83466        0.326183        0.288016        0.342962 
        1.84078         0.32334          0.2857        0.340057 
        1.84692        0.321319        0.283405        0.337897 
        1.85306        0.318987        0.281133        0.335062 
         1.8592        0.316437        0.278889        0.332055 
        1.86533        0.314429        0.276671        0.330041 
        1.87147         0.31118        0.274475        0.327769 
        1.87761        0.308911        0.272301        0.325516 
