# k  (h/Mpc)    P(k)  (Mpc/h)^3    P_linear(k)  (Mpc/h)^3     P_NL(k)  ShotnoiseSubtracted = false
     0.00783031           10996         11048.4         11004.4 
       0.013688         13513.5         13830.6         13750.6 
       0.019231         14004.1         14191.9         14083.8 
      0.0249154         13298.8         13279.5         13171.5 
      0.0312784         11494.5         11597.7         11494.4 
      0.0375637         9732.92         9884.96         9794.37 
      0.0433917         8514.99            8554         8462.48 
      0.0492413          7470.1         7554.47         7471.36 
      0.0555754         6787.03         6811.22         6737.12 
      0.0619321         6107.67         6304.19         6231.12 
       0.067871         5819.79         5927.28         5856.84 
      0.0738098         5486.34         5551.66         5442.04 
      0.0800417         5057.42         5105.87         5004.58 
      0.0862327         4546.44          4608.7         4552.06 
      0.0921407         4088.23         4118.38         4076.03 
      0.0982031          3682.7         3647.43         3660.62 
       0.104506         3240.01         3234.96         3293.94 
       0.110769         2957.65          2923.4          2966.9 
       0.116806         2799.92         2711.98         2754.63 
       0.122832         2626.33         2567.58         2614.93 
       0.129052         2506.44         2458.21         2496.94 
       0.135211         2443.05         2359.01         2389.74 
       0.141259          2289.8         2248.22         2289.94 
       0.147318         2132.14         2114.45         2176.08 
       0.153489         2001.74          1958.3         2001.96 
       0.159709         1895.42         1793.93         1870.11 
       0.165845         1715.04          1640.9         1764.31 
       0.171974          1651.4         1509.82         1640.64 
       0.178125         1572.71         1406.31         1566.52 
       0.184229         1451.95         1330.61         1482.27 
        0.19034         1425.32         1275.76         1420.15 
       0.196428         1385.26            1233         1358.84 
       0.202534         1303.11         1192.81         1317.96 
       0.208729         1283.69         1147.55         1258.87 
       0.214876         1230.75         1094.76         1229.65 
       0.220989         1157.22         1035.21         1184.52 
       0.227147         1124.13         971.937         1133.56 
        0.23329         1075.31         910.593         1093.05 
       0.239377         1056.37         855.984         1044.19 
       0.245482         1000.03         809.961         991.059 
       0.251667         960.793         772.705         962.635 
       0.257832         947.329         743.473         926.642 
       0.263955         900.753         719.504         896.523 
       0.270079         873.697         697.509          871.16 
        0.27624         838.138         674.827         844.276 
       0.282372         823.673         650.155         823.808 
        0.28843         814.567         623.586         801.158 
       0.294538         772.742         595.437         779.431 
       0.300721         751.894         567.084         756.581 
        0.30691         736.771         540.408         739.379 
       0.313033         703.778         516.826         712.428 
       0.319153         692.873         496.507         691.537 
       0.325316         682.139          479.08         676.319 
        0.33145         666.888         464.051         651.376 
       0.337538         643.229         450.441         637.322 
       0.343633         625.736         437.203         630.469 
       0.349808         611.655         423.553         618.728 
       0.355968         599.985         409.379         607.418 
       0.362074          579.54         394.948         593.635 
       0.368217         576.857         380.385         575.853 
       0.374374         566.313         366.272         563.541 
       0.380519         543.964         353.088         549.764 
       0.386598         538.557         341.174         542.057 
       0.392688         525.668         330.442         526.561 
        0.39888         512.139         320.559         517.447 
       0.405048         502.487         311.499         510.329 
       0.411186         500.727         302.935         497.173 
       0.417313         494.788         294.541         487.324 
       0.423458         480.494          286.15         480.086 
       0.429607         467.142         277.726         470.715 
       0.435692         460.323         269.419         461.044 
       0.441815         452.509         261.244         457.218 
       0.447964         443.051         253.358         448.853 
       0.454126          437.75         245.877         436.678 
       0.460267         430.583         238.914         434.102 
       0.466387         423.125         232.455         425.539 
        0.47254         416.871          226.35         419.405 
       0.478662         407.986         220.579         411.327 
       0.484765          403.32         215.038         403.406 
       0.490885         398.945         209.613         397.971 
       0.497035         390.743         204.234         393.406 
       0.503198         390.035          198.93         387.742 
       0.509342         380.832          193.76         382.899 
       0.515458         374.395         188.758         379.402 
       0.521598         368.736         183.914         372.456 
       0.527764         362.985         179.261         367.794 
       0.533884         360.921         174.872         362.996 
           0.54         355.715         170.695         357.366 
       0.546137         348.266         166.679         353.186 
       0.552299         347.316         162.792         347.851 
       0.558452          341.41         159.033         344.133 
       0.564573         338.349         155.395         341.267 
       0.570708         333.395         151.835         337.751 
       0.576825         327.419         148.362         331.205 
       0.582926         325.267         144.984         327.825 
       0.589034         320.085         141.699         323.859 
       0.595184         317.749         138.503          318.79 
       0.601379         312.624         135.404         316.467 
       0.607522         306.477         132.441          312.51 
       0.613639         305.144         129.593         310.096 
       0.619772         303.697         126.829         307.868 
       0.625918         298.418         124.145         303.368 
       0.632068         294.936         121.538         299.239 
       0.638161         292.532         119.026         297.436 
         0.6443         289.401         116.563         294.364 
       0.650464         285.062         114.152         289.096 
       0.656582         282.432         111.819         286.822 
       0.662703         280.469         109.546         285.279 
       0.668861         275.331         107.324         282.255 
       0.675024         274.242         105.166         279.319 
       0.681124         270.828         103.095         275.582 
       0.687237         268.601         101.082         272.971 
       0.693381           264.9         99.1182         270.272 
       0.699536         263.077         97.2055         268.171 
       0.705665         260.231         95.3516         265.902 
       0.711789          257.92         93.5458         263.484 
       0.717957         254.978         91.7713          261.42 
        0.72409         251.873         90.0503         259.438 
       0.730186         253.329         88.3825         257.018 
       0.736317         248.672         86.7474         254.102 
       0.742472         246.006         85.1481         251.676 
       0.748622         242.964          83.592         249.207 
        0.75476         243.059           82.08         248.479 
       0.760888         239.898         80.6095         245.013 
       0.767043         236.845         79.1704         243.513 
       0.773185         235.366         77.7705         241.749 
       0.779291         232.068         76.4129         239.064 
       0.785407          231.04         75.0859         237.146 
       0.791564         228.874         73.7819         235.478 
       0.797719         225.216         72.5091         234.036 
       0.803834         226.647         71.2741         232.223 
       0.809972         223.508         70.0632         230.287 
       0.816124         220.238         68.8777         228.196 
       0.822261         218.492         67.7229          226.55 
       0.828378         218.195         66.5981          224.36 
       0.834502         214.973         65.4982         222.947 
       0.840667         215.008         64.4162          221.18 
       0.846816         211.081         63.3622          219.74 
       0.852925         210.613         62.3387         218.074 
       0.859047         208.439          61.336         216.575 
       0.865192         208.064         60.3524         214.753 
       0.871341          205.24         59.3899          213.05 
       0.877463         203.451         58.4529         211.957 
       0.883569         203.024         57.5388         210.793 
       0.889708         200.898         56.6396         208.777 
       0.895864         199.094         55.7574         207.677 
       0.902008         197.204          54.896         205.873 
       0.908149         195.527         54.0533         204.041 
       0.914301          194.34         53.2271         202.905 
       0.920448         193.881         52.4189         201.287 
       0.926574          191.54         51.6304         199.659 
       0.932687         190.747           50.86         198.446 
       0.938823         189.133         50.1025         197.595 
       0.944975         188.086         49.3588         196.499 
       0.951105          186.05          48.633         194.834 
       0.957225         184.872         47.9231         193.369 
       0.963368         184.032         47.2251         191.731 
       0.969511          181.28          46.541         190.472 
       0.975621          180.05         45.8742         190.222 
       0.981748          179.24         45.2189         188.766 
       0.987916         178.303         44.5724         187.549 
        0.99406         176.809          43.941         186.311 
        1.00019         175.712         43.3232         184.883 
        1.00632         174.749         42.7179         183.357 
        1.01246         173.259         42.1233          181.87 
        1.01859         171.755         41.5411         181.428 
        1.02471         170.434         40.9707          180.76 
        1.03085         169.437         40.4091         179.482 
        1.03698         168.248         39.8592         178.429 
        1.04314         167.826         39.3174         177.185 
        1.04929         166.683         38.7869           176.1 
        1.05541         165.459         38.2683         175.122 
        1.06154         163.835          37.758         174.137 
        1.06769         162.966         37.2563         173.285 
        1.07382         162.297         36.7654         172.141 
        1.07993         160.596         36.2846          171.01 
        1.08607         159.796         35.8103         170.221 
        1.09222         158.528         35.3442         169.453 
        1.09836         157.827         34.8869          168.42 
        1.10449         156.398         34.4382          167.39 
        1.11063         155.344          33.997         166.097 
        1.11677         154.623         33.5637          165.15 
         1.1229          153.39         33.1388          164.29 
        1.12903         152.487         32.7209         163.409 
        1.13518         151.284         32.3098         162.508 
        1.14131         150.614         31.9061         161.319 
        1.14745         149.355         31.5095         160.657 
        1.15359          147.97         31.1196         159.666 
        1.15973          147.66         30.7362         158.939 
        1.16584         146.724          30.361         157.541 
        1.17197         145.857         29.9915         157.051 
        1.17811         144.449         29.6271         156.454 
        1.18424          143.84         29.2698         155.235 
        1.19038         142.934         28.9174         154.751 
        1.19652         141.797         28.5709         153.965 
        1.20267         140.985         28.2302         152.911 
        1.20881         139.884         27.8951         152.233 
        1.21495         139.542          27.566         151.195 
        1.22108         138.436         27.2423         150.755 
         1.2272         137.386         26.9246         149.458 
        1.23334          136.87         26.6112         149.142 
        1.23949         136.228         26.3021         148.157 
        1.24562         135.108         25.9988         147.086 
        1.25174         134.376         25.7007         146.529 
        1.25789         133.253         25.4064         145.768 
        1.26402         133.031         25.1173         144.957 
        1.27014         132.095         24.8334          144.73 
        1.27628         130.777          24.553         144.301 
        1.28244         130.373         24.2765         142.931 
        1.28858         129.351         24.0046         142.095 
        1.29471         128.567         23.7375         141.479 
        1.30084         127.705         23.4747         140.659 
        1.30697         126.919         23.2156         140.104 
        1.31312         126.091         22.9599         139.153 
        1.31925         125.185          22.709          138.55 
        1.32537         124.743         22.4621         138.086 
        1.33151         124.137         22.2179          137.22 
        1.33765         122.956         21.9776         136.631 
        1.34378         122.774         21.7412         135.944 
        1.34992         122.044         21.5082          135.13 
        1.35606         121.184         21.2782          134.38 
         1.3622         120.776         21.0519         133.845 
        1.36833         119.401         20.8294         133.003 
        1.37445         119.279         20.6103         132.387 
        1.38059           118.4         20.3937         131.709 
        1.38675         117.624         20.1796          130.97 
        1.39288         116.778         19.9695         130.197 
        1.39901         116.124         19.7625         129.865 
        1.40515         115.681          19.558         129.394 
         1.4113         114.889         19.3564         128.783 
        1.41742         114.131         19.1585         128.245 
        1.42355         113.893         18.9629         127.542 
         1.4297         112.867         18.7696         126.915 
        1.43585          112.25          18.579         126.059 
        1.44198         111.253         18.3917         125.572 
        1.44809          110.66         18.2075         125.074 
        1.45423         110.443          18.025         124.311 
        1.46036         109.397         17.8454         123.752 
        1.46649         108.824         17.6682         123.375 
        1.47263         108.327         17.4933         122.842 
        1.47877         107.471         17.3208         121.933 
        1.48491         107.086         17.1504         121.571 
        1.49104         105.839         16.9826         121.229 
        1.49718         105.686          16.817          120.18 
        1.50333         105.268         16.6533         119.636 
        1.50947         104.576         16.4921         119.213 
         1.5156          103.97         16.3333         118.658 
        1.52172         103.236         16.1766          118.16 
        1.52787         102.768         16.0217         117.515 
          1.534         102.151          15.869         117.047 
        1.54013          101.62         15.7184         116.544 
        1.54627         100.814         15.5695         115.997 
        1.55241         100.581         15.4225         115.502 
        1.55855         99.7883         15.2777         114.895 
        1.56467         99.1127         15.1351         114.323 
         1.5708          98.343         14.9939         113.881 
        1.57695         98.1398         14.8543         113.393 
        1.58308         97.4247         14.7168         112.797 
        1.58922          97.364          14.581         112.254 
        1.59535         96.8168         14.4469         111.799 
         1.6015          95.813         14.3144         111.237 
        1.60764         95.2463         14.1836         110.751 
        1.61376         94.8232         14.0547         110.509 
        1.61989         94.3919         13.9274         110.046 
        1.62604         93.7513         13.8014         109.224 
        1.63218         93.3245          13.677         108.703 
        1.63831         92.6965         13.5544         108.508 
        1.64444         92.0631         13.4333         107.869 
        1.65059         91.5607         13.3133         107.292 
        1.65673         91.3258          13.195           106.9 
        1.66285         90.7468         13.0784         106.505 
        1.66898         90.0426         12.9632         105.985 
        1.67512         89.6051         12.8492         105.544 
        1.68127         89.1785         12.7365         105.006 
         1.6874         88.4285         12.6253         104.505 
        1.69353         87.9613         12.5156         104.215 
        1.69967         87.5405         12.4069         103.713 
        1.70581         87.2501         12.2995         103.154 
        1.71193         86.5797         12.1938         102.738 
        1.71806         86.1182         12.0891          102.45 
        1.72421          85.556         11.9855         101.978 
        1.73035         85.1969         11.8832         101.376 
        1.73649          84.572         11.7821         100.866 
        1.74262          84.218         11.6823           100.6 
        1.74876         83.6588         11.5835         100.178 
        1.75489         83.2699         11.4861         99.6257 
        1.76101         82.7577         11.3899         99.1393 
        1.76715         82.2402         11.2946         98.7591 
        1.77329         81.8347         11.2003         98.3821 
        1.77943         81.4395         11.1071         97.9416 
        1.78557         81.0204          11.015         97.4727 
        1.79171         80.5402          10.924         97.0928 
        1.79785         79.8685         10.8339         96.7561 
        1.80399         79.8225          10.745         96.3437 
        1.81012         79.0716         10.6571         95.8377 
        1.81625         78.6354         10.5703          95.391 
        1.82239         78.2743         10.4842         95.0469 
        1.82853         77.7974         10.3992         94.6844 
        1.83466         77.2381         10.3153         94.2504 
        1.84078         77.0291         10.2323         93.8592 
        1.84692         76.7783         10.1501         93.6396 
        1.85306         76.2398         10.0687         93.1903 
         1.8592         75.8567         9.98837         92.6595 
        1.86533          75.344         9.90894         92.3219 
        1.87147          74.967         9.83028         91.7659 
        1.87761         74.3071         9.75244         91.3399 
