# k  (h/Mpc)    P(k)  (Mpc/h)^3    P_linear(k)  (Mpc/h)^3     P_NL(k)  ShotnoiseSubtracted = false
     0.00783031         2692.77         2709.57         2699.63 
       0.013688         3347.07         3393.35         3378.41 
       0.019231         3460.02         3482.62          3464.1 
      0.0249154         3263.01         3259.08         3245.31 
      0.0312784         2840.01         2846.52         2838.95 
      0.0375637         2414.11         2426.25         2420.93 
      0.0433917         2102.67         2099.62         2095.91 
      0.0492413         1849.99         1854.32         1851.57 
      0.0555754         1677.31         1671.91         1668.96 
      0.0619321         1528.72         1547.47         1544.27 
       0.067871         1449.43         1454.96         1451.03 
      0.0738098         1360.44         1362.77            1356 
      0.0800417         1254.54         1253.35         1247.11 
      0.0862327         1128.88         1131.31         1128.21 
      0.0921407         1009.66         1010.96         1009.27 
      0.0982031         901.283         895.354         897.721 
       0.104506         793.441         794.104         799.738 
       0.110769         719.558         717.625         721.965 
       0.116806         675.071         665.728         669.807 
       0.122832         633.988         630.282         634.653 
       0.129052         608.876         603.437          606.91 
       0.135211         587.663         579.085         582.101 
       0.141259         555.833         551.888         555.438 
       0.147318         518.701         519.052           524.5 
       0.153489         483.606         480.721         484.589 
       0.159709         448.222         440.372         446.664 
       0.165845         405.464         402.807         412.934 
       0.171974         382.769         370.631         380.822 
       0.178125         358.005         345.219         357.648 
       0.184229         335.386         326.639         338.768 
        0.19034         325.347         313.173         324.475 
       0.196428         314.353         302.676          311.85 
       0.202534         298.459         292.812         301.923 
       0.208729         291.432         281.701         290.197 
       0.214876         280.282         268.743         279.481 
       0.220989         260.909         254.124         265.814 
       0.227147         250.962         238.591         250.759 
        0.23329         237.486         223.533          237.69 
       0.239377         226.512         210.127         225.139 
       0.245482         213.762          198.83         212.789 
       0.251667         203.463         189.684         204.556 
       0.257832         199.526         182.508         196.761 
       0.263955         189.994         176.624         190.074 
       0.270079          183.85         171.225         184.179 
        0.27624          176.65         165.657         177.928 
       0.282372         171.184         159.601         172.399 
        0.28843         168.171         153.078         166.129 
       0.294538         160.046         146.168         159.898 
       0.300721         152.227         139.208         153.869 
        0.30691         148.194          132.66         147.726 
       0.313033         141.415         126.871         141.593 
       0.319153          138.31         121.883         136.944 
       0.325316          132.53         117.605          132.89 
        0.33145         128.422         113.916         128.337 
       0.337538         124.723         110.575         124.536 
       0.343633         121.201         107.325         121.497 
       0.349808         117.466         103.974         118.424 
       0.355968         113.953         100.495         115.657 
       0.362074         111.466         96.9523         111.901 
       0.368217         108.234         93.3773         107.735 
       0.374374         105.419         89.9129         104.752 
       0.380519         100.694         86.6765          101.32 
       0.386598         97.9399         83.7518         98.4992 
       0.392688         94.9526         81.1173         95.9415 
        0.39888         93.1507         78.6912         93.1069 
       0.405048         90.9713         76.4673         90.8158 
       0.411186         88.8028         74.3649         89.1037 
       0.417313         86.3726         72.3042         86.4071 
       0.423458         84.0954         70.2444         84.5236 
       0.429607         82.5049         68.1766         82.3412 
       0.435692         80.9623         66.1374         80.4522 
       0.441815         78.0251         64.1304         78.9374 
       0.447964         75.5277         62.1948         76.6591 
       0.454126         74.1219         60.3583         74.5255 
       0.460267         73.3707          58.649         73.1615 
       0.466387         71.3526         57.0633         71.2449 
        0.47254         70.3683         55.5648         69.8571 
       0.478662         67.9788         54.1479         68.2904 
       0.484765         66.6989         52.7877         66.6019 
       0.490885         64.9091         51.4561         65.6315 
       0.497035         64.0952         50.1356         64.4449 
       0.503198         62.5372         48.8337         62.7922 
       0.509342         60.8607         47.5644         61.6772 
       0.515458         60.0385         46.3365         60.8036 
       0.521598         58.5507         45.1475         59.0281 
       0.527764         57.7818         44.0051          57.537 
       0.533884          56.748         42.9278         56.5123 
           0.54         55.4008         41.9025         55.4801 
       0.546137         53.8106         40.9166         54.6615 
       0.552299         52.9165         39.9624         53.3217 
       0.558452         51.8215         39.0396         52.2716 
       0.564573         51.4248         38.1466          51.627 
       0.570708         49.9167         37.2728         50.6823 
       0.576825         49.3608         36.4202         49.7443 
       0.582926          48.578         35.5908         48.8823 
       0.589034         47.6023         34.7844         48.1978 
       0.595184         46.9226         33.9999         47.1576 
       0.601379         45.6693         33.2391         46.5407 
       0.607522         44.9514         32.5119         45.4776 
       0.613639         44.3487         31.8126         44.7866 
       0.619772         43.5225         31.1341         44.0556 
       0.625918         42.7342         30.4752         43.5051 
       0.632068         42.3309         29.8352         42.6262 
       0.638161         41.4273         29.2188         41.9873 
         0.6443          40.891          28.614         41.2206 
       0.650464         39.8955         28.0221         40.6483 
       0.656582          39.639         27.4494         40.0892 
       0.662703         39.1127         26.8916         39.3363 
       0.668861         38.1297         26.3461         38.8854 
       0.675024         37.7404         25.8162         38.1372 
       0.681124         37.3934         25.3078         37.5677 
       0.687237          36.626         24.8138         36.9726 
       0.693381          36.006         24.3317         36.4046 
       0.699536         35.7576         23.8622         36.0503 
       0.705665         35.0882         23.4071         35.5837 
       0.711789         34.4939         22.9638         34.8543 
       0.717957         33.8393         22.5282         34.4936 
        0.72409         33.5247         22.1057         34.0836 
       0.730186         33.3294         21.6963         33.5419 
       0.736317         32.6557         21.2949         33.0533 
       0.742472         32.2587         20.9023         32.7061 
       0.748622         31.7216         20.5203         32.1622 
        0.75476         31.0131         20.1491         31.7692 
       0.760888         30.9364         19.7881          31.394 
       0.767043         30.3661         19.4349         31.0515 
       0.773185         30.0557         19.0912         30.6226 
       0.779291          29.675          18.758         30.2867 
       0.785407          29.211         18.4322         29.8381 
       0.791564         29.0798         18.1121         29.4716 
       0.797719         28.4502         17.7997         29.1355 
       0.803834         28.3029         17.4965         28.7062 
       0.809972         27.7956         17.1992         28.4264 
       0.816124         27.4978         16.9082         28.0427 
       0.822261         27.1697         16.6247         27.6561 
       0.828378         26.9218         16.3486         27.3046 
       0.834502         26.6113         16.0786         27.1313 
       0.840667         26.3395          15.813         26.7242 
       0.846816         25.7844         15.5543         26.4431 
       0.852925          25.699          15.303         26.2981 
       0.859047         25.4212         15.0569         25.8553 
       0.865192         25.0368         14.8154         25.5555 
       0.871341         24.7299         14.5791         25.3444 
       0.877463          24.472         14.3491         25.0384 
       0.883569         24.3261         14.1247         24.8032 
       0.889708         23.9539          13.904         24.4758 
       0.895864         23.6516         13.6874         24.1843 
       0.902008         23.3734          13.476         23.9741 
       0.908149         23.1125         13.2691         23.7604 
       0.914301         22.9769         13.0663         23.5837 
       0.920448         22.6388         12.8679         23.2314 
       0.926574         22.4049         12.6743         22.9686 
       0.932687         22.1522         12.4852         22.7093 
       0.938823         21.8662         12.2992         22.4927 
       0.944975         21.6954         12.1167         22.2692 
       0.951105         21.4777         11.9385          21.994 
       0.957225         21.3355         11.7642         21.8532 
       0.963368         20.9953         11.5929         21.5963 
       0.969511         20.8111          11.425         21.3931 
       0.975621         20.6221         11.2613         21.1924 
       0.981748         20.3607         11.1004         21.0284 
       0.987916         20.2369         10.9417         20.7695 
        0.99406          19.971         10.7867         20.5896 
        1.00019         19.8382         10.6351         20.4028 
        1.00632         19.6531         10.4865         20.2362 
        1.01246         19.4771         10.3405         20.1056 
        1.01859         19.2305         10.1976         19.8828 
        1.02471         19.0452         10.0576           19.66 
        1.03085         18.9586         9.91969         19.4973 
        1.03698         18.7824         9.78472         19.3265 
        1.04314         18.5469         9.65169         19.1161 
        1.04929         18.3228         9.52146         18.9947 
        1.05541         18.2448         9.39417         18.8744 
        1.06154         18.0978         9.26891         18.6337 
        1.06769         17.8779         9.14575          18.457 
        1.07382         17.6782         9.02525         18.3414 
        1.07993         17.5307          8.9072         18.1729 
        1.08607           17.43         8.79078         18.0182 
        1.09222         17.2296         8.67635         17.8914 
        1.09836         17.1061         8.56409         17.7088 
        1.10449         16.9527         8.45396         17.5474 
        1.11063         16.8412         8.34565         17.4369 
        1.11677         16.7402         8.23929         17.2554 
         1.1229         16.5632         8.13497         17.1415 
        1.12903         16.4193         8.03238         17.0273 
        1.13518         16.2626         7.93148         16.8507 
        1.14131         16.1595         7.83237         16.7222 
        1.14745         15.9333         7.73501         16.5885 
        1.15359         15.7913          7.6393         16.4549 
        1.15973         15.6778         7.54518         16.3288 
        1.16584         15.5494         7.45307         16.2356 
        1.17197         15.3906         7.36237         16.1348 
        1.17811         15.2958         7.27291         15.9278 
        1.18424         15.1742          7.1852         15.8484 
        1.19038         15.0932         7.09869         15.7328 
        1.19652         14.9291         7.01365         15.5854 
        1.20267         14.8462            6.93         15.4766 
        1.20881         14.6752         6.84774         15.4015 
        1.21495         14.5822         6.76696         15.2738 
        1.22108         14.5291         6.68749         15.1595 
         1.2272         14.3989         6.60949         15.0277 
        1.23334         14.2977         6.53257         14.9541 
        1.23949         14.1663         6.45669         14.8218 
        1.24562         14.0222         6.38223         14.7016 
        1.25174         13.9665         6.30906         14.6184 
        1.25789         13.8352         6.23682          14.503 
        1.26402         13.7674         6.16584         14.3831 
        1.27014          13.687         6.09615         14.2975 
        1.27628         13.5125         6.02733         14.1839 
        1.28244         13.5014         5.95944         14.1316 
        1.28858          13.351          5.8927         14.0024 
        1.29471         13.1886         5.82713         13.9044 
        1.30084         13.1137         5.76262         13.8623 
        1.30697         13.0828           5.699         13.7333 
        1.31312         12.9509         5.63625         13.6291 
        1.31925         12.8791         5.57465         13.5771 
        1.32537         12.7706         5.51403         13.4949 
        1.33151          12.683         5.45409         13.3815 
        1.33765         12.6078         5.39509          13.283 
        1.34378          12.554         5.33708         13.2058 
        1.34992         12.4276         5.27989         13.1293 
        1.35606         12.3167         5.22341         13.0257 
         1.3622         12.2246         5.16785         12.9393 
        1.36833         12.1937         5.11325          12.899 
        1.37445         12.1139         5.05945         12.7864 
        1.38059         12.0221         5.00627         12.6831 
        1.38675         11.9431         4.95373         12.6402 
        1.39288         11.8239         4.90215         12.5459 
        1.39901         11.7671         4.85134          12.473 
        1.40515         11.6803         4.80113         12.4002 
         1.4113         11.6013         4.75165         12.3274 
        1.41742         11.5519         4.70306         12.2558 
        1.42355         11.4358         4.65506         12.1616 
         1.4297         11.3824         4.60759         12.1006 
        1.43585         11.3178          4.5608         12.0456 
        1.44198          11.257         4.51484         11.9614 
        1.44809         11.1717          4.4696         11.8987 
        1.45423         11.0909         4.42482         11.8219 
        1.46036          11.027         4.38073         11.7421 
        1.46649         10.9518         4.33723         11.6794 
        1.47263         10.8999         4.29429         11.6301 
        1.47877          10.825         4.25195         11.5636 
        1.48491         10.7621         4.21011         11.4643 
        1.49104         10.6784         4.16893         11.4174 
        1.49718         10.6359         4.12827         11.3609 
        1.50333         10.5705         4.08809         11.2921 
        1.50947         10.4985         4.04852         11.2369 
         1.5156         10.4572         4.00954         11.1761 
        1.52172         10.3679         3.97107         11.0981 
        1.52787         10.3256         3.93304         11.0313 
          1.534         10.2632         3.89555         10.9761 
        1.54013         10.2105         3.85858         10.8976 
        1.54627         10.1297         3.82203         10.8362 
        1.55241         10.0476         3.78596         10.7985 
        1.55855         10.0242         3.75039         10.7392 
        1.56467         9.96748         3.71539         10.6769 
         1.5708         9.91656         3.68073         10.6362 
        1.57695          9.8425         3.64647         10.5806 
        1.58308          9.7684         3.61272         10.5196 
        1.58922         9.73881         3.57937         10.4811 
        1.59535          9.6768         3.54646         10.4185 
         1.6015         9.57998         3.51392         10.3543 
        1.60764         9.54376         3.48181         10.2987 
        1.61376         9.51421         3.45018         10.2467 
        1.61989         9.43151         3.41892         10.2069 
        1.62604         9.40978         3.38798         10.1581 
        1.63218         9.36079         3.35745         10.1016 
        1.63831         9.28524         3.32736         10.0511 
        1.64444         9.21974         3.29762         10.0016 
        1.65059         9.16697         3.26818         9.93892 
        1.65673         9.14698         3.23913         9.89959 
        1.66285         9.07799         3.21052         9.86016 
        1.66898         9.05087         3.18224         9.79668 
        1.67512          9.0002         3.15425            9.75 
        1.68127         8.91536         3.12657          9.6966 
         1.6874         8.89856         3.09929         9.64624 
        1.69353         8.82128         3.07235         9.61731 
        1.69967         8.79226         3.04566         9.56704 
        1.70581         8.74019          3.0193         9.52024 
        1.71193          8.7078         2.99336         9.48175 
        1.71806         8.65871         2.96767         9.43137 
        1.72421         8.59945         2.94222         9.39394 
        1.73035         8.56344         2.91711         9.34806 
        1.73649         8.53278         2.89229         9.29301 
        1.74262         8.43843         2.86778         9.26245 
        1.74876         8.44545         2.84355         9.21531 
        1.75489         8.39231         2.81964         9.15535 
        1.76101         8.32558         2.79601         9.11011 
        1.76715         8.30934         2.77262         9.08954 
        1.77329         8.25859         2.74948         9.04667 
        1.77943         8.19276         2.72658         8.99377 
        1.78557         8.19239         2.70398          8.9598 
        1.79171          8.1374         2.68164         8.91467 
        1.79785         8.10993         2.65954         8.86619 
        1.80399         8.04037          2.6377         8.83478 
        1.81012         8.01662         2.61613         8.80304 
        1.81625         7.95712         2.59481         8.76876 
        1.82239         7.92587         2.57369          8.7317 
        1.82853         7.87336         2.55283         8.68739 
        1.83466         7.82094         2.53221         8.65302 
        1.84078         7.80587         2.51185         8.62096 
        1.84692         7.77358         2.49167         8.56924 
        1.85306          7.7334         2.47169         8.53325 
         1.8592         7.70565         2.45197         8.50725 
        1.86533         7.65819         2.43247         8.46255 
        1.87147         7.61711         2.41316         8.41998 
        1.87761          7.5906         2.39405         8.38785 
