# k  (h/Mpc)    Pcb(k)  (Mpc/h)^3    Pcb_linear(k) (Mpc/h)^3    Pcb_NL(k) (Mpc/h)^3   ShotnoiseSubtracted = false
     0.00783031         16888.9         16960.6         16886.7 
       0.013688         20642.9         21228.4         21083.7 
       0.019231         21411.4         21781.5           21580 
      0.0249154         20391.4         20380.4         20159.3 
      0.0312784         17560.5         17798.8           17564 
      0.0375637         14843.8           15170         14959.7 
      0.0433917         13005.9         13127.3         12908.6 
      0.0492413           11399         11593.3         11391.6 
      0.0555754         10353.7         10452.6         10274.6 
      0.0619321         9271.67         9674.47         9500.68 
       0.067871         8841.53         9096.03         8931.12 
      0.0738098         8357.78         8519.57         8267.08 
      0.0800417         7693.68         7835.45            7603 
      0.0862327         6919.48         7072.46         6938.48 
      0.0921407         6244.28         6320.02            6218 
      0.0982031         5650.33          5597.3         5614.89 
       0.104506          4978.8         4964.32         5082.01 
       0.110769         4561.65          4486.2         4576.52 
       0.116806         4325.69         4161.75         4250.42 
       0.122832         4069.15         3940.15         4037.48 
       0.129052         3860.75         3772.33         3853.76 
       0.135211         3778.78         3620.09         3680.89 
       0.141259         3528.03         3450.06         3537.55 
       0.147318         3295.08         3244.79         3367.54 
       0.153489         3102.39         3005.16         3097.09 
       0.159709         2965.38         2752.92         2912.88 
       0.165845         2695.95         2518.09         2771.46 
       0.171974         2602.05         2316.94            2593 
       0.178125         2501.57         2158.08         2491.98 
       0.184229         2300.16         2041.93         2355.17 
        0.19034          2270.6         1957.75         2258.75 
       0.196428         2210.71         1892.12         2165.19 
       0.202534         2087.56         1830.46         2101.42 
       0.208729         2051.29            1761         2002.41 
       0.214876         1962.83            1680         1960.61 
       0.220989         1868.44         1588.61         1900.65 
       0.227147            1813         1491.51         1834.96 
        0.23329         1738.19         1397.37         1776.47 
       0.239377         1724.64         1313.57         1701.68 
       0.245482         1641.51         1242.94         1622.18 
       0.251667         1581.14         1185.77         1578.46 
       0.257832         1554.11         1140.91         1522.35 
       0.263955         1486.73         1104.13         1476.93 
       0.270079         1450.65         1070.38         1436.82 
        0.27624         1391.14         1035.56         1396.01 
       0.282372         1376.39         997.709          1371.8 
        0.28843         1350.16         956.936         1343.55 
       0.294538         1290.07         913.738         1306.78 
       0.300721         1266.55          870.23         1268.03 
        0.30691         1233.74         829.293         1248.61 
       0.313033         1187.02         793.104         1206.76 
       0.319153         1174.36         761.923         1170.99 
       0.325316          1159.5         735.185         1149.55 
        0.33145         1133.52         712.118         1108.34 
       0.337538         1097.38         691.233         1090.09 
       0.343633         1072.94          670.92         1078.42 
       0.349808         1054.29         649.969         1061.91 
       0.355968         1032.41          628.22         1044.16 
       0.362074         1001.72         606.076         1025.13 
       0.368217         998.576         583.726         999.811 
       0.374374         982.794         562.071         980.584 
       0.380519         948.988         541.838         959.985 
       0.386598         944.235         523.554         947.247 
       0.392688         919.123         507.086         924.291 
        0.39888         902.089         491.921         909.484 
       0.405048         883.292         478.017         894.419 
       0.411186         880.827         464.873         877.877 
       0.417313         875.331         451.993         866.515 
       0.423458          849.87         439.117         852.409 
       0.429607         827.486         426.189         838.064 
       0.435692         819.849         413.443         820.972 
       0.441815         804.016         400.897         817.475 
       0.447964          794.71         388.796         806.146 
       0.454126         784.372         377.315         783.333 
       0.460267         774.764         366.632         781.378 
       0.466387         760.812         356.717         767.106 
        0.47254         749.471         347.351         756.405 
       0.478662         738.531         338.493         744.737 
       0.484765         730.298         329.991         736.052 
       0.490885         722.617         321.663         722.903 
       0.497035         708.413         313.411         716.385 
       0.503198          707.37         305.272         708.195 
       0.509342         694.207         297.337         696.467 
       0.515458         680.473         289.662         691.892 
       0.521598         679.344         282.229         684.347 
       0.527764         663.259         275.088         677.205 
       0.533884         655.934         268.352         668.911 
           0.54         651.393         261.944         660.304 
       0.546137         642.254          255.78         652.392 
       0.552299         638.044         249.815         643.451 
       0.558452         629.827         244.046         638.508 
       0.564573         626.105         238.464         633.127 
       0.570708         618.739         233.001         625.813 
       0.576825         606.516         227.673         616.726 
       0.582926         604.819         222.487         612.058 
       0.589034          596.33         217.446         602.631 
       0.595184          589.94         212.543         597.066 
       0.601379         581.081         207.786         591.482 
       0.607522         572.193          203.24         583.019 
       0.613639         571.469         198.869         581.351 
       0.619772         566.703         194.628         579.742 
       0.625918          557.68         190.508         570.916 
       0.632068         555.103         186.508         567.526 
       0.638161         547.709         182.654         558.944 
         0.6443         541.632         178.873         554.876 
       0.650464         537.243         175.173         546.528 
       0.656582         532.855         171.593         543.465 
       0.662703         526.921         168.106         540.009 
       0.668861         520.297         164.696         537.133 
       0.675024         518.134         161.384         532.965 
       0.681124         507.462         158.206          524.43 
       0.687237         507.726         155.117         519.774 
       0.693381         499.444         152.104         515.343 
       0.699536         500.095         149.169         511.909 
       0.705665         492.035         146.324         505.541 
       0.711789         490.996         143.552         502.098 
       0.717957         484.359         140.829         501.158 
        0.72409         480.139         138.188         495.532 
       0.730186         479.291         135.629         490.556 
       0.736317         472.011          133.12         486.884 
       0.742472         467.328         130.666         483.003 
       0.748622         465.969         128.278         478.478 
        0.75476         459.654         125.957         479.347 
       0.760888         457.622         123.701         472.956 
       0.767043         454.395         121.492         467.754 
       0.773185         450.398         119.344         464.806 
       0.779291         445.898         117.261         460.828 
       0.785407         442.471         115.224         458.398 
       0.791564         440.191         113.223         455.955 
       0.797719         433.215          111.27         451.222 
       0.803834         434.051         109.375         449.093 
       0.809972         427.075         107.517         446.064 
       0.816124         423.979         105.698         440.135 
       0.822261          421.14         103.925           438.4 
       0.828378         419.302         102.199         435.149 
       0.834502         412.339         100.511          433.61 
       0.840667          411.57         98.8511          429.59 
       0.846816         407.262         97.2336         426.527 
       0.852925         407.005          95.663         424.047 
       0.859047         402.233         94.1243         420.286 
       0.865192         400.019         92.6148          417.12 
       0.871341          395.04         91.1378         414.995 
       0.877463          394.26            89.7         412.319 
       0.883569         390.465         88.2972         410.533 
       0.889708          386.18         86.9173         406.413 
       0.895864         382.007         85.5636         404.183 
       0.902008         381.096         84.2417         401.287 
       0.908149         377.295         82.9485         397.698 
       0.914301         375.875         81.6806         394.595 
       0.920448         371.246         80.4404         393.151 
       0.926574          369.45         79.2304         390.199 
       0.932687         368.212         78.0481          387.23 
       0.938823         363.971         76.8857         386.693 
       0.944975         362.858         75.7445         383.223 
       0.951105         359.423         74.6307         380.355 
       0.957225         355.028         73.5413         378.405 
       0.963368         355.246         72.4701         376.182 
       0.969511         350.037         71.4203         373.788 
       0.975621         347.949         70.3971         371.116 
       0.981748          346.66         69.3915          369.05 
       0.987916         344.185         68.3994         367.325 
        0.99406         340.437         67.4305         364.854 
        1.00019         337.266         66.4824         361.444 
        1.00632         336.649         65.5535         359.265 
        1.01246         333.528         64.6411         356.717 
        1.01859         330.639         63.7477         354.438 
        1.02471         328.749         62.8723         352.907 
        1.03085         327.266         62.0105         351.597 
        1.03698         325.056         61.1667         350.104 
        1.04314         322.636         60.3351          347.37 
        1.04929         321.328         59.5211          344.32 
        1.05541         317.737         58.7253         342.251 
        1.06154         315.437         57.9423         340.648 
        1.06769          312.97         57.1724         338.285 
        1.07382         310.201         56.4191         336.336 
        1.07993         309.699         55.6811         334.777 
        1.08607         307.899         54.9534         332.131 
        1.09222         304.729          54.238         330.333 
        1.09836         303.096         53.5362         329.194 
        1.10449           300.9         52.8478         327.204 
        1.11063         299.476         52.1707         324.694 
        1.11677         295.993         51.5058         322.859 
         1.1229         295.188         50.8537         321.136 
        1.12903         292.381         50.2124         319.562 
        1.13518         290.667         49.5816         317.194 
        1.14131         289.036         48.9621         315.683 
        1.14745         286.181         48.3535         313.389 
        1.15359         283.847         47.7552         312.322 
        1.15973         282.473         47.1668         310.399 
        1.16584         280.807          46.591         308.947 
        1.17197         278.958          46.024         307.443 
        1.17811         275.814         45.4648         305.404 
        1.18424          274.92         44.9165          303.78 
        1.19038         273.414         44.3757          302.72 
        1.19652         270.553          43.844         300.365 
        1.20267         269.516         43.3212         298.679 
        1.20881          267.72         42.8069          297.28 
        1.21495         265.718         42.3019         295.257 
        1.22108         264.328         41.8052         293.313 
         1.2272         261.002         41.3176          291.82 
        1.23334         259.915         40.8367         290.227 
        1.23949         258.298         40.3623         288.969 
        1.24562         257.047         39.8969         287.168 
        1.25174         255.517         39.4395         285.767 
        1.25789         252.918         38.9879         284.033 
        1.26402         252.024         38.5442         283.188 
        1.27014         250.466         38.1085         281.056 
        1.27628         248.745         37.6783         280.374 
        1.28244          246.16         37.2539         279.093 
        1.28858          245.34         36.8367         277.211 
        1.29471         243.701         36.4268         274.834 
        1.30084         243.127         36.0236         273.674 
        1.30697         240.204         35.6259         272.647 
        1.31312         238.886         35.2336         270.849 
        1.31925         237.539         34.8485         269.472 
        1.32537         236.507         34.4695         267.784 
        1.33151         234.018         34.0949         266.615 
        1.33765         232.299          33.726         265.439 
        1.34378         231.662         33.3634         263.947 
        1.34992         229.068         33.0059         262.277 
        1.35606         227.954         32.6528         260.639 
         1.3622         226.102         32.3055         259.825 
        1.36833         225.847         31.9642         258.813 
        1.37445         224.644         31.6279         256.325 
        1.38059         221.682         31.2954         255.773 
        1.38675         220.293          30.967          254.82 
        1.39288         219.704         30.6446         252.591 
        1.39901         217.517         30.3269         251.428 
        1.40515         216.525          30.013          250.07 
         1.4113         214.937         29.7037         248.579 
        1.41742         213.331            29.4         247.561 
        1.42355          212.36         29.0999         246.127 
         1.4297         210.905         28.8032         244.745 
        1.43585         209.586         28.5107         244.181 
        1.44198         208.102         28.2234         242.637 
        1.44809         206.959         27.9406         241.544 
        1.45423         205.678         27.6606         239.605 
        1.46036          204.83          27.385         238.698 
        1.46649         203.112         27.1131         237.875 
        1.47263         201.597         26.8446         236.346 
        1.47877         200.435           26.58         234.858 
        1.48491         198.909         26.3184         233.479 
        1.49104         196.958          26.061         232.685 
        1.49718         196.419         25.8068         231.896 
        1.50333         194.811         25.5556         230.539 
        1.50947         193.577         25.3083         229.449 
         1.5156         192.497         25.0646         228.267 
        1.52172         191.203         24.8242         226.651 
        1.52787         190.027         24.5864         225.852 
          1.534         189.412          24.352         224.736 
        1.54013         187.584         24.1209         223.593 
        1.54627         186.731         23.8925          222.77 
        1.55241         185.644         23.6669          221.71 
        1.55855         184.291         23.4446         220.365 
        1.56467         183.196         23.2258         219.136 
         1.5708          181.67         23.0092         218.067 
        1.57695         181.055          22.795         217.013 
        1.58308         179.901          22.584         215.897 
        1.58922         178.341         22.3755         214.795 
        1.59535         177.138         22.1698         213.947 
         1.6015         176.329         21.9664         213.025 
        1.60764         174.893         21.7656         211.833 
        1.61376         173.718         21.5679         210.675 
        1.61989         172.635         21.3725         209.676 
        1.62604         171.843         21.1791         208.537 
        1.63218         170.515         20.9882         207.551 
        1.63831         169.758         20.8001         206.715 
        1.64444         168.241         20.6142         205.684 
        1.65059          167.39         20.4302         204.819 
        1.65673         166.345         20.2486         203.754 
        1.66285         165.234         20.0697           202.6 
        1.66898         164.387          19.893         201.638 
        1.67512         163.149          19.718         200.767 
        1.68127         162.201          19.545         199.869 
         1.6874         161.161         19.3744         198.944 
        1.69353         160.497          19.206         198.007 
        1.69967         159.112         19.0392         196.995 
        1.70581         158.423         18.8744         196.161 
        1.71193         157.174         18.7122         195.271 
        1.71806         156.145         18.5516         193.937 
        1.72421         155.212         18.3925         193.117 
        1.73035         154.176         18.2355         192.367 
        1.73649         152.952         18.0804          191.35 
        1.74262          152.22         17.9272         190.472 
        1.74876          151.41         17.7757         189.613 
        1.75489          150.81         17.6262         188.768 
        1.76101         149.617         17.4785         187.986 
        1.76715         148.571         17.3323         187.187 
        1.77329         147.494         17.1876         186.232 
        1.77943          146.58         17.0445         185.231 
        1.78557         145.521         16.9033         184.346 
        1.79171         144.964         16.7636         183.533 
        1.79785         143.773         16.6254         182.688 
        1.80399         143.048         16.4889         181.809 
        1.81012         142.588          16.354          181.17 
        1.81625         140.986         16.2208         180.356 
        1.82239         140.703         16.0888         179.294 
        1.82853         139.552         15.9583         178.428 
        1.83466         138.367         15.8295         177.526 
        1.84078         137.806         15.7021         176.681 
        1.84692         137.151          15.576         176.174 
        1.85306         136.103         15.4511         175.199 
         1.8592         135.419         15.3278         174.152 
        1.86533         134.109         15.2059         173.773 
        1.87147          133.35         15.0852         173.229 
