# k  (h/Mpc)    P(k)  (Mpc/h)^3    P_linear(k)  (Mpc/h)^3     P_NL(k)  ShotnoiseSubtracted = false
     0.00783031         5531.04         5561.77         5541.16 
       0.013688         6842.35         6963.85         6930.07 
       0.019231         7081.41         7146.44         7102.92 
      0.0249154         6698.87          6687.4          6650.4 
      0.0312784         5814.24         5840.68         5812.85 
      0.0375637          4934.1         4978.24         4955.52 
      0.0433917         4306.54         4308.01         4287.29 
      0.0492413         3783.94         3804.66         3786.77 
      0.0555754         3435.41         3430.37         3413.81 
      0.0619321         3113.33         3175.03         3158.35 
       0.067871          2959.8         2985.22         2968.09 
      0.0738098          2782.6         2796.05         2768.29 
      0.0800417         2566.73         2571.54         2545.92 
      0.0862327         2308.04         2321.15          2307.7 
      0.0921407         2068.04         2074.21         2065.11 
      0.0982031         1852.98         1837.02         1843.46 
       0.104506         1629.52         1629.28         1648.36 
       0.110769         1481.56         1472.37          1486.5 
       0.116806         1396.43         1365.89          1379.6 
       0.122832         1309.22         1293.16         1308.31 
       0.129052         1255.62         1238.08         1250.35 
       0.135211         1216.76         1188.12         1198.59 
       0.141259         1146.59         1132.32          1145.3 
       0.147318         1067.65         1064.95          1084.7 
       0.153489         998.473         986.302         1000.02 
       0.159709         933.656         903.517         926.547 
       0.165845         843.166         826.445         863.873 
       0.171974         804.477         760.426          798.77 
       0.178125           757.4          708.29         755.377 
       0.184229         705.012         670.167         715.596 
        0.19034         687.275          642.54         685.228 
       0.196428         665.767         621.003         656.527 
       0.202534         628.066         600.764         636.179 
       0.208729         616.869         577.968         610.153 
       0.214876         593.208         551.382         591.704 
       0.220989         552.463         521.389         565.564 
       0.227147         535.116          489.52         536.171 
        0.23329         509.344         458.624         512.421 
       0.239377         491.778          431.12         487.484 
       0.245482         464.063          407.94         460.992 
       0.251667         443.446         389.176         445.466 
       0.257832         437.267         374.453         428.489 
       0.263955         414.587         362.381         413.928 
       0.270079          400.97         351.303         401.425 
        0.27624         385.022          339.88         387.899 
       0.282372         375.127         327.453         376.799 
        0.28843         371.298         314.072         364.182 
       0.294538         352.311         299.894         352.651 
       0.300721         337.903         285.614         341.392 
        0.30691         331.063         272.179         329.985 
       0.313033         315.654         260.302         316.871 
       0.319153         309.377         250.068         307.293 
       0.325316         300.367         241.291         299.293 
        0.33145         292.317         233.721          288.52 
       0.337538         282.675         226.867         280.536 
       0.343633         273.997         220.199         275.655 
       0.349808          266.51         213.324         269.552 
       0.355968         260.219         206.185         263.818 
       0.362074         253.468         198.917         256.402 
       0.368217         249.028         191.583          247.64 
       0.374374          242.73         184.475         241.443 
       0.380519         232.424         177.834         234.495 
       0.386598         228.093         171.834         229.124 
       0.392688         221.873         166.429          223.41 
        0.39888         217.084         161.451         217.417 
       0.405048         212.527         156.888         213.791 
       0.411186         209.693         152.575         208.853 
       0.417313         204.844         148.347             203 
       0.423458         199.677         144.121         199.146 
       0.429607         195.193         139.878         195.078 
       0.435692          191.55         135.694         190.862 
       0.441815         186.987         131.577         188.335 
       0.447964         181.373         127.605         183.731 
       0.454126         178.165         123.837         178.563 
       0.460267         176.338          120.33         176.408 
       0.466387         172.404         117.077         172.368 
        0.47254         170.334         114.003         169.288 
       0.478662         164.711         111.095         165.977 
       0.484765         162.501         108.305         161.829 
       0.490885         159.502         105.573         159.781 
       0.497035         157.844         102.863         157.534 
       0.503198         154.903         100.192         154.568 
       0.509342         150.795          97.588         152.231 
       0.515458         148.904         95.0688         150.509 
       0.521598         145.264         92.6293         146.747 
       0.527764         143.755         90.2854         143.645 
       0.533884         142.855          88.075         141.635 
           0.54         139.008         85.9715         139.416 
       0.546137          135.82         83.9488         137.757 
       0.552299         134.137          81.991         134.756 
       0.558452         131.665         80.0976         132.508 
       0.564573         130.997         78.2654         131.188 
       0.570708         127.401         76.4726          129.17 
       0.576825          125.95         74.7235         126.826 
       0.582926         124.556         73.0217          124.93 
       0.589034         122.465         71.3672          123.68 
       0.595184         121.065         69.7576         121.532 
       0.601379         118.262         68.1967         120.359 
       0.607522         116.281         66.7048         117.858 
       0.613639         115.254         65.2699          116.64 
       0.619772         113.465          63.878         114.679 
       0.625918         112.447         62.5261         113.632 
       0.632068         110.202          61.213         111.681 
       0.638161         108.564         59.9482         110.763 
         0.6443         107.988         58.7074         108.963 
       0.650464         105.759          57.493         106.907 
       0.656582         105.268          56.318         106.214 
       0.662703         103.837         55.1736         104.466 
       0.668861         101.629         54.0544         103.389 
       0.675024         101.524         52.9672         101.874 
       0.681124         99.8552         51.9242         100.667 
       0.687237         98.0591         50.9105         99.3802 
       0.693381         97.4093         49.9214         98.0385 
       0.699536         96.1765         48.9581         97.4079 
       0.705665         94.7787         48.0243         96.5133 
       0.711789         93.4981         47.1148         94.5776 
       0.717957         92.3444         46.2211         93.8547 
        0.72409          91.621         45.3543         93.2814 
       0.730186         91.0292         44.5143         92.1067 
       0.736317         89.4043         43.6908         90.7372 
       0.742472         88.2826         42.8853         89.8336 
       0.748622         86.9109         42.1015         88.7455 
        0.75476          86.532           41.34         87.7279 
       0.760888          85.987         40.5994         86.6264 
       0.767043         84.2922         39.8746         86.2351 
       0.773185         83.2713         39.1695         85.5394 
       0.779291         82.3497         38.4857         84.5472 
       0.785407         81.3094         37.8174         83.3466 
       0.791564         81.1551         37.1606         82.5752 
       0.797719         80.0544         36.5196         82.0357 
       0.803834         79.3573         35.8976         80.8783 
       0.809972         78.7331         35.2877         80.1669 
       0.816124         77.7637         34.6906         79.6327 
       0.822261         76.7036          34.109          78.609 
       0.828378         76.4976         33.5425         77.5516 
       0.834502         75.3638         32.9885          77.294 
       0.840667         74.8645         32.4436         76.6971 
       0.846816         74.0924         31.9127         75.8763 
       0.852925         73.2843         31.3972         75.1716 
       0.859047         72.9799         30.8922          74.305 
       0.865192         71.8467         30.3968         73.8299 
       0.871341         71.0865          29.912          73.059 
       0.877463         70.6315         29.4401         72.5142 
       0.883569         70.3816         28.9797         72.0427 
       0.889708         69.6623         28.5268         71.2973 
       0.895864         69.0298         28.0825         70.7301 
       0.902008         68.3088         27.6487         70.0368 
       0.908149         67.5359         27.2243         69.5412 
       0.914301          67.199         26.8081         69.0792 
       0.920448         66.9327         26.4011         68.4077 
       0.926574         65.5785         26.0039         67.6535 
       0.932687         65.2875         25.6159         67.2687 
       0.938823         64.7218         25.2344         66.5652 
       0.944975         63.9583         24.8598         66.0251 
       0.951105         63.4726         24.4943         65.7202 
       0.957225         63.2756         24.1367         65.1725 
       0.963368         62.6133         23.7852         64.4264 
       0.969511         62.0807         23.4406          63.979 
       0.975621         61.6006         23.1048          63.878 
       0.981748         60.9699         22.7748         63.2007 
       0.987916         60.4999         22.4491          62.848 
        0.99406         60.1665         22.1311         62.2868 
        1.00019         59.4916           21.82         61.7784 
        1.00632         59.0475         21.5151         61.3388 
        1.01246         58.6262         21.2156         60.8162 
        1.01859         58.3397         20.9224         60.4738 
        1.02471          57.658         20.6351         60.1229 
        1.03085         57.2804         20.3522         59.5867 
        1.03698          56.908         20.0753         59.1201 
        1.04314         56.4767         19.8024         58.6169 
        1.04929         55.9193         19.5352         58.3818 
        1.05541         55.6559          19.274         58.1644 
        1.06154         55.3076          19.017         57.6183 
        1.06769         54.5847         18.7644         57.2423 
        1.07382         54.2742         18.5171         56.8412 
        1.07993         54.0063         18.2749         56.3962 
        1.08607         53.5819         18.0361         56.0412 
        1.09222         53.3104         17.8013         55.6362 
        1.09836         52.8285          17.571         55.3012 
        1.10449         52.5535          17.345         54.8817 
        1.11063           52.04         17.1228         54.4613 
        1.11677         51.8948         16.9046         54.1038 
         1.1229          51.355         16.6905         53.8697 
        1.12903         51.1595           16.48         53.5053 
        1.13518         50.9836          16.273         53.1166 
        1.14131         50.4034         16.0697         52.8473 
        1.14745         49.9805         15.8699         52.4989 
        1.15359         49.4606         15.6736         52.2645 
        1.15973         49.4191         15.4805         51.8949 
        1.16584         49.0351         15.2915         51.4767 
        1.17197         48.4735         15.1054         51.2078 
        1.17811         48.2878         14.9218         50.7992 
        1.18424         47.6619         14.7419          50.503 
        1.19038         47.5768         14.5644         50.3726 
        1.19652          47.348         14.3899         49.9178 
        1.20267         47.0048         14.2183         49.7466 
        1.20881          46.663         14.0495         49.3871 
        1.21495         46.4814         13.8838         49.1973 
        1.22108         46.3064         13.7207         48.8316 
         1.2272         45.8326         13.5607         48.6205 
        1.23334         45.5696         13.4029         48.2876 
        1.23949         45.2868         13.2472          47.922 
        1.24562         44.9358         13.0944         47.7151 
        1.25174         44.6411         12.9443         47.4945 
        1.25789         44.6101         12.7961          47.154 
        1.26402         44.2211         12.6505         46.8679 
        1.27014         44.0076         12.5075         46.6866 
        1.27628         43.5431         12.3663         46.4009 
        1.28244         43.4806          12.227         46.1854 
        1.28858         43.1172         12.0901         45.9111 
        1.29471           42.84         11.9555         45.7072 
        1.30084         42.4921         11.8232         45.3192 
        1.30697         42.4515         11.6926         45.0397 
        1.31312         42.0447         11.5639         44.9382 
        1.31925          41.723         11.4375         44.6425 
        1.32537         41.5232         11.3131         44.4152 
        1.33151         41.2491         11.1902          44.208 
        1.33765         41.0872         11.0691         43.9769 
        1.34378         40.9217         10.9501         43.7269 
        1.34992         40.5727         10.8327         43.5295 
        1.35606         40.3226         10.7169         43.3745 
         1.3622         40.0923         10.6029         43.1362 
        1.36833         39.9317         10.4909         42.9009 
        1.37445         39.5589         10.3805         42.6443 
        1.38059         39.4476         10.2714         42.5498 
        1.38675         39.0422         10.1636         42.2737 
        1.39288         39.0173         10.0578         42.1068 
        1.39901         38.7015         9.95349         41.8853 
        1.40515          38.523         9.85048         41.6301 
         1.4113         38.4881         9.74896         41.4137 
        1.41742         38.1841         9.64927         41.2471 
        1.42355          37.845         9.55079         41.0073 
         1.4297         37.6851         9.45339         40.7613 
        1.43585         37.4225         9.35739         40.6461 
        1.44198         37.2116          9.2631         40.4622 
        1.44809         36.9816         9.17028          40.187 
        1.45423         36.8664          9.0784         39.9661 
        1.46036          36.681         8.98795         39.8112 
        1.46649         36.4655          8.8987         39.6655 
        1.47263         36.2197         8.81059         39.4996 
        1.47877         36.0757         8.72372         39.3159 
        1.48491         35.9187         8.63789         39.0909 
        1.49104         35.6082          8.5534         38.9036 
        1.49718         35.5255         8.46997         38.7181 
        1.50333         35.3927         8.38753         38.5791 
        1.50947         35.0843         8.30635         38.4285 
         1.5156          34.947         8.22638         38.2395 
        1.52172         34.6852         8.14746         38.0428 
        1.52787         34.5623         8.06942         37.8655 
          1.534         34.3454         7.99249         37.7188 
        1.54013         34.2971         7.91666         37.5279 
        1.54627         33.9581         7.84167         37.3303 
        1.55241         33.7936         7.76765         37.1766 
        1.55855         33.7266         7.69469         37.0365 
        1.56467         33.5253         7.62287         36.8793 
         1.5708         33.3523         7.55176         36.7266 
        1.57695         33.1894         7.48146         36.5426 
        1.58308         32.8979         7.41222         36.3556 
        1.58922         32.7437          7.3438         36.2273 
        1.59535         32.6384         7.27628         36.0863 
         1.6015         32.5565         7.20952          35.897 
        1.60764          32.326         7.14363          35.724 
        1.61376         32.1151         7.07874         35.5947 
        1.61989         31.9143         7.01461         35.4412 
        1.62604         31.7791         6.95113         35.3258 
        1.63218           31.63         6.88847         35.2096 
        1.63831         31.5189         6.82674         35.0518 
        1.64444         31.3278         6.76573         34.8876 
        1.65059         31.1612         6.70533         34.7328 
        1.65673         31.0224         6.64573         34.5744 
        1.66285         30.9385         6.58703         34.4433 
        1.66898         30.6727         6.52901         34.3423 
        1.67512          30.627         6.47158         34.1919 
        1.68127         30.4344         6.41479         34.0303 
         1.6874         30.2637         6.35881         33.8595 
        1.69353         30.1837         6.30353         33.6778 
        1.69967         30.0426         6.24878         33.5761 
        1.70581         29.7803         6.19471          33.508 
        1.71193         29.6407         6.14148         33.3831 
        1.71806         29.5674         6.08876         33.1628 
        1.72421         29.4237         6.03656         33.0166 
        1.73035         29.2427         5.98503         32.9443 
        1.73649         29.0535         5.93412         32.8423 
        1.74262         28.8768         5.88384         32.6237 
        1.74876          28.829          5.8341         32.4757 
        1.75489         28.6618         5.78505         32.3998 
        1.76101          28.562         5.73658         32.3048 
        1.76715          28.453          5.6886         32.1537 
        1.77329         28.2034          5.6411         32.0079 
        1.77943         28.1739         5.59413         31.8885 
        1.78557         28.0346         5.54777         31.7724 
        1.79171         27.9147         5.50192         31.6439 
        1.79785         27.7571         5.45658         31.5461 
        1.80399         27.6244         5.41176         31.4794 
        1.81012         27.5477         5.36751         31.2709 
        1.81625         27.2981         5.32377          31.089 
        1.82239         27.2068         5.28045         31.0233 
        1.82853         27.0872         5.23764         30.9266 
        1.83466         26.9513         5.19534         30.8157 
        1.84078         26.8165         5.15355         30.7104 
        1.84692         26.7232         5.11216         30.6002 
        1.85306         26.5344         5.07117          30.486 
         1.8592         26.5083          5.0307         30.3676 
        1.86533          26.323         4.99069         30.2471 
        1.87147         26.1883         4.95108         30.1326 
        1.87761         26.0572         4.91187         30.0124 
