# k  (h/Mpc)    Pcb(k)  (Mpc/h)^3    Pcb_linear(k) (Mpc/h)^3    Pcb_NL(k) (Mpc/h)^3   ShotnoiseSubtracted = false
     0.00783031         4624.15         4650.73         4633.63 
       0.013688         5728.55         5823.47         5796.11 
       0.019231         5926.77          5976.3         5941.44 
      0.0249154         5601.61          5592.5         5564.03 
      0.0312784         4866.02         4884.45         4864.66 
      0.0375637         4131.45         4163.24         4147.54 
      0.0433917         3603.87         3602.74          3589.1 
      0.0492413         3167.74         3181.81          3170.3 
      0.0555754         2875.03         2868.79         2857.93 
      0.0619321         2609.77         2655.26         2644.19 
       0.067871         2479.31         2496.53         2484.79 
      0.0738098         2329.69         2338.33         2319.04 
      0.0800417         2148.92         2150.57         2132.79 
      0.0862327         1932.66         1941.17            1932 
      0.0921407         1730.62         1734.66         1728.72 
      0.0982031          1548.9          1536.3         1541.39 
       0.104506         1362.37         1362.57         1376.62 
       0.110769         1237.68         1231.34         1241.84 
       0.116806         1165.09         1142.29         1152.42 
       0.122832          1092.7         1081.47         1092.59 
       0.129052         1048.62         1035.41          1044.4 
       0.135211         1014.91         993.622         1001.38 
       0.141259         957.461         946.957         956.403 
       0.147318         891.984         890.615         905.019 
       0.153489         833.438         824.844         834.881 
       0.159709         777.226         755.611          772.27 
       0.165845         702.055         691.155         718.167 
       0.171974          667.93         635.945         663.442 
       0.178125         627.468         592.342         626.066 
       0.184229         585.222         560.461         593.122 
        0.19034         569.654         537.356         567.974 
       0.196428         551.391         519.345         544.617 
       0.202534         521.008         502.419           527.6 
       0.208729         510.949         483.355         506.413 
       0.214876         491.497         461.121         490.115 
       0.220989         457.394         436.038         467.725 
       0.227147         442.315         409.385         442.688 
        0.23329         420.349         383.548         422.073 
       0.239377         404.318         360.546         401.057 
       0.245482          381.47          341.16         379.134 
       0.251667         364.056         325.469         365.828 
       0.257832         358.575         313.156         351.876 
       0.263955         340.216          303.06         339.882 
       0.270079         329.049         293.795         329.509 
        0.27624         316.021          284.24         318.324 
       0.282372         307.362         273.849         308.996 
        0.28843         303.762         262.658         298.369 
       0.294538         288.467         250.801         288.431 
       0.300721         275.862         238.859         278.805 
        0.30691         269.907         227.623         268.906 
       0.313033         257.387          217.69          258.06 
       0.319153         252.147         209.131          250.11 
       0.325316          243.81         201.793         243.348 
        0.33145         236.918         195.461         234.701 
       0.337538         229.398         189.729         228.008 
       0.343633         222.457         184.153         223.553 
       0.349808         216.137         178.403         218.409 
       0.355968         210.653         172.433         213.654 
       0.362074         205.611         166.355         207.373 
       0.368217         201.259          160.22         200.075 
       0.374374         196.063         154.277          194.94 
       0.380519         187.575         148.723         189.093 
       0.386598         183.621         143.705          184.42 
       0.392688         178.403         139.184         179.873 
        0.39888         174.806         135.022         174.796 
       0.405048         170.989         131.206          171.51 
       0.411186         168.149         127.598          167.84 
       0.417313         163.981         124.063          162.94 
       0.423458         159.896         120.528         159.717 
       0.429607         156.515          116.98         156.231 
       0.435692         153.615         113.481         152.815 
       0.441815         149.353         110.038         150.569 
       0.447964         144.756         106.716         146.655 
       0.454126         142.064         103.565         142.536 
       0.460267         140.748         100.633         140.575 
       0.466387         137.407         97.9114         137.217 
        0.47254         135.763         95.3404         134.727 
       0.478662           131.1         92.9091         132.006 
       0.484765         129.184         90.5756         128.672 
       0.490885         126.433         88.2899          126.99 
       0.497035         125.255         86.0249         125.084 
       0.503198         122.508         83.7907          122.49 
       0.509342         119.306         81.6129         120.543 
       0.515458         117.771         79.5061         119.112 
       0.521598         114.852         77.4659         115.959 
       0.527764         113.606          75.506         113.282 
       0.533884         112.636         73.6571         111.611 
           0.54         109.554         71.8981          109.83 
       0.546137         106.923         70.2064         108.452 
       0.552299         105.391         68.5691         105.989 
       0.558452         103.396         66.9857         104.086 
       0.564573         102.885         65.4535         102.975 
       0.570708         99.8807         63.9538         101.306 
       0.576825         98.8359         62.4914         99.5104 
       0.582926         97.6712         61.0681         97.9111 
       0.589034         95.9193         59.6844         96.8498 
       0.595184         94.6787         58.3385         95.1597 
       0.601379         92.3679         57.0329         94.0582 
       0.607522         90.8849         55.7852         91.9726 
       0.613639         90.0266         54.5853         90.9604 
       0.619772         88.4479         53.4212         89.3839 
       0.625918          87.468         52.2906          88.581 
       0.632068         86.0263         51.1925         86.9691 
       0.638161         84.5169         50.1348         86.0813 
         0.6443         83.9517          49.097         84.5956 
       0.650464         82.1517         48.0814          83.093 
       0.656582         81.7645         47.0988         82.4563 
       0.662703         80.6085         46.1417         80.9925 
       0.668861         78.8203         45.2057         80.1422 
       0.675024         78.5848         44.2965         78.9002 
       0.681124         77.3987         43.4242         77.8519 
       0.687237         75.8739         42.5765         76.8277 
       0.693381         75.2879         41.7493         75.7304 
       0.699536         74.4143         40.9437         75.2755 
       0.705665         73.2363         40.1628         74.4195 
       0.711789          72.178         39.4021         72.8704 
       0.717957         71.2019         38.6548         72.3642 
        0.72409         70.5946         37.9299         71.7927 
       0.730186         70.0913         37.2274         70.8068 
       0.736317         68.8046         36.5386         69.7544 
       0.742472         67.9912          35.865         69.0069 
       0.748622         66.9297         35.2096         68.1148 
        0.75476         66.2432         34.5727         67.3593 
       0.760888         65.9967         33.9533         66.5268 
       0.767043         64.6606         33.3472         66.1386 
       0.773185         63.9178         32.7575         65.4863 
       0.779291         63.1613         32.1857         64.7406 
       0.785407         62.2779         31.6267         63.7934 
       0.791564         62.2454         31.0775         63.1111 
       0.797719           61.28         30.5414         62.6766 
       0.803834         60.7045         30.0212         61.8017 
       0.809972         60.0863         29.5111         61.2028 
       0.816124          59.418         29.0118         60.7035 
       0.822261         58.5817         28.5254         59.8749 
       0.828378         58.3565         28.0516         59.0724 
       0.834502         57.5337         27.5883         58.8932 
       0.840667         57.1063         27.1326         58.2748 
       0.846816         56.3497         26.6886         57.6826 
       0.852925          55.871         26.2575         57.2219 
       0.859047         55.6223         25.8352          56.454 
       0.865192         54.6615         25.4209         56.0075 
       0.871341         54.0693         25.0154         55.4813 
       0.877463         53.6925         24.6208         54.9897 
       0.883569          53.461         24.2358         54.6327 
       0.889708         52.8634          23.857         53.9879 
       0.895864         52.3363         23.4854         53.4843 
       0.902008         51.7723         23.1226         53.0015 
       0.908149         51.2769         22.7677         52.6409 
       0.914301         50.8969         22.4196         52.2575 
       0.920448         50.5862         22.0792         51.6651 
       0.926574         49.6647         21.7471         51.1075 
       0.932687         49.3591         21.4226         50.8033 
       0.938823          48.856         21.1035         50.2236 
       0.944975         48.3451         20.7903         49.7675 
       0.951105         47.9795         20.4846         49.5422 
       0.957225         47.7355         20.1856         49.0587 
       0.963368         47.2238         19.8915         48.5365 
       0.969511         46.8181         19.6034         48.1408 
       0.975621         46.4571         19.3226         47.9574 
       0.981748         45.9455         19.0466         47.5042 
       0.987916         45.6006         18.7742         47.1404 
        0.99406         45.2115         18.5083         46.7568 
        1.00019         44.8337          18.248         46.3551 
        1.00632         44.4707         17.9931         46.0097 
        1.01246         44.1097         17.7427         45.6295 
        1.01859         43.7875         17.4974         45.3353 
        1.02471         43.2964         17.2572         45.0108 
        1.03085         43.0907         17.0206         44.6082 
        1.03698         42.7831          16.789         44.2429 
        1.04314         42.4414         16.5608         43.8111 
        1.04929         41.9275         16.3373         43.6347 
        1.05541         41.7878         16.1189          43.475 
        1.06154         41.5156          15.904         42.9762 
        1.06769         40.8886         15.6926         42.6648 
        1.07382         40.7482         15.4859         42.4105 
        1.07993          40.431         15.2833         42.0109 
        1.08607         40.1309         15.0836         41.7427 
        1.09222         39.8798         14.8872         41.5249 
        1.09836         39.5089         14.6946          41.226 
        1.10449         39.3339         14.5056         40.8498 
        1.11063         38.9225         14.3198         40.5963 
        1.11677         38.8516         14.1373         40.3045 
         1.1229         38.4329         13.9583         40.0321 
        1.12903         38.2048         13.7823         39.7678 
        1.13518         38.0874         13.6091         39.4368 
        1.14131         37.6612         13.4391         39.2355 
        1.14745         37.2891          13.272         38.9834 
        1.15359         36.9364         13.1078           38.76 
        1.15973          36.824         12.9463         38.5173 
        1.16584         36.5603         12.7883         38.2127 
        1.17197         36.1053         12.6326         37.9769 
        1.17811         35.9789         12.4791         37.6088 
        1.18424         35.5184         12.3287         37.4225 
        1.19038         35.4295         12.1802         37.3331 
        1.19652         35.2086         12.0343         36.9659 
        1.20267         35.0124         11.8908         36.8077 
        1.20881         34.7375         11.7496         36.5543 
        1.21495         34.5813          11.611         36.4242 
        1.22108         34.4556         11.4747         36.0922 
         1.2272         34.1464         11.3408         35.9397 
        1.23334         33.9209         11.2088         35.7042 
        1.23949         33.6697         11.0786         35.3999 
        1.24562         33.3714         10.9509         35.2467 
        1.25174         33.1868         10.8253         35.0518 
        1.25789         33.1144         10.7014          34.814 
        1.26402         32.8642         10.5796         34.5851 
        1.27014         32.6518           10.46         34.4297 
        1.27628         32.3315         10.3419         34.1899 
        1.28244         32.2904         10.2254         34.0947 
        1.28858         31.9853         10.1109         33.8278 
        1.29471          31.777         9.99842         33.6426 
        1.30084         31.5489         9.88774         33.4417 
        1.30697         31.4256         9.77857         33.1963 
        1.31312         31.1453          9.6709         33.0648 
        1.31925         30.9278          9.5652         32.8757 
        1.32537         30.7475         9.46119         32.7147 
        1.33151         30.5358         9.35835         32.5498 
        1.33765         30.4682         9.25711         32.3707 
        1.34378         30.3064         9.15758         32.1844 
        1.34992         30.0511         9.05944         32.0359 
        1.35606         29.8822         8.96253         31.8786 
         1.3622         29.6708         8.86721          31.718 
        1.36833         29.5604         8.77351         31.5455 
        1.37445          29.323         8.68121         31.3101 
        1.38059         29.1741         8.58996         31.1903 
        1.38675         28.9288         8.49981         31.0464 
        1.39288         28.8312         8.41131         30.8783 
        1.39901         28.6214         8.32411         30.7274 
        1.40515          28.494         8.23796         30.5347 
         1.4113         28.4301         8.15307         30.3589 
        1.41742         28.2407         8.06969         30.2439 
        1.42355         27.9739         7.98733         30.0507 
         1.4297         27.8264         7.90588         29.8769 
        1.43585         27.6437          7.8256         29.7887 
        1.44198         27.5344         7.74674         29.6223 
        1.44809         27.3667         7.66912         29.4831 
        1.45423         27.2485         7.59228         29.2749 
        1.46036         27.0991         7.51663         29.1372 
        1.46649         26.9279         7.44199         29.0343 
        1.47263         26.7394         7.36831         28.9212 
        1.47877         26.6433         7.29566         28.8082 
        1.48491         26.5173         7.22388         28.5992 
        1.49104         26.3052         7.15321         28.4697 
        1.49718         26.2485         7.08345         28.3432 
        1.50333          26.135          7.0145         28.2329 
        1.50947         25.9232         6.94661         28.1248 
         1.5156         25.7964         6.87973         27.9761 
        1.52172         25.6124         6.81373         27.7993 
        1.52787         25.5096         6.74846         27.6667 
          1.534         25.3816         6.68413         27.5587 
        1.54013         25.3102         6.62071         27.4084 
        1.54627         25.0723           6.558          27.259 
        1.55241         24.9591         6.49609         27.1487 
        1.55855         24.8724         6.43507         27.0521 
        1.56467         24.7755         6.37501         26.9349 
         1.5708         24.6077         6.31555         26.8043 
        1.57695         24.5053         6.25675         26.6582 
        1.58308         24.2678         6.19884          26.537 
        1.58922         24.1576         6.14163          26.459 
        1.59535         24.0728         6.08516          26.344 
         1.6015          23.964         6.02933         26.2044 
        1.60764         23.8474         5.97422         26.0632 
        1.61376         23.7197         5.91996         25.9414 
        1.61989         23.5306         5.86632         25.8612 
        1.62604         23.4492         5.81324         25.7995 
        1.63218         23.3557         5.76084         25.6985 
        1.63831         23.2293         5.70921         25.5676 
        1.64444         23.1053         5.65819         25.4617 
        1.65059         22.9872         5.60768         25.3266 
        1.65673         22.8982         5.55783         25.2106 
        1.66285         22.7808         5.50874         25.1209 
        1.66898          22.657         5.46022         25.0201 
        1.67512         22.6036         5.41219         24.8856 
        1.68127         22.4751          5.3647         24.7969 
         1.6874         22.3545         5.31788         24.6928 
        1.69353         22.2187         5.27165          24.507 
        1.69967         22.1206         5.22586          24.441 
        1.70581         21.9839         5.18064         24.3943 
        1.71193         21.8474         5.13612          24.295 
        1.71806          21.798         5.09204         24.1805 
        1.72421         21.7217         5.04838          24.081 
        1.73035          21.569         5.00529          23.994 
        1.73649         21.4616         4.96271         23.8936 
        1.74262         21.3384         4.92066          23.757 
        1.74876         21.2544         4.87907         23.6592 
        1.75489         21.1679         4.83805         23.5922 
        1.76101          21.057         4.79751         23.5093 
        1.76715         20.9868         4.75738         23.3891 
        1.77329         20.8359         4.71766         23.2714 
        1.77943         20.7832         4.67838         23.1881 
        1.78557         20.6808          4.6396         23.1273 
        1.79171         20.5627         4.60126         23.0338 
        1.79785         20.4722         4.56334         22.9413 
        1.80399         20.3651         4.52586         22.8831 
        1.81012         20.3176         4.48885         22.7585 
        1.81625         20.1656         4.45227          22.655 
        1.82239         20.0798         4.41605          22.605 
        1.82853         19.9906         4.38024         22.5115 
        1.83466         19.8874         4.34487         22.4174 
        1.84078         19.8135         4.30992         22.3395 
        1.84692         19.7603         4.27531         22.2502 
        1.85306         19.6257         4.24103         22.1634 
         1.8592         19.5873         4.20718         22.0833 
        1.86533          19.406         4.17372         21.9978 
        1.87147         19.3273         4.14059         21.9073 
