# k  (h/Mpc)    Pcb(k)  (Mpc/h)^3    Pcb_linear(k) (Mpc/h)^3    Pcb_NL(k) (Mpc/h)^3   ShotnoiseSubtracted = false
     0.00783031         18854.6         18932.1         18846.8 
       0.013688         23007.7           23695         23525.2 
       0.019231         23869.9         24311.8         24073.7 
      0.0249154         22751.4         22747.8         22480.5 
      0.0312784         19570.9         19866.2         19576.1 
      0.0375637         16535.1         16931.9         16671.1 
      0.0433917         14493.3         14651.9         14379.5 
      0.0492413         12699.7         12939.7         12687.7 
      0.0555754         11532.7         11666.5         11444.7 
      0.0619321         10313.9           10798           10582 
       0.067871         9835.87         10152.4         9947.98 
      0.0738098          9306.4         9508.97         9197.03 
      0.0800417         8562.18         8745.39         8458.85 
      0.0862327         7702.58          7893.8         7727.64 
      0.0921407         6958.97         7053.97         6927.53 
      0.0982031         6305.77         6247.32         6266.05 
       0.104506         5559.83         5540.83         5681.65 
       0.110769         5099.95         5007.18         5117.41 
       0.116806         4837.37         4645.06         4753.32 
       0.122832         4555.73         4397.72         4515.79 
       0.129052         4313.97          4210.4         4310.18 
       0.135211         4227.17         4040.48         4113.98 
       0.141259         3942.84         3850.72         3957.91 
       0.147318         3687.68          3621.6         3768.94 
       0.153489         3474.71         3354.15         3466.89 
       0.159709         3329.77         3072.61         3267.12 
       0.165845         3033.13         2810.51         3115.51 
       0.171974         2927.09            2586         2920.74 
       0.178125         2821.55         2408.69         2811.46 
       0.184229         2592.92         2279.05         2656.52 
        0.19034         2563.43         2185.09         2548.64 
       0.196428         2497.11         2111.85         2445.39 
       0.202534         2362.77         2043.03         2373.75 
       0.208729          2318.4          1965.5         2261.45 
       0.214876         2218.16         1875.09         2214.39 
       0.220989          2119.5         1773.09         2150.69 
       0.227147         2055.83         1664.71         2081.74 
        0.23329         1971.95         1559.65         2016.54 
       0.239377         1960.31         1466.11         1933.45 
       0.245482         1869.37         1387.28         1845.62 
       0.251667         1801.59         1323.47          1796.2 
       0.257832         1769.21          1273.4         1733.86 
       0.263955         1695.71         1232.35         1683.93 
       0.270079          1657.8         1194.68         1638.56 
        0.27624         1589.95         1155.82         1592.85 
       0.282372         1576.13         1113.57         1569.21 
        0.28843         1541.48         1068.06         1540.01 
       0.294538         1477.45         1019.85         1497.37 
       0.300721         1453.53         971.287         1453.35 
        0.30691         1412.76         925.597         1433.33 
       0.313033         1363.41         885.205         1386.48 
       0.319153         1350.57         850.403         1345.09 
       0.325316         1333.07          820.56          1322.1 
        0.33145          1302.9         794.814         1275.46 
       0.337538         1263.65         771.503         1256.07 
       0.343633         1236.85         748.832         1242.04 
       0.349808         1217.54         725.448         1224.47 
       0.355968         1190.77         701.173         1204.29 
       0.362074         1159.38         676.458         1183.72 
       0.368217         1154.86         651.512         1156.73 
       0.374374         1135.69         627.343         1134.68 
       0.380519         1099.24          604.76         1112.62 
       0.386598         1095.12         584.353         1096.64 
       0.392688         1065.03         565.973         1073.29 
        0.39888         1048.86         549.046         1055.11 
       0.405048         1026.27         533.528         1036.87 
       0.411186         1022.32         518.857         1020.47 
       0.417313         1015.83         504.482         1008.81 
       0.423458         987.528         490.111         990.865 
       0.429607         963.491         475.681         975.946 
       0.435692         954.478         461.455         955.745 
       0.441815         935.926         447.451         952.991 
       0.447964         927.555         433.946         941.434 
       0.454126         915.056         421.131         914.373 
       0.460267         905.042         409.207         912.386 
       0.466387          888.52         398.142         896.106 
        0.47254         876.049         387.687         883.407 
       0.478662         863.609         377.801         871.202 
       0.484765         854.113         368.312         862.461 
       0.490885         845.252         359.017          846.31 
       0.497035         828.935         349.807         839.411 
       0.503198         828.035         340.722         830.514 
       0.509342         812.435         331.866          815.87 
       0.515458         796.803         323.299         810.606 
       0.521598         797.831         315.003         803.066 
       0.527764         778.407         307.033         795.183 
       0.533884         768.428         299.515         785.971 
           0.54         764.664         292.362         776.828 
       0.546137         754.916         285.483         768.044 
       0.552299         748.453         278.826         757.517 
       0.558452         740.019         272.387         751.934 
       0.564573         737.186         266.157         745.137 
       0.570708         727.556         260.058         735.586 
       0.576825         713.586         254.111         726.466 
       0.582926         711.469         248.324         721.657 
       0.589034         702.917         242.697         710.741 
       0.595184         694.035         237.225         704.324 
       0.601379         683.916         231.915         698.175 
       0.607522          674.85         226.842          687.66 
       0.613639         673.863         221.963         685.631 
       0.619772         666.619         217.229         683.551 
       0.625918         658.854         212.632         674.375 
       0.632068         654.854         208.166         671.073 
       0.638161         645.192         203.865         659.908 
         0.6443         638.975         199.645         654.936 
       0.650464          634.25         195.516         646.748 
       0.656582         628.891          191.52         643.117 
       0.662703         621.378         187.628         638.273 
       0.668861         614.408         183.822         635.549 
       0.675024         611.623         180.125         631.166 
       0.681124         598.913         176.578         621.648 
       0.687237         599.311         173.131         616.032 
       0.693381         589.462         169.767         610.435 
       0.699536         591.349         166.491         606.368 
       0.705665         580.935         163.316         599.077 
       0.711789         579.895         160.223         594.393 
       0.717957         572.535         157.183         593.877 
        0.72409         567.769         154.236         587.383 
       0.730186         565.842         151.379         581.235 
       0.736317         558.306         148.579         577.453 
       0.742472         551.918         145.839         573.743 
       0.748622         551.525         143.174         567.877 
        0.75476         542.111         140.584         568.406 
       0.760888         540.867         138.066         561.736 
       0.767043         537.625         135.601         554.388 
       0.773185          532.64         133.203         551.216 
       0.779291         527.378         130.878         546.781 
       0.785407         523.305         128.605         543.621 
       0.791564         520.752         126.372         541.908 
       0.797719         512.419         124.192         536.445 
       0.803834         512.509         122.076         533.031 
       0.809972             505         120.002         529.727 
       0.816124         501.679         117.972         523.304 
       0.822261         498.008         115.994         520.833 
       0.828378         496.573         114.067          517.12 
       0.834502         488.734         112.183         515.535 
       0.840667         486.174          110.33         511.351 
       0.846816         483.216         108.525          507.24 
       0.852925         481.647         106.772         504.289 
       0.859047         475.371         105.055         499.176 
       0.865192         473.216          103.37         496.111 
       0.871341         467.989         101.721         493.208 
       0.877463         467.174         100.117         490.322 
       0.883569         462.956         98.5508         487.976 
       0.889708         457.097         97.0107         483.073 
       0.895864         452.531         95.4998         480.498 
       0.902008          451.69         94.0243         477.169 
       0.908149         447.142         92.5811         472.575 
       0.914301         445.199         91.1658         468.826 
       0.920448         439.616         89.7817         467.968 
       0.926574         437.612         88.4312          464.65 
       0.932687         435.501         87.1115          460.46 
       0.938823         431.166         85.8142         459.639 
       0.944975         429.375         84.5404         456.111 
       0.951105         425.823         83.2972         452.559 
       0.957225         420.654         82.0814         450.265 
       0.963368         420.091         80.8858         447.387 
       0.969511         415.659         79.7141         444.756 
       0.975621           412.3         78.5721         441.542 
       0.981748         410.582         77.4497         439.065 
       0.987916         407.586         76.3423         437.029 
        0.99406         403.126         75.2609         434.042 
        1.00019         399.687         74.2027         430.151 
        1.00632         398.075          73.166         427.418 
        1.01246         394.385         72.1476         424.869 
        1.01859         391.951         71.1504         422.024 
        1.02471         390.146         70.1734          419.86 
        1.03085         387.338         69.2115         418.518 
        1.03698         384.651         68.2698         416.688 
        1.04314         381.222         67.3417         413.496 
        1.04929         380.396          66.433         409.768 
        1.05541         376.011         65.5449         407.203 
        1.06154         373.182         64.6709         405.252 
        1.06769         370.406         63.8116          402.29 
        1.07382           366.9         62.9708         399.945 
        1.07993         367.044         62.1472         397.983 
        1.08607         364.536         61.3349         395.163 
        1.09222          360.69         60.5365         392.915 
        1.09836         358.392         59.7532          391.52 
        1.10449         355.352         58.9848         389.443 
        1.11063         354.263         58.2292         385.907 
        1.11677          350.42          57.487         384.253 
         1.1229         348.429         56.7592         381.772 
        1.12903         345.423         56.0434         379.682 
        1.13518         344.363         55.3394         376.757 
        1.14131         341.606         54.6479         375.452 
        1.14745         338.681         53.9686         372.248 
        1.15359         335.598         53.3008         371.537 
        1.15973         334.137         52.6441         368.916 
        1.16584         332.583         52.0014          367.55 
        1.17197         329.882         51.3686          365.46 
        1.17811         325.937         50.7444         362.729 
        1.18424         325.287         50.1325         360.941 
        1.19038         323.381         49.5289         359.601 
        1.19652         319.986         48.9355         356.562 
        1.20267         318.249         48.3519         354.962 
        1.20881         316.924          47.778         353.127 
        1.21495         313.198         47.2143         350.775 
        1.22108         312.835         46.6598         348.434 
         1.2272         308.634         46.1156         347.294 
        1.23334         306.937         45.5789         344.881 
        1.23949         305.061         45.0495         343.006 
        1.24562         303.758           44.53         341.058 
        1.25174         301.787         44.0194         339.336 
        1.25789          298.84         43.5154         337.373 
        1.26402         297.543         43.0202         336.228 
        1.27014         295.399         42.5339         333.597 
        1.27628         293.518         42.0538          332.75 
        1.28244         290.417         41.5801         331.227 
        1.28858         289.326         41.1144         329.107 
        1.29471          287.72         40.6569         326.662 
        1.30084          286.64         40.2069         324.694 
        1.30697         283.389          39.763         323.547 
        1.31312         281.746         39.3251         321.838 
        1.31925         280.049         38.8953         319.924 
        1.32537         278.808         38.4724         317.707 
        1.33151          275.61         38.0542         316.505 
        1.33765         273.927         37.6425         315.169 
        1.34378         272.908         37.2378         312.879 
        1.34992         270.205         36.8387         311.215 
        1.35606         268.223         36.4447         309.286 
         1.3622         266.338         36.0571         308.361 
        1.36833         266.052          35.676         307.254 
        1.37445         264.481         35.3007         304.466 
        1.38059         261.032         34.9297         303.666 
        1.38675         259.602         34.5631         302.482 
        1.39288         258.885         34.2032         300.316 
        1.39901          256.47         33.8486         298.389 
        1.40515         255.196         33.4983         296.538 
         1.4113         253.149         33.1531         294.888 
        1.41742         251.528         32.8141          293.66 
        1.42355         249.823         32.4792         292.122 
         1.4297         248.372          32.148         290.124 
        1.43585          246.28         31.8215         289.762 
        1.44198         244.822         31.5008         287.729 
        1.44809         243.341         31.1852         286.324 
        1.45423         241.858         30.8727           284.2 
        1.46036         241.291         30.5651         283.098 
        1.46649          238.94         30.2616         281.904 
        1.47263         236.729          29.962         279.938 
        1.47877         235.714         29.6666         278.299 
        1.48491         233.816         29.3747          276.68 
        1.49104         231.467         29.0874          275.49 
        1.49718         230.624         28.8037         275.107 
        1.50333         229.176         28.5233         273.116 
        1.50947         227.471         28.2473          271.49 
         1.5156         226.145         27.9753         270.466 
        1.52172         224.283         27.7069         268.953 
        1.52787         223.118         27.4415         267.658 
          1.534         222.224         27.1799         266.157 
        1.54013         220.171          26.922         264.918 
        1.54627         218.768          26.667         263.904 
        1.55241         217.916         26.4153         262.683 
        1.55855         216.064         26.1672         261.302 
        1.56467         214.495         25.9229         259.525 
         1.5708         213.031         25.6811         258.115 
        1.57695         212.475         25.4421         256.925 
        1.58308         211.034         25.2066         255.455 
        1.58922         209.086         24.9739          254.22 
        1.59535         207.728         24.7443         253.263 
         1.6015         206.712         24.5173          252.38 
        1.60764         205.281         24.2932         250.933 
        1.61376         203.664         24.0725         249.196 
        1.61989         202.389         23.8544         248.069 
        1.62604         201.308         23.6386          246.81 
        1.63218         199.682         23.4255         245.603 
        1.63831         198.564         23.2155         244.507 
        1.64444         197.121         23.0081         243.246 
        1.65059          196.21         22.8027         242.243 
        1.65673         194.772            22.6         241.111 
        1.66285         193.464         22.4004         239.711 
        1.66898         192.215         22.2031         238.329 
        1.67512         190.926         22.0078         237.357 
        1.68127         189.599         21.8147         236.184 
         1.6874         188.459         21.6243         234.999 
        1.69353         187.836         21.4363         234.203 
        1.69967         186.223         21.2501         232.975 
        1.70581         184.938         21.0662         231.795 
        1.71193         183.684         20.8852         230.711 
        1.71806         182.247         20.7059         229.296 
        1.72421         181.477         20.5284         228.216 
        1.73035         180.102         20.3532         227.174 
        1.73649         178.707           20.18         225.973 
        1.74262         178.063          20.009         224.947 
        1.74876         176.366         19.8399         223.896 
        1.75489         175.834         19.6731         222.942 
        1.76101         174.618         19.5083         222.109 
        1.76715         173.555         19.3451         221.026 
        1.77329         172.184         19.1836         220.037 
        1.77943          171.05         19.0238         218.988 
        1.78557         169.932         18.8662         217.674 
        1.79171         168.952         18.7103         216.669 
        1.79785         167.609         18.5561         215.735 
        1.80399         166.748         18.4037          214.55 
        1.81012         166.108         18.2532         213.896 
        1.81625         164.592         18.1044         213.021 
        1.82239         163.777         17.9571         211.693 
        1.82853         162.634         17.8115         210.749 
        1.83466         161.412         17.6677          209.73 
        1.84078         160.475         17.5256         208.655 
        1.84692         159.845         17.3848         207.967 
        1.85306         158.642         17.2454         206.893 
         1.8592         157.662         17.1078         205.709 
        1.86533         156.268         16.9717         205.056 
        1.87147         155.553          16.837         204.213 
