# k  (h/Mpc)    Pcb(k)  (Mpc/h)^3    Pcb_linear(k) (Mpc/h)^3    Pcb_NL(k) (Mpc/h)^3   ShotnoiseSubtracted = false
     0.00783031         2156.62         2170.48         2162.49 
       0.013688         2683.81         2718.38         2706.65 
       0.019231         2773.51         2789.96         2775.56 
      0.0249154         2613.48         2610.92         2600.54 
      0.0312784         2276.18         2280.43         2275.28 
      0.0375637         1935.63         1943.75         1940.37 
      0.0433917         1684.96         1682.08         1680.09 
      0.0492413            1483         1485.57         1484.27 
      0.0555754         1343.98         1339.43         1337.84 
      0.0619321         1226.73         1239.74         1237.91 
       0.067871         1162.17         1165.63         1163.13 
      0.0738098         1090.42         1091.77         1087.35 
      0.0800417         1005.35         1004.11         1000.04 
      0.0862327         904.879         906.342         904.333 
      0.0921407          809.04          809.92         808.926 
      0.0982031         721.547         717.306         718.988 
       0.104506         635.509         636.191         640.016 
       0.110769         576.004         574.921         577.912 
       0.116806         539.693         533.344          536.11 
       0.122832         507.174         504.946         507.868 
       0.129052           487.1          483.44         485.729 
       0.135211         469.695         463.931           465.9 
       0.141259         444.639         442.142         444.437 
       0.147318         415.245         415.836         419.384 
       0.153489          386.85         385.127         387.671 
       0.159709         357.823         352.802         356.935 
       0.165845         323.948         322.707         329.349 
       0.171974           304.9         296.929         303.596 
       0.178125         284.819          276.57         284.679 
       0.184229         267.206         261.685         269.613 
        0.19034         258.895         250.897         258.264 
       0.196428         250.005         242.487         248.433 
       0.202534         237.829         234.585         240.477 
       0.208729         231.833         225.683         231.208 
       0.214876         222.871         215.302         222.296 
       0.220989         207.626          203.59         211.202 
       0.227147         199.242         191.146         199.049 
        0.23329         188.243         179.082         188.295 
       0.239377         179.055         168.342         178.139 
       0.245482         169.024         159.291         168.378 
       0.251667         160.769         151.965          161.65 
       0.257832          157.33         146.216         155.493 
       0.263955         150.087         141.502         150.232 
       0.270079         145.266         137.176         145.561 
        0.27624          139.61         132.715         140.641 
       0.282372         135.143         127.863         136.169 
        0.28843         132.396         122.638         131.124 
       0.294538         126.085         117.102         126.016 
       0.300721         119.775         111.526         121.054 
        0.30691         116.335          106.28         116.059 
       0.313033         111.041         101.642         111.197 
       0.319153         108.497         97.6458         107.447 
       0.325316         103.707         94.2191         104.165 
        0.33145         100.435         91.2629         100.643 
       0.337538         97.6267         88.5863         97.6483 
       0.343633         94.9364         85.9831         95.1272 
       0.349808         91.9419         83.2981         92.6384 
       0.355968         89.0574         80.5108         90.3922 
       0.362074         87.0791          77.673         87.3703 
       0.368217         84.3584         74.8087         84.0776 
       0.374374          82.159         72.0335         81.6658 
       0.380519         78.4659         69.4404         78.9198 
       0.386598          76.153         67.0973         76.6574 
       0.392688         73.7866         64.9868         74.5938 
        0.39888         72.3493         63.0432         72.3928 
       0.405048          70.623         61.2613         70.4808 
       0.411186         68.8018         59.5768         69.1472 
       0.417313         66.8911         57.9262         67.0688 
       0.423458         65.0448         56.2761         65.5455 
       0.429607         63.8316         54.6192         63.7729 
       0.435692         62.5901         52.9857         62.2685 
       0.441815         60.2186         51.3778         60.9935 
       0.447964         58.2612         49.8271         59.1958 
       0.454126         57.1849         48.3556         57.5476 
       0.460267         56.5269         46.9865         56.3995 
       0.466387         54.9028         45.7159         54.8817 
        0.47254         54.0754         44.5155         53.7646 
       0.478662         52.2958         43.3803         52.5151 
       0.484765         51.2279         42.2907         51.2355 
       0.490885         49.7962         41.2235         50.4459 
       0.497035         49.0299          40.166         49.4734 
       0.503198         47.8733         39.1228         48.1344 
       0.509342         46.5513          38.106         47.2364 
       0.515458         45.9011         37.1223          46.509 
       0.521598         44.7704         36.1697         45.1287 
       0.527764         44.1404         35.2546         43.9902 
       0.533884         43.1665         34.3913         43.1502 
           0.54         42.2177           33.57         42.3089 
       0.546137         40.9537         32.7801          41.642 
       0.552299         40.2568         32.0157         40.5959 
       0.558452         39.3963         31.2764         39.7877 
       0.564573          39.013          30.561         39.2734 
       0.570708         37.9254         29.8608         38.5159 
       0.576825         37.4391         29.1779         37.7725 
       0.582926         36.7747         28.5134         37.1074 
       0.589034         36.0229         27.8673         36.5447 
       0.595184         35.5124         27.2389         35.6759 
       0.601379         34.5424         26.6293         35.2184 
       0.607522         33.9841         26.0468         34.4223 
       0.613639         33.4434         25.4865         33.8375 
       0.619772         32.8419          24.943         33.3024 
       0.625918         32.1819         24.4151         32.8035 
       0.632068         31.8922         23.9023         32.1339 
       0.638161          31.197         23.4085         31.6093 
         0.6443         30.7212         22.9239          31.022 
       0.650464         29.9508         22.4498         30.6161 
       0.656582         29.7393          21.991         30.1302 
       0.662703         29.3461         21.5441         29.5625 
       0.668861         28.5751         21.1071         29.2047 
       0.675024         28.2115         20.6825         28.6065 
       0.681124         28.0105         20.2752         28.1659 
       0.687237         27.4274         19.8794         27.6772 
       0.693381         26.8661         19.4932         27.2423 
       0.699536         26.7052         19.1171         26.9173 
       0.705665         26.1827         18.7525         26.5854 
       0.711789         25.7138         18.3973         26.0494 
       0.717957         25.1817         18.0483         25.7089 
        0.72409         24.9572         17.7099         25.3862 
       0.730186         24.8072         17.3819         24.9606 
       0.736317         24.2761         17.0603         24.5874 
       0.742472         23.9706         16.7458         24.3437 
       0.748622         23.5635         16.4397          23.913 
        0.75476         22.9809         16.1424         23.5825 
       0.760888         22.8962         15.8532         23.2956 
       0.767043         22.4824         15.5702         23.0156 
       0.773185          22.233         15.2948         22.6828 
       0.779291         21.9863         15.0278         22.4183 
       0.785407         21.6134         14.7669         22.0778 
       0.791564         21.4537         14.5104         21.7986 
       0.797719         20.9713         14.2601         21.4993 
       0.803834         20.8776         14.0172         21.1777 
       0.809972         20.4683         13.7791         20.9847 
       0.816124         20.2366         13.5459         20.6608 
       0.822261         19.9966         13.3188          20.375 
       0.828378         19.7751         13.0976         20.1182 
       0.834502         19.5486         12.8813         19.9439 
       0.840667         19.3395         12.6685         19.6363 
       0.846816         18.9093         12.4612         19.4218 
       0.852925         18.8331         12.2599         19.2964 
       0.859047         18.5947         12.0627         18.9725 
       0.865192          18.322         11.8693         18.7365 
       0.871341         18.0797           11.68         18.5686 
       0.877463         17.8745         11.4957         18.3219 
       0.883569          17.754         11.3159         18.1281 
       0.889708         17.4551         11.1391         17.8957 
       0.895864         17.2328         10.9656          17.667 
       0.902008         17.0202         10.7962         17.5043 
       0.908149         16.7966         10.6305         17.3154 
       0.914301         16.7046          10.468          17.187 
       0.920448         16.4391          10.309         16.9094 
       0.926574         16.3045          10.154         16.7245 
       0.932687          16.078         10.0025         16.4875 
       0.938823         15.8647         9.85349         16.3485 
       0.944975         15.7409         9.70723         16.1801 
       0.951105         15.5546         9.56448         15.9463 
       0.957225         15.4498         9.42487         15.8635 
       0.963368         15.1949         9.28759          15.654 
       0.969511         15.0423         9.15306         15.5072 
       0.975621         14.8946         9.02193          15.328 
       0.981748         14.6947         8.89305         15.1977 
       0.987916         14.5935          8.7659          15.014 
        0.99406         14.4169         8.64173         14.8746 
        1.00019         14.3012         8.52022         14.7433 
        1.00632         14.1646         8.40118         14.5974 
        1.01246         14.0208         8.28425         14.5068 
        1.01859         13.8383         8.16975         14.3209 
        1.02471         13.6802         8.05756         14.1363 
        1.03085         13.6203         7.94711         14.0238 
        1.03698         13.4808         7.83898         13.9026 
        1.04314         13.3032         7.73241         13.7434 
        1.04929         13.1279         7.62808         13.6384 
        1.05541         13.0633          7.5261         13.5343 
        1.06154         12.9423         7.42574          13.372 
        1.06769         12.8231         7.32708         13.2435 
        1.07382         12.6303         7.23053         13.1406 
        1.07993         12.5253         7.13596         13.0169 
        1.08607         12.4541          7.0427         12.8886 
        1.09222         12.2885         6.95101         12.7825 
        1.09836         12.2299         6.86108         12.6386 
        1.10449         12.0573         6.77285         12.5266 
        1.11063         12.0037         6.68608         12.4373 
        1.11677         11.9081         6.60087         12.3062 
         1.1229         11.7887          6.5173         12.2186 
        1.12903         11.6862          6.4351         12.1438 
        1.13518         11.5324         6.35426         12.0158 
        1.14131         11.4593         6.27487         11.9013 
        1.14745         11.2923         6.19687         11.7831 
        1.15359         11.1978         6.12019         11.6922 
        1.15973         11.1052         6.04478         11.5913 
        1.16584          11.012         5.97099         11.5284 
        1.17197         10.9019         5.89833         11.4377 
        1.17811         10.8137         5.82666          11.301 
        1.18424         10.7351         5.75639         11.2291 
        1.19038         10.6658         5.68708         11.1308 
        1.19652         10.5599         5.61895         11.0347 
        1.20267         10.4821         5.55194         10.9412 
        1.20881         10.3524         5.48604         10.8887 
        1.21495         10.2794         5.42131         10.7861 
        1.22108         10.2229         5.35765         10.7055 
         1.2272         10.1262         5.29516         10.5961 
        1.23334         10.0707         5.23353         10.5368 
        1.23949         9.96096         5.17274         10.4527 
        1.24562         9.87068         5.11309         10.3549 
        1.25174         9.81682         5.05447         10.2879 
        1.25789         9.69001          4.9966         10.2007 
        1.26402         9.65549         4.93973         10.1116 
        1.27014         9.59852          4.8839         10.0471 
        1.27628         9.46495         4.82876         9.96727 
        1.28244         9.44805         4.77438         9.91347 
        1.28858         9.35846         4.72091           9.824 
        1.29471         9.22989         4.66838         9.75603 
        1.30084          9.1683          4.6167         9.71256 
        1.30697         9.15045         4.56573         9.61416 
        1.31312         9.04904         4.51545         9.54699 
        1.31925         8.98973          4.4661         9.50269 
        1.32537         8.92038         4.41754         9.43502 
        1.33151         8.84835         4.36952         9.35386 
        1.33765         8.77648         4.32225         9.27433 
        1.34378         8.75731         4.27578         9.22021 
        1.34992         8.65631         4.22996         9.15981 
        1.35606         8.58377         4.18471          9.0809 
         1.3622         8.51351          4.1402         9.01437 
        1.36833         8.47344         4.09645         8.98794 
        1.37445         8.41115         4.05336         8.90752 
        1.38059         8.34515         4.01075          8.8303 
        1.38675         8.28847         3.96866         8.79304 
        1.39288         8.20523         3.92734         8.72863 
        1.39901         8.15098         3.88663         8.67215 
        1.40515         8.09233          3.8464         8.61362 
         1.4113         8.03057         3.80676         8.55457 
        1.41742         7.99421         3.76783         8.49963 
        1.42355         7.91315         3.72938         8.43819 
         1.4297         7.87519         3.69135         8.38869 
        1.43585         7.82729         3.65386         8.34454 
        1.44198           7.769         3.61704         8.27475 
        1.44809         7.71528          3.5808         8.23274 
        1.45423          7.6494         3.54492         8.17925 
        1.46036         7.61158          3.5096         8.12386 
        1.46649         7.55459         3.47475         8.07655 
        1.47263         7.51263         3.44035         8.03155 
        1.47877         7.45586         3.40643         7.97592 
        1.48491         7.41789         3.37291         7.92031 
        1.49104         7.34678         3.33992         7.87865 
        1.49718         7.32049         3.30734         7.82975 
        1.50333         7.26463         3.27515         7.78212 
        1.50947         7.20277         3.24345         7.73931 
         1.5156         7.18305         3.21222         7.69424 
        1.52172         7.12347         3.18141         7.64194 
        1.52787         7.08513         3.15093         7.58272 
          1.534         7.03318          3.1209         7.54262 
        1.54013          7.0019         3.09129         7.49697 
        1.54627         6.94846         3.06201         7.45389 
        1.55241         6.88479          3.0331         7.41728 
        1.55855          6.8697         3.00461         7.36454 
        1.56467         6.82193         2.97657         7.32785 
         1.5708         6.77772          2.9488         7.29761 
        1.57695         6.72191         2.92135         7.24801 
        1.58308           6.671         2.89431         7.20498 
        1.58922         6.65201          2.8676         7.17615 
        1.59535         6.60758         2.84123         7.13146 
         1.6015          6.5422         2.81516         7.08164 
        1.60764         6.51559         2.78943         7.04262 
        1.61376         6.48963          2.7641         7.01153 
        1.61989         6.42473         2.73906         6.97623 
        1.62604         6.40564         2.71427         6.93217 
        1.63218         6.37036          2.6898         6.89466 
        1.63831         6.32761          2.6657         6.86238 
        1.64444         6.27484         2.64187         6.81725 
        1.65059          6.2409         2.61829         6.77757 
        1.65673         6.22162         2.59502         6.74503 
        1.66285         6.17985         2.57209         6.71234 
        1.66898         6.14413         2.54944         6.67523 
        1.67512          6.1034         2.52701         6.64021 
        1.68127         6.05507         2.50484         6.60174 
         1.6874          6.0335         2.48298         6.56758 
        1.69353         5.98564          2.4614         6.54208 
        1.69967         5.96564         2.44002         6.49852 
        1.70581         5.91773          2.4189         6.46346 
        1.71193          5.9014         2.39812         6.44021 
        1.71806         5.86021         2.37753          6.4052 
        1.72421         5.81976         2.35715         6.37138 
        1.73035         5.79262         2.33703         6.33586 
        1.73649         5.76184         2.31715         6.29955 
        1.74262         5.71243         2.29751         6.27372 
        1.74876         5.70993         2.27809          6.2432 
        1.75489         5.66661         2.25894         6.20463 
        1.76101         5.62135         2.24001         6.16766 
        1.76715         5.61169         2.22128         6.14453 
        1.77329         5.57754         2.20273         6.11696 
        1.77943         5.52619         2.18439         6.08312 
        1.78557         5.52423         2.16628          6.0518 
        1.79171         5.48924         2.14838         6.01895 
        1.79785         5.46302         2.13068         5.98749 
        1.80399         5.41004         2.11318          5.9625 
        1.81012         5.39771          2.0959         5.94087 
        1.81625         5.35886         2.07882         5.91478 
        1.82239          5.3362          2.0619         5.88464 
        1.82853         5.29944         2.04519         5.85777 
        1.83466         5.25911         2.02867         5.83407 
        1.84078         5.24426         2.01235         5.80632 
        1.84692         5.21559         1.99619           5.768 
        1.85306         5.18736         1.98019         5.73821 
         1.8592         5.17278         1.96438         5.71873 
        1.86533         5.14388         1.94876         5.69392 
        1.87147         5.11345         1.93329         5.66255 
