# k  (h/Mpc)    Pcb(k)  (Mpc/h)^3    Pcb_linear(k) (Mpc/h)^3    Pcb_NL(k) (Mpc/h)^3   ShotnoiseSubtracted = false
     0.00783031         8074.98         8116.54         8085.55 
       0.013688         9957.01         10161.5         10107.9 
       0.019231           10312         10427.4         10356.7 
      0.0249154         9774.06         9757.32         9691.82 
      0.0312784         8466.23         8521.73         8465.09 
      0.0375637         7176.68         7263.32         7214.95 
      0.0433917         6271.61         6285.39         6238.28 
      0.0492413         5506.07         5550.98         5508.97 
      0.0555754         5001.53         5004.87         4966.94 
      0.0619321         4516.37         4632.32         4594.62 
       0.067871         4299.35         4355.38         4318.25 
      0.0738098         4047.08         4079.38         4020.66 
      0.0800417         3732.44         3751.82         3697.56 
      0.0862327         3355.49         3386.49         3356.99 
      0.0921407         3011.47         3026.21         3004.89 
      0.0982031         2705.35         2680.16         2690.07 
       0.104506         2379.02         2377.07         2412.55 
       0.110769         2167.16         2148.14         2174.17 
       0.116806         2047.72         1992.78         2018.24 
       0.122832         1919.46         1886.68         1914.96 
       0.129052         1837.11         1806.32         1829.29 
       0.135211         1785.41         1733.42         1752.41 
       0.141259         1677.99         1652.01         1676.61 
       0.147318         1561.67         1553.72         1590.81 
       0.153489         1463.39         1438.98         1464.79 
       0.159709         1376.98          1318.2         1362.56 
       0.165845         1243.96         1205.75         1277.96 
       0.171974         1193.31         1109.43         1184.64 
       0.178125         1129.67         1033.37         1125.77 
       0.184229         1046.95         977.749         1066.04 
        0.19034          1024.1         937.441         1020.91 
       0.196428         993.805         906.019         976.989 
       0.202534         935.238         876.492         947.205 
       0.208729         920.727         843.234         906.631 
       0.214876         884.285         804.446         882.821 
       0.220989         826.528         760.686         847.034 
       0.227147         802.394          714.19         806.482 
        0.23329         765.982         669.115         774.545 
       0.239377         746.135         628.987         738.546 
       0.245482         704.796         595.168         699.406 
       0.251667          675.46         567.794         677.851 
       0.257832          666.69         546.313          652.15 
       0.263955          632.28           528.7         630.322 
       0.270079         612.011         512.537         611.864 
        0.27624         587.356         495.868         591.943 
       0.282372         574.698         477.741         576.034 
        0.28843         569.458         458.218         558.192 
       0.294538         539.736         437.533         542.199 
       0.300721         521.448           416.7          526.01 
        0.30691          511.56         397.098          511.16 
       0.313033         487.892         379.769         491.643 
       0.319153         478.958         364.838         477.141 
       0.325316         468.849         352.035         465.723 
        0.33145         457.673          340.99         448.609 
       0.337538         441.593         330.989         437.404 
       0.343633         428.359         321.263         431.626 
       0.349808         417.683          311.23         422.837 
       0.355968         409.104         300.816         414.414 
       0.362074         396.439         290.213         403.902 
       0.368217         392.504         279.511         390.967 
       0.374374         383.706         269.142         381.833 
       0.380519         368.019         259.453         371.769 
       0.386598         362.944         250.698         365.029 
       0.392688         353.941         242.813         355.192 
        0.39888         345.072         235.551         347.353 
       0.405048         338.431         228.893         342.552 
       0.411186         336.056         222.599          333.61 
       0.417313         329.974         216.432         325.491 
       0.423458         321.093         210.267         320.019 
       0.429607         312.898         204.076         313.888 
       0.435692         307.305         197.973         307.275 
       0.441815         301.839         191.965         304.066 
       0.447964         293.838         186.171         297.653 
       0.454126         289.623         180.673         289.406 
       0.460267         285.581         175.558         286.867 
       0.466387         279.982          170.81         280.853 
        0.47254         276.283         166.325         276.213 
       0.478662         268.666         162.084         270.895 
       0.484765         265.437         158.013         264.647 
       0.490885         261.942         154.025         261.396 
       0.497035          257.74         150.074         258.089 
       0.503198         255.514         146.176         253.977 
       0.509342          248.73         142.377          250.63 
       0.515458         245.437         138.701          248.03 
       0.521598         240.091         135.142         242.651 
       0.527764         237.356         131.723          238.75 
       0.533884         236.358         128.498         235.583 
           0.54          231.25         125.429         231.904 
       0.546137         226.069         122.478          229.29 
       0.552299         224.554         119.621         224.998 
       0.558452         220.585         116.859         221.977 
       0.564573          219.02         114.186         219.999 
       0.570708         214.299          111.57         217.176 
       0.576825         211.214         109.019         212.949 
       0.582926         209.085         106.536         210.382 
       0.589034         205.956         104.122         208.298 
       0.595184         204.256         101.774         204.479 
       0.601379         200.372         99.4961         203.264 
       0.607522         196.536         97.3195         200.017 
       0.613639         195.144         95.2262         198.035 
       0.619772         193.329         93.1954         195.452 
       0.625918         191.322          91.223         193.272 
       0.632068          187.31         89.3072         190.185 
       0.638161         185.587          87.462         189.212 
         0.6443         184.367         85.6515         186.747 
       0.650464         180.861         83.8799         183.243 
       0.656582         179.628         82.1657         181.941 
       0.662703         177.851         80.4959         179.881 
       0.668861         174.347         78.8631         177.954 
       0.675024         174.181          77.277         175.652 
       0.681124         171.612         75.7552         173.943 
       0.687237         169.517         74.2763         171.864 
       0.693381         167.729         72.8333         169.856 
       0.699536         165.916         71.4278         168.391 
       0.705665         163.981         70.0655          167.47 
       0.711789          162.01         68.7385         164.865 
       0.717957         160.194         67.4347         163.302 
        0.72409         158.684         66.1701         162.489 
       0.730186         158.667         64.9445         160.835 
       0.736317         155.997          63.743         158.681 
       0.742472         153.838         62.5679         157.275 
       0.748622         151.503         61.4244          155.44 
        0.75476          152.06         60.3134          154.04 
       0.760888         150.211         59.2328         152.072 
       0.767043         147.674         58.1754         151.277 
       0.773185         146.194         57.1467         150.374 
       0.779291         144.469         56.1491         148.692 
       0.785407          143.36          55.174         146.886 
       0.791564         142.281         54.2158         145.948 
       0.797719         140.345         53.2806          145.07 
       0.803834         140.225         52.3731         143.198 
       0.809972         139.037         51.4833         142.064 
       0.816124         136.953         50.6122         141.168 
       0.822261         135.664         49.7636         139.749 
       0.828378         135.419         48.9371         138.015 
       0.834502         133.359         48.1289         137.309 
       0.840667          132.82         47.3339          136.63 
       0.846816         131.375         46.5593         135.197 
       0.852925         130.063         45.8072         134.012 
       0.859047         128.896         45.0705         132.898 
       0.865192         128.066         44.3476         132.033 
       0.871341         126.684         43.6404         130.667 
       0.877463         125.724         42.9519         129.946 
       0.883569         125.476         42.2802         129.063 
       0.889708         124.253         41.6195         128.014 
       0.895864         123.067         40.9713         127.304 
       0.902008          121.78         40.3383          125.91 
       0.908149         120.305         39.7191         124.881 
       0.914301         120.215         39.1119         124.186 
       0.920448         119.781         38.5181         123.382 
       0.926574         117.542         37.9387          121.98 
       0.932687         117.373         37.3725         121.135 
       0.938823         116.449         36.8159         120.446 
       0.944975         115.233         36.2695         119.576 
       0.951105          114.21         35.7361         118.625 
       0.957225         113.985         35.2145         117.929 
       0.963368         112.692         34.7016         116.614 
       0.969511         111.824         34.1989         115.992 
       0.975621         110.766          33.709          116.19 
       0.981748          109.95         33.2274         114.895 
       0.987916         109.262         32.7523         114.262 
        0.99406           108.8         32.2884         113.234 
        1.00019         107.637         31.8344         112.283 
        1.00632         106.873         31.3896         111.628 
        1.01246         106.143         30.9527          110.68 
        1.01859          105.59         30.5249         110.289 
        1.02471         104.784         30.1058         109.892 
        1.03085         103.806         29.6931         108.929 
        1.03698         103.052         29.2891         108.019 
        1.04314         102.404         28.8909         107.476 
        1.04929         101.931         28.5011         107.015 
        1.05541         101.167           28.12          106.44 
        1.06154         100.451         27.7451          105.82 
        1.06769          99.692         27.3764         105.163 
        1.07382         98.9184         27.0157         104.476 
        1.07993         98.4456         26.6623         103.816 
        1.08607         97.6535         26.3139         103.186 
        1.09222         97.1887         25.9713         102.394 
        1.09836           96.25         25.6353         101.705 
        1.10449         95.6887         25.3056         101.203 
        1.11063         95.0403         24.9814          100.31 
        1.11677         94.3951         24.6631         99.7834 
         1.1229         93.6797         24.3508         99.5521 
        1.12903         93.2798         24.0437         98.7529 
        1.13518         92.6493         23.7417         98.1923 
        1.14131         91.9967          23.445         97.5762 
        1.14745         91.4944         23.1536         97.1087 
        1.15359         90.4019         22.8671         96.4673 
        1.15973         90.2299         22.5853         96.2361 
        1.16584         89.6124         22.3096         95.3401 
        1.17197          89.079         22.0381         94.9949 
        1.17811         88.3345         21.7703         94.3986 
        1.18424         87.7262         21.5078           93.98 
        1.19038         87.5608         21.2488         93.4109 
        1.19652         86.8645         20.9943          92.782 
        1.20267         86.2182         20.7439         92.3399 
        1.20881         85.6814         20.4977         91.8262 
        1.21495         85.1878         20.2558         91.1858 
        1.22108         84.8168          20.018         90.9691 
         1.2272         83.9952         19.7845         90.3513 
        1.23334         83.7948         19.5542         89.9731 
        1.23949           83.21         19.3271         89.2507 
        1.24562          82.477         19.1042         88.8701 
        1.25174         82.0289         18.8852         88.4926 
        1.25789         81.8268          18.669         87.9573 
        1.26402         81.2552         18.4565          87.547 
        1.27014         80.7949         18.2479         87.3557 
        1.27628         80.0416         18.0419         86.8555 
        1.28244         79.9383         17.8387         86.0204 
        1.28858         79.2214         17.6389         85.6293 
        1.29471         78.7401         17.4426         85.4092 
        1.30084         78.1153         17.2495         84.6864 
        1.30697         78.0733         17.0591         84.3734 
        1.31312         77.4427         16.8712         84.1111 
        1.31925         76.9294         16.6868         83.5728 
        1.32537         76.5252         16.5054         83.1618 
        1.33151         76.2742          16.326         82.7162 
        1.33765          75.671         16.1494         82.3442 
        1.34378         75.3303         15.9757          81.913 
        1.34992         74.9914         15.8045         81.5565 
        1.35606          74.411         15.6355         81.1169 
         1.3622         74.1773         15.4692         80.7212 
        1.36833         73.5322         15.3057         80.2139 
        1.37445         73.0326         15.1447         79.8551 
        1.38059         72.7952         14.9855         79.6938 
        1.38675          72.047         14.8282         79.0208 
        1.39288         71.9846         14.6738         78.8458 
        1.39901         71.3064         14.5217         78.4546 
        1.40515         71.0382         14.3714         78.1841 
         1.4113         70.7465         14.2233         77.8823 
        1.41742         70.2106         14.0779         77.2809 
        1.42355          69.971         13.9342         76.8268 
         1.4297         69.5161         13.7921          76.533 
        1.43585         69.0515          13.652         76.2468 
        1.44198         68.7009         13.5145         76.0008 
        1.44809         68.1735         13.3791         75.3745 
        1.45423         67.9645          13.245         75.1172 
        1.46036         67.4722          13.113          74.873 
        1.46649         67.1254         12.9828         74.6043 
        1.47263         66.8369         12.8543         74.2652 
        1.47877         66.5146         12.7275         73.7035 
        1.48491         66.0693         12.6023          73.502 
        1.49104         65.5476          12.479         73.0781 
        1.49718         65.3368         12.3573         72.7772 
        1.50333         65.0065         12.2371         72.3996 
        1.50947         64.7314         12.1186         72.0542 
         1.5156         64.4685         12.0019         71.8083 
        1.52172         63.8966         11.8868         71.5382 
        1.52787         63.5119         11.7729         71.2188 
          1.534          63.222         11.6607           70.91 
        1.54013         63.0522         11.5501         70.5455 
        1.54627         62.4384         11.4407         70.2306 
        1.55241         62.1903         11.3327         69.9377 
        1.55855         61.8614         11.2262         69.5199 
        1.56467         61.3273         11.1214         69.2433 
         1.5708         61.2185         11.0177          69.069 
        1.57695         60.8381         10.9151         68.8298 
        1.58308         60.5467         10.8141         68.5078 
        1.58922          60.234         10.7143         68.1372 
        1.59535         60.0609         10.6158         67.8198 
         1.6015         59.8359         10.5184         67.4847 
        1.60764         59.4065         10.4223         67.2808 
        1.61376          59.037         10.3276         67.1467 
        1.61989         58.5821          10.234         66.7318 
        1.62604         58.3935         10.1414         66.3194 
        1.63218         58.1027           10.05         66.0425 
        1.63831         57.8681         9.95992         65.8512 
        1.64444         57.6137         9.87092         65.5645 
        1.65059         57.2024          9.7828         65.1822 
        1.65673         56.8179         9.69585         64.9516 
        1.66285         56.5527         9.61019          64.763 
        1.66898          56.137         9.52555         64.4819 
        1.67512         55.9878         9.44177         64.2769 
        1.68127         55.7573         9.35891         63.9064 
         1.6874         55.3886         9.27724         63.5227 
        1.69353         55.1112         9.19659         63.4002 
        1.69967         54.8939         9.11671         63.1987 
        1.70581         54.5278         9.03782         62.9425 
        1.71193         54.2626         8.96016         62.6731 
        1.71806         53.9512         8.88325         62.3557 
        1.72421         53.7559         8.80709         62.0617 
        1.73035         53.4974         8.73191         61.8989 
        1.73649          53.104         8.65763         61.7449 
        1.74262          52.708         8.58427          61.323 
        1.74876         52.7026         8.51171         61.0264 
        1.75489         52.2714         8.44015         60.8463 
        1.76101         52.0129         8.36943         60.6075 
        1.76715         51.9196         8.29942         60.3176 
        1.77329         51.4058         8.23013         60.1007 
        1.77943         51.3609          8.1616         59.8822 
        1.78557         51.0671         8.09396         59.5718 
        1.79171         50.8037         8.02707         59.3116 
        1.79785         50.5195         7.96092         59.1275 
        1.80399         50.2367         7.89553         58.9423 
        1.81012         50.0058         7.83097         58.6614 
        1.81625         49.7531         7.76715         58.3766 
        1.82239         49.4839         7.70395         58.1895 
        1.82853          49.212         7.64149         58.0496 
        1.83466         49.0118         7.57978         57.7588 
        1.84078         48.7611         7.51882         57.4369 
        1.84692         48.5251         7.45843         57.3686 
        1.85306         48.2582         7.39863         57.1465 
         1.8592         48.0425         7.33958         56.8239 
        1.86533         47.7783         7.28121         56.6924 
        1.87147         47.5336         7.22341         56.4729 
