# k  (h/Mpc)    P(k)  (Mpc/h)^3    P_linear(k)  (Mpc/h)^3     P_NL(k)  ShotnoiseSubtracted = false
     0.00783031         1884.35         1896.64         1889.64 
       0.013688         2346.38         2375.49         2365.33 
       0.019231         2424.41         2438.07         2425.66 
      0.0249154         2283.57         2281.63         2272.82 
      0.0312784          1989.5         1992.83         1988.69 
      0.0375637          1692.2         1698.61         1696.02 
      0.0433917         1472.62         1469.95          1468.6 
      0.0492413         1296.35         1298.22         1297.44 
      0.0555754         1174.54         1170.52         1169.43 
      0.0619321         1072.88          1083.4         1082.08 
       0.067871         1015.98         1018.63          1016.7 
      0.0738098         953.091         954.089         950.624 
      0.0800417         878.646         877.484         874.289 
      0.0862327          790.94         792.045         790.469 
      0.0921407         707.065         707.783         707.047 
      0.0982031         630.317         626.848         628.217 
       0.104506         555.305         555.963         559.013 
       0.110769         503.173         502.419         504.825 
       0.116806          471.14         466.085         468.287 
       0.122832         442.906         441.269         443.573 
       0.129052         425.364         422.474         424.262 
       0.135211          409.98         405.426          406.95 
       0.141259         388.275         386.385         388.152 
       0.147318         362.751         363.396         366.146 
       0.153489         337.814          336.56         338.543 
       0.159709         312.164         308.311         311.539 
       0.165845          282.74         282.011         287.199 
       0.171974         265.708         259.484         264.687 
       0.178125         248.069         241.693         248.011 
       0.184229         232.888         228.684         234.865 
        0.19034         225.508         219.257         224.991 
       0.196428         217.708         211.908          216.52 
       0.202534         207.316         205.002         209.567 
       0.208729         201.911         197.223         201.513 
       0.214876         194.053         188.151         193.588 
       0.220989         180.871         177.916         183.835 
       0.227147          173.35         167.041         173.181 
        0.23329          163.65         156.499         163.663 
       0.239377          155.46         147.113         154.743 
       0.245482         146.777         139.204         146.272 
       0.251667         139.569         132.801         140.335 
       0.257832         136.428         127.777         134.992 
       0.263955         130.277         123.657         130.436 
       0.270079         126.106         119.877         126.379 
        0.27624         121.214         115.979         122.119 
       0.282372         117.276         111.739         118.189 
        0.28843         114.723         107.172          113.77 
       0.294538         109.288         102.335         109.258 
       0.300721         103.768         97.4618         104.866 
        0.30691         100.664         92.8771         100.472 
       0.313033         96.0954         88.8243         96.2461 
       0.319153         93.8378         85.3321         92.9536 
       0.325316         89.6048         82.3371         90.0702 
        0.33145         86.7617         79.7541         87.0457 
       0.337538         84.3655         77.4151          84.453 
       0.343633         82.0651         75.1399         82.2195 
       0.349808         79.4498          72.794         80.0328 
       0.355968         76.9039         70.3579         78.0493 
       0.362074         75.1632         67.8778         75.4069 
       0.368217         72.7401         65.3749         72.5534 
       0.374374         70.8359         62.9494         70.4309 
       0.380519         67.6551         60.6835         68.0353 
       0.386598         65.5943         58.6359          66.058 
       0.392688         63.5386         56.7915         64.2456 
        0.39888         62.2743         55.0929         62.3536 
       0.405048         60.7734         53.5359          60.659 
       0.411186         59.1572          52.064         59.4964 
       0.417313         57.5082         50.6213         57.7187 
       0.423458         55.8806         49.1792         56.3787 
       0.429607         54.8376         47.7315         54.8246 
       0.435692         53.7405         46.3038         53.5097 
       0.441815         51.6824         44.8987         52.3691 
       0.447964         49.9879         43.5435         50.8135 
       0.454126         49.0632         42.2578         49.3967 
       0.460267         48.4561         41.0611         48.3706 
       0.466387         47.0385         39.9509         47.0545 
        0.47254         46.2948         38.9018         46.0724 
       0.478662         44.8001         37.9098         44.9845 
       0.484765         43.8524         36.9575         43.8956 
       0.490885         42.6105         36.0252         43.1975 
       0.497035         41.8859         35.1007          42.338 
       0.503198         40.9193         34.1892          41.168 
       0.509342         39.7708         33.3006         40.3786 
       0.515458         39.2013         32.4409         39.7281 
       0.521598          38.239         31.6085         38.5447 
       0.527764         37.6823         30.8087         37.5763 
       0.533884         36.7732         30.0544         36.8354 
           0.54         35.9929         29.3366         36.0938 
       0.546137         34.9023         28.6464         35.5051 
       0.552299         34.3011         27.9783         34.6029 
       0.558452         33.5575         27.3322         33.9115 
       0.564573         33.1908          26.707         33.4616 
       0.570708         32.2946         26.0952         32.7985 
       0.576825         31.8461         25.4984         32.1504 
       0.582926         31.2507         24.9177         31.5789 
       0.589034         30.6104         24.3531         31.0826 
       0.595184         30.1771         23.8038         30.3114 
       0.601379         29.3456         23.2712         29.9259 
       0.607522         28.8609         22.7621         29.2531 
       0.613639         28.3629         22.2725         28.7321 
       0.619772         27.8639         21.7975         28.2818 
       0.625918         27.2832         21.3362         27.8209 
       0.632068         27.0305         20.8881         27.2523 
       0.638161         26.4379         20.4565         26.7919 
         0.6443         26.0076         20.0331         26.2883 
       0.650464          25.351         19.6187         25.9485 
       0.656582         25.1633         19.2178         25.5132 
       0.662703         24.8249         18.8272         25.0314 
       0.668861         24.1608         18.4453         24.7184 
       0.675024         23.8266         18.0743          24.201 
       0.681124         23.6781         17.7184         23.8204 
       0.687237         23.1774         17.3725          23.389 
       0.693381         22.6676          17.035         23.0152 
       0.699536          22.534         16.7063         22.7168 
       0.705665         22.0868         16.3877         22.4451 
       0.711789         21.6786         16.0773         21.9959 
       0.717957         21.2177         15.7723         21.6772 
        0.72409          21.031         15.4766         21.3992 
       0.730186         20.8963         15.1899         21.0308 
       0.736317         20.4358         14.9089         20.7099 
       0.742472         20.1751          14.634         20.5088 
       0.748622         19.8312         14.3666         20.1393 
        0.75476         19.3256         14.1067         19.8421 
       0.760888         19.2392          13.854         19.5947 
       0.767043         18.8864         13.6067         19.3517 
       0.773185         18.6659         13.3661         19.0686 
       0.779291         18.4788         13.1327         18.8358 
       0.785407         18.1492         12.9047         18.5439 
       0.791564         17.9887         12.6806         18.3048 
       0.797719         17.5853         12.4618         18.0337 
       0.803834         17.5021         12.2496         17.7639 
       0.809972         17.1516         12.0415          17.606 
       0.816124         16.9507         11.8377         17.3192 
       0.822261         16.7459         11.6392         17.0777 
       0.828378         16.5448         11.4459         16.8612 
       0.834502         16.3518         11.2569         16.6946 
       0.840667         16.1752         11.0709         16.4371 
       0.846816         15.8128         10.8898         16.2536 
       0.852925         15.7336         10.7139         16.1336 
       0.859047         15.5247         10.5416         15.8689 
       0.865192          15.297         10.3725         15.6649 
       0.871341         15.0869         10.2071         15.5167 
       0.877463         14.9101          10.046         15.3007 
       0.883569         14.8006         9.88893         15.1324 
       0.889708          14.545          9.7344         14.9404 
       0.895864         14.3593         9.58279         14.7426 
       0.902008         14.1764         9.43474         14.6021 
       0.908149         13.9799         9.28991          14.431 
       0.914301         13.8981          9.1479         14.3204 
       0.920448          13.677         9.00901         14.0827 
       0.926574         13.5739          8.8735         13.9329 
       0.932687         13.3686         8.74108          13.716 
       0.938823         13.1863          8.6109         13.6077 
       0.944975         13.0841         8.48308         13.4609 
       0.951105         12.9139         8.35834         13.2602 
       0.957225         12.8265         8.23633         13.1922 
       0.963368          12.618         8.11636         13.0107 
       0.969511         12.4827          7.9988         12.8874 
       0.975621         12.3525         7.88421         12.7246 
       0.981748         12.1796         7.77158         12.6088 
       0.987916         12.0885         7.66046         12.4625 
        0.99406         11.9535         7.55195          12.342 
        1.00019          11.848         7.44577         12.2333 
        1.00632         11.7318         7.34173         12.1009 
        1.01246         11.6022         7.23955         12.0227 
        1.01859         11.4515         7.13949         11.8602 
        1.02471         11.3081         7.04145         11.6989 
        1.03085         11.2601         6.94493         11.6054 
        1.03698         11.1384         6.85043         11.5057 
        1.04314         10.9934          6.7573         11.3707 
        1.04929         10.8393         6.66613         11.2763 
        1.05541         10.7801         6.57701         11.1838 
        1.06154         10.6753         6.48931         11.0537 
        1.06769         10.5906         6.40308         10.9483 
        1.07382         10.4162         6.31872         10.8536 
        1.07993         10.3255         6.23607         10.7472 
        1.08607         10.2652         6.15457         10.6358 
        1.09222         10.1225         6.07445         10.5415 
        1.09836         10.0843         5.99585         10.4187 
        1.10449         9.91594         5.91875         10.3268 
        1.11063         9.87888         5.84292         10.2471 
        1.11677         9.79173         5.76846         10.1421 
         1.1229         9.69628         5.69542         10.0643 
        1.12903         9.61103          5.6236         10.0018 
        1.13518         9.47239         5.55295         9.89613 
        1.14131         9.40524         5.48356         9.79166 
        1.14745         9.27057         5.41541         9.68772 
        1.15359         9.19375          5.3484          9.6152 
        1.15973         9.11245          5.2825         9.52848 
        1.16584         9.03643         5.21801          9.4753 
        1.17197         8.94434         5.15451         9.38971 
        1.17811         8.86419         5.09188         9.28217 
        1.18424         8.79756         5.03047          9.2163 
        1.19038         8.73627         4.96991         9.13256 
        1.19652         8.65536         4.91036         9.05733 
        1.20267          8.5831          4.8518         8.97067 
        1.20881         8.47724         4.79421         8.92535 
        1.21495         8.41367         4.73765         8.84006 
        1.22108         8.35683         4.68202         8.77146 
         1.2272         8.27432         4.62741           8.677 
        1.23334         8.23773         4.57355         8.62443 
        1.23949         8.13793         4.52043         8.55943 
        1.24562         8.06843          4.4683         8.47609 
        1.25174         8.01972         4.41707         8.41417 
        1.25789         7.90332         4.36649          8.3417 
        1.26402         7.87704          4.3168         8.26549 
        1.27014          7.8273         4.26801         8.21201 
        1.27628         7.71877         4.21983         8.14768 
        1.28244         7.69879          4.1723         8.09471 
        1.28858         7.63372         4.12557         8.02257 
        1.29471         7.52457         4.07966         7.96588 
        1.30084         7.46814          4.0345         7.92373 
        1.30697         7.45025         3.98996         7.84164 
        1.31312         7.36713         3.94603         7.78778 
        1.31925         7.31245          3.9029         7.74743 
        1.32537         7.25893         3.86046         7.68886 
        1.33151         7.19494          3.8185         7.62318 
        1.33765         7.13343         3.77719          7.5548 
        1.34378         7.11906         3.73657         7.51029 
        1.34992         7.03569         3.69653         7.45674 
        1.35606         6.97973         3.65699          7.3882 
         1.3622         6.91905          3.6181          7.3338 
        1.36833         6.87631         3.57986         7.31112 
        1.37445          6.8199          3.5422          7.2451 
        1.38059         6.76606         3.50497         7.18067 
        1.38675         6.71769         3.46819         7.14341 
        1.39288          6.6574         3.43208          7.0945 
        1.39901         6.60215          3.3965         7.04621 
        1.40515         6.55807         3.36134         6.99484 
         1.4113          6.5056          3.3267         6.94417 
        1.41742         6.47182         3.29269         6.89754 
        1.42355         6.40844         3.25908         6.84663 
         1.4297         6.37409         3.22584          6.8047 
        1.43585          6.3341         3.19309         6.76731 
        1.44198         6.27969         3.16091         6.70648 
        1.44809         6.24033         3.12924         6.67323 
        1.45423         6.18379         3.09788         6.62669 
        1.46036         6.15344         3.06702         6.58177 
        1.46649         6.10406         3.03656         6.54266 
        1.47263         6.06946          3.0065         6.50152 
        1.47877         6.02178         2.97686         6.45305 
        1.48491         5.98991         2.94757         6.41223 
        1.49104         5.93108         2.91873         6.37213 
        1.49718         5.90776         2.89027         6.33108 
        1.50333         5.85959         2.86213         6.29287 
        1.50947         5.80438         2.83443         6.25488 
         1.5156         5.78947         2.80714         6.21695 
        1.52172         5.74342         2.78021         6.17614 
        1.52787          5.7083         2.75358         6.12286 
          1.534         5.66348         2.72733         6.08889 
        1.54013         5.63779         2.70145         6.05447 
        1.54627         5.59368         2.67587          6.0186 
        1.55241         5.54218         2.65061         5.98417 
        1.55855         5.52724         2.62571         5.93628 
        1.56467         5.48747          2.6012         5.91031 
         1.5708         5.44817         2.57694         5.88385 
        1.57695         5.39962         2.55295         5.83847 
        1.58308         5.35934         2.52932         5.80469 
        1.58922         5.34384         2.50598         5.77995 
        1.59535         5.30707         2.48294         5.74321 
         1.6015          5.2559         2.46015         5.70131 
        1.60764         5.23435         2.43767           5.669 
        1.61376         5.20728         2.41553         5.64419 
        1.61989         5.15344         2.39364         5.61228 
        1.62604         5.13459         2.37198         5.57384 
        1.63218         5.10634          2.3506         5.54396 
        1.63831         5.07669         2.32953          5.5176 
        1.64444         5.03207         2.30872         5.47759 
        1.65059         5.00614         2.28811         5.44689 
        1.65673         4.98338         2.26777         5.41778 
        1.66285         4.95081         2.24774         5.38827 
        1.66898         4.91707         2.22794         5.35988 
        1.67512         4.88396         2.20834         5.33002 
        1.68127          4.8485         2.18896         5.30047 
         1.6874         4.82764         2.16986         5.27351 
        1.69353         4.78723           2.151         5.24626 
        1.69967         4.77027         2.13231         5.20946 
        1.70581         4.73137         2.11386          5.1822 
        1.71193         4.71429          2.0957         5.16339 
        1.71806         4.68229         2.07771         5.13331 
        1.72421         4.65043          2.0599         5.10286 
        1.73035         4.62496         2.04231         5.07318 
        1.73649         4.59684         2.02494         5.04457 
        1.74262         4.56534         2.00778         5.02171 
        1.74876         4.55584         1.99081          4.9979 
        1.75489         4.51943         1.97407         4.96756 
        1.76101          4.4849         1.95753         4.93456 
        1.76715         4.47616         1.94116         4.91171 
        1.77329         4.44727         1.92495         4.89031 
        1.77943         4.40645         1.90892         4.86483 
        1.78557         4.39926          1.8931         4.83726 
        1.79171          4.3727         1.87746          4.8094 
        1.79785         4.34987         1.86199         4.78399 
        1.80399         4.30732         1.84669         4.76288 
        1.81012         4.29679         1.83159         4.74378 
        1.81625         4.26661         1.81667         4.72102 
        1.82239         4.24807         1.80188         4.69635 
        1.82853         4.21884         1.78727         4.67624 
        1.83466         4.18419         1.77284         4.65635 
        1.84078         4.16796         1.75858         4.63112 
        1.84692         4.14536         1.74446         4.59925 
        1.85306         4.12118         1.73047         4.57329 
         1.8592          4.1094         1.71666         4.55639 
        1.86533         4.08485         1.70301         4.53868 
        1.87147         4.06185         1.68949         4.51452 
        1.87761         4.04527         1.67611          4.4904 
