# k  (h/Mpc)    P(k)  (Mpc/h)^3    P_linear(k)  (Mpc/h)^3     P_NL(k)  ShotnoiseSubtracted = false
     0.00783031         16751.2         16822.4           16749 
       0.013688         20474.7         21055.4         20911.8 
       0.019231         21236.9         21603.9         21404.1 
      0.0249154         20225.2         20214.3         19994.9 
      0.0312784         17417.4         17653.7         17420.8 
      0.0375637         14722.8         15046.4         14837.7 
      0.0433917         12899.9         13020.3         12803.4 
      0.0492413         11306.1         11498.8         11298.7 
      0.0555754         10269.3         10367.4         10190.9 
      0.0619321         9196.09         9595.61         9423.24 
       0.067871         8769.46         9021.88         8858.32 
      0.0738098         8289.66         8450.12          8199.7 
      0.0800417         7630.96         7771.58         7541.02 
      0.0862327         6863.08         7014.82         6881.92 
      0.0921407         6193.38          6268.5         6167.32 
      0.0982031         5604.27         5551.68         5569.12 
       0.104506         4938.21         4923.85         5040.58 
       0.110769         4524.47         4449.63         4539.22 
       0.116806         4290.43         4127.83         4215.77 
       0.122832         4035.98         3908.04         4004.57 
       0.129052         3829.28         3741.58         3822.35 
       0.135211         3747.98         3590.58         3650.89 
       0.141259         3499.28         3421.94         3508.72 
       0.147318         3268.22         3218.34         3340.09 
       0.153489          3077.1         2980.67         3071.85 
       0.159709         2941.21         2730.48         2889.14 
       0.165845         2673.97         2497.56         2748.87 
       0.171974         2580.84         2298.05         2571.86 
       0.178125         2481.18         2140.49         2471.67 
       0.184229         2281.41         2025.28         2335.97 
        0.19034         2252.09         1941.79         2240.34 
       0.196428         2192.69          1876.7         2147.54 
       0.202534         2070.54         1815.54         2084.29 
       0.208729         2034.57         1746.65         1986.09 
       0.214876         1946.83          1666.3         1944.62 
       0.220989         1853.21         1575.66         1885.16 
       0.227147         1798.22         1479.35         1820.01 
        0.23329         1724.02         1385.98         1761.99 
       0.239377         1710.59         1302.86         1687.81 
       0.245482         1628.13         1232.81         1608.96 
       0.251667         1568.25         1176.11         1565.59 
       0.257832         1541.44         1131.61         1509.94 
       0.263955         1474.62         1095.13         1464.89 
       0.270079         1438.82         1061.65         1425.11 
        0.27624          1379.8         1027.13         1384.63 
       0.282372         1365.18         989.576         1360.62 
        0.28843         1339.16         949.136          1332.6 
       0.294538         1279.55         906.291         1296.13 
       0.300721         1256.23         863.136         1257.69 
        0.30691         1223.68         822.534         1238.43 
       0.313033         1177.35         786.641         1196.93 
       0.319153         1164.79         755.713         1161.44 
       0.325316         1150.05         729.189         1140.18 
        0.33145         1124.28         706.314          1099.3 
       0.337538         1088.43         685.599          1081.2 
       0.343633          1064.2         665.449         1069.62 
       0.349808          1045.7         644.674         1053.26 
       0.355968         1023.99         623.099         1035.65 
       0.362074         993.552         601.135         1016.78 
       0.368217         990.437         578.969         991.663 
       0.374374         974.783         557.488         972.588 
       0.380519         941.252         537.422          952.16 
       0.386598         936.539         519.287         939.527 
       0.392688         911.631         502.953         916.756 
        0.39888         894.736          487.91         902.069 
       0.405048         876.092         474.121         887.129 
       0.411186         873.647         461.085         870.724 
       0.417313         868.196         448.309         859.451 
       0.423458         842.942         435.537         845.459 
       0.429607         820.741         422.716         831.235 
       0.435692         813.166         410.072         814.279 
       0.441815         797.463         397.629         810.811 
       0.447964         788.232         385.627         799.574 
       0.454126         777.979          374.24         776.949 
       0.460267         768.448         363.642         775.006 
       0.466387         754.611          353.81         760.854 
        0.47254         743.362         344.519         750.239 
       0.478662         732.511         335.734         738.668 
       0.484765         724.346           327.3          730.05 
       0.490885         716.726         319.044         717.015 
       0.497035         702.638         310.856         710.544 
       0.503198         701.604         302.784         702.423 
       0.509342         688.549         294.914          690.79 
       0.515458         674.926         287.301         686.252 
       0.521598         673.807         279.928         678.769 
       0.527764         657.853         272.845         671.684 
       0.533884         650.588         266.165         663.459 
           0.54         646.084         259.808         654.921 
       0.546137         637.019         253.696         647.075 
       0.552299         632.843         247.779         638.206 
       0.558452         624.693         242.057         633.304 
       0.564573         621.001          236.52         627.966 
       0.570708         613.695         231.102         620.714 
       0.576825         601.573         225.816         611.698 
       0.582926         599.889         220.674         607.069 
       0.589034         591.469         215.674         597.719 
       0.595184         585.132         210.809         592.197 
       0.601379         576.345         206.092         586.661 
       0.607522         567.529         201.584         578.267 
       0.613639         566.811         197.248         576.613 
       0.619772         562.084         193.041         575.016 
       0.625918         553.135         188.956         566.262 
       0.632068         550.578         184.987           562.9 
       0.638161         543.244         181.165         554.388 
         0.6443         537.217         177.415         550.353 
       0.650464         532.864         173.745         542.073 
       0.656582         528.511         170.195         539.034 
       0.662703         522.626         166.736         535.607 
       0.668861         516.056         163.354         532.754 
       0.675024         513.911         160.068          528.62 
       0.681124         503.326         156.916         520.156 
       0.687237         503.587         153.853         515.538 
       0.693381         495.373         150.864         511.142 
       0.699536         496.018         147.953         507.736 
       0.705665         488.025         145.131          501.42 
       0.711789         486.994         142.382         498.006 
       0.717957         480.411         139.681         497.073 
        0.72409         476.225         137.062         491.492 
       0.730186         475.384         134.523         486.558 
       0.736317         468.163         132.035         482.915 
       0.742472         463.518           129.6         479.066 
       0.748622         462.171         127.232         474.578 
        0.75476         455.907         124.931          475.44 
       0.760888         453.891         122.692         469.101 
       0.767043         450.691         120.502         463.941 
       0.773185         446.727         118.371         461.017 
       0.779291         442.263         116.305         457.072 
       0.785407         438.864         114.285         454.661 
       0.791564         436.603           112.3         452.239 
       0.797719         429.684         110.363         447.544 
       0.803834         430.513         108.483         445.432 
       0.809972         423.593          106.64         442.428 
       0.816124         420.523         104.836         436.548 
       0.822261         417.707         103.078         434.827 
       0.828378         415.884         101.366         431.602 
       0.834502         408.978         99.6921         430.076 
       0.840667         408.216         98.0454         426.088 
       0.846816         403.942          96.441         423.051 
       0.852925         403.687         94.8832         420.591 
       0.859047         398.954         93.3571          416.86 
       0.865192         396.758         91.8599          413.72 
       0.871341          391.82         90.3949         411.612 
       0.877463         391.046         88.9688         408.958 
       0.883569         387.282         87.5774         407.186 
       0.889708         383.032         86.2088           403.1 
       0.895864         378.893         84.8661         400.889 
       0.902008         377.989          83.555         398.016 
       0.908149          374.22         82.2724         394.456 
       0.914301         372.812         81.0148         391.379 
       0.920448          368.22         79.7847         389.946 
       0.926574         366.438         78.5846         387.018 
       0.932687         365.211         77.4119         384.074 
       0.938823         361.005          76.259         383.541 
       0.944975           359.9         75.1271         380.099 
       0.951105         356.493         74.0223         377.254 
       0.957225         352.134         72.9418          375.32 
       0.963368          352.35         71.8793         373.116 
       0.969511         347.184         70.8382         370.741 
       0.975621         345.112         69.8233         368.091 
       0.981748         343.834         68.8259         366.042 
       0.987916         341.379         67.8418         364.331 
        0.99406         337.662         66.8808          361.88 
        1.00019         334.517         65.9405         358.497 
        1.00632         333.905         65.0191         356.336 
        1.01246         330.809         64.1142         353.809 
        1.01859         327.943          63.228         351.549 
        1.02471          326.07         62.3598          350.03 
        1.03085         324.598          61.505         348.731 
        1.03698         322.406         60.6681          347.25 
        1.04314         320.006         59.8433         344.538 
        1.04929         318.709         59.0359         341.513 
        1.05541         315.147         58.2466         339.461 
        1.06154         312.866           57.47         337.871 
        1.06769         310.419         56.7063         335.528 
        1.07382         307.673         55.9592         333.595 
        1.07993         307.174         55.2272         332.049 
        1.08607         305.389         54.5054         329.424 
        1.09222         302.245         53.7959         327.641 
        1.09836         300.625         53.0999          326.51 
        1.10449         298.447          52.417         324.537 
        1.11063         297.035         51.7455         322.047 
        1.11677          293.58          51.086         320.227 
         1.1229         292.781         50.4392         318.518 
        1.12903         289.998         49.8031         316.957 
        1.13518         288.298         49.1775         314.608 
        1.14131          286.68          48.563          313.11 
        1.14745         283.848         47.9594         310.834 
        1.15359         281.533         47.3659         309.777 
        1.15973          280.17         46.7823         307.869 
        1.16584         278.518         46.2112         306.429 
        1.17197         276.684         45.6488         304.937 
        1.17811         273.566         45.0942         302.915 
        1.18424         272.679         44.5503         301.303 
        1.19038         271.186          44.014         300.252 
        1.19652         268.348         43.4867         297.917 
        1.20267         267.319          42.968         296.245 
        1.20881         265.538          42.458         294.857 
        1.21495         263.552         41.9571         292.851 
        1.22108         262.173         41.4644         290.922 
         1.2272         258.875         40.9808         289.442 
        1.23334         257.796         40.5038         287.861 
        1.23949         256.193         40.0333         286.614 
        1.24562         254.952         39.5717         284.827 
        1.25174         253.434          39.118         283.437 
        1.25789         250.857         38.6701         281.718 
        1.26402         249.969           38.23          280.88 
        1.27014         248.425         37.7979         278.765 
        1.27628         246.717         37.3712         278.089 
        1.28244         244.154         36.9503         276.818 
        1.28858          243.34         36.5364         274.951 
        1.29471         241.715         36.1299         272.594 
        1.30084         241.146         35.7299         271.443 
        1.30697         238.246         35.3355         270.425 
        1.31312         236.938         34.9464         268.641 
        1.31925         235.603         34.5644         267.276 
        1.32537         234.579         34.1886         265.601 
        1.33151          232.11          33.817         264.442 
        1.33765         230.405         33.4511         263.275 
        1.34378         229.774         33.0915         261.795 
        1.34992         227.201         32.7368         260.139 
        1.35606         226.096         32.3866         258.514 
         1.3622         224.259         32.0422         257.707 
        1.36833         224.006         31.7036         256.703 
        1.37445         222.813         31.3701         254.235 
        1.38059         219.875         31.0403         253.688 
        1.38675         218.497         30.7146         252.742 
        1.39288         217.913         30.3948         250.532 
        1.39901         215.744         30.0797         249.379 
        1.40515          214.76         29.7684         248.031 
         1.4113         213.185         29.4616         246.553 
        1.41742         211.592         29.1603         245.543 
        1.42355         210.629         28.8627          244.12 
         1.4297         209.186         28.5684          242.75 
        1.43585         207.878         28.2783          242.19 
        1.44198         206.406         27.9933         240.659 
        1.44809         205.272         27.7128         239.575 
        1.45423         204.001         27.4351         237.652 
        1.46036          203.16         27.1618         236.753 
        1.46649         201.456         26.8921         235.936 
        1.47263         199.954         26.6258         234.419 
        1.47877         198.801         26.3633         232.944 
        1.48491         197.287         26.1039         231.576 
        1.49104         195.353         25.8486         230.788 
        1.49718         194.818         25.5965         230.006 
        1.50333         193.223         25.3473          228.66 
        1.50947         191.999          25.102         227.579 
         1.5156         190.928         24.8603         226.407 
        1.52172         189.645         24.6218         224.803 
        1.52787         188.478          24.386         224.011 
          1.534         187.868         24.1535         222.904 
        1.54013         186.055         23.9243         221.771 
        1.54627         185.209         23.6977         220.954 
        1.55241         184.131          23.474         219.903 
        1.55855         182.789         23.2535         218.569 
        1.56467         181.703         23.0365          217.35 
         1.5708          180.19         22.8216          216.29 
        1.57695          179.58         22.6091         215.244 
        1.58308         178.435         22.3999         214.137 
        1.58922         176.887         22.1932         213.044 
        1.59535         175.694         21.9891         212.203 
         1.6015         174.892         21.7873         211.288 
        1.60764         173.468         21.5882         210.106 
        1.61376         172.302         21.3921         208.958 
        1.61989         171.227         21.1983         207.967 
        1.62604         170.442         21.0065         206.837 
        1.63218         169.125         20.8171         205.859 
        1.63831         168.374         20.6306          205.03 
        1.64444         166.869         20.4462         204.007 
        1.65059         166.026         20.2637          203.15 
        1.65673         164.989         20.0836         202.093 
        1.66285         163.887         19.9061         200.948 
        1.66898         163.047         19.7308         199.995 
        1.67512         161.819         19.5573          199.13 
        1.68127         160.879         19.3856          198.24 
         1.6874         159.847         19.2165         197.322 
        1.69353         159.189         19.0494         196.393 
        1.69967         157.815          18.884          195.39 
        1.70581         157.132         18.7205         194.562 
        1.71193         155.893         18.5597         193.679 
        1.71806         154.872         18.4004         192.356 
        1.72421         153.947         18.2426         191.543 
        1.73035         152.919         18.0869         190.799 
        1.73649         151.705          17.933          189.79 
        1.74262         150.979         17.7811          188.92 
        1.74876         150.176         17.6308         188.068 
        1.75489         149.581         17.4826         187.229 
        1.76101         148.398         17.3361         186.454 
        1.76715          147.36         17.1911         185.661 
        1.77329         146.292         17.0475         184.714 
        1.77943         145.385         16.9056         183.722 
        1.78557         144.335         16.7655         182.843 
        1.79171         143.782         16.6269         182.037 
        1.79785         142.601         16.4899         181.199 
        1.80399         141.882         16.3545         180.327 
        1.81012         141.426         16.2207         179.694 
        1.81625         139.837         16.0885         178.886 
        1.82239         139.556         15.9576         177.832 
        1.82853         138.414         15.8283         176.974 
        1.83466          137.24         15.7004         176.079 
        1.84078         136.683         15.5742         175.241 
        1.84692         136.033         15.4491         174.738 
        1.85306         134.994         15.3252         173.771 
         1.8592         134.315         15.2029         172.732 
        1.86533         133.016          15.082         172.356 
        1.87147         132.263         14.9623         171.817 
        1.87761         131.715         14.8438         170.888 
