# k  (h/Mpc)    P(k)  (Mpc/h)^3    P_linear(k)  (Mpc/h)^3     P_NL(k)  ShotnoiseSubtracted = false
     0.00783031         1212.78         1221.05          1216.5 
       0.013688         1512.86         1529.51         1523.12 
       0.019231         1562.39         1569.87         1562.18 
      0.0249154         1469.77         1469.17         1463.94 
      0.0312784         1281.72         1283.23         1281.17 
      0.0375637         1090.88         1093.79         1092.72 
      0.0433917         948.455          946.55         946.335 
      0.0492413         835.405         835.969         836.063 
      0.0555754         756.306         753.738         753.538 
      0.0619321         692.436         697.641         697.253 
       0.067871          654.83         655.939         655.098 
      0.0738098         613.986         614.377         612.797 
      0.0800417         565.818         565.048         563.583 
      0.0862327         509.565          510.03         509.297 
      0.0921407          455.37         455.771         455.497 
      0.0982031         405.405         403.654         404.334 
       0.104506         357.496         358.008         359.439 
       0.110769         323.687         323.529         324.695 
       0.116806         302.465         300.132         301.153 
       0.122832         284.665         284.152         285.179 
       0.129052         273.319          272.05         272.804 
       0.135211         263.097         261.071          261.68 
       0.141259         249.479          248.81         249.505 
       0.147318         233.374         234.007         235.133 
       0.153489         217.079         216.726         217.556 
       0.159709         200.061         198.535         199.918 
       0.165845         181.486           181.6         183.836 
       0.171974          169.76         167.093         169.335 
       0.178125          158.27         155.637         158.345 
       0.184229         148.868          147.26         149.907 
        0.19034         143.886         141.189          143.63 
       0.196428         138.822         136.457         138.394 
       0.202534         132.613          132.01         133.915 
       0.208729         128.808         127.001           128.8 
       0.214876         123.665         121.159         123.452 
       0.220989         115.494         114.568         117.073 
       0.227147         110.246         107.565         110.162 
        0.23329         103.837         100.777         103.819 
       0.239377         98.2894         94.7329         97.9865 
       0.245482          92.856         89.6395         92.6442 
       0.251667         88.2492         85.5163         88.7183 
       0.257832         85.9494         82.2812         85.3428 
       0.263955         82.3336         79.6285         82.4902 
       0.270079         79.7218         77.1943         79.9259 
        0.27624          76.677         74.6841         77.2557 
       0.282372         74.0834         71.9536          74.676 
        0.28843         72.1373         69.0132         71.8087 
       0.294538          68.772         65.8979         68.8248 
       0.300721         65.2435           62.76         65.8935 
        0.30691         63.0458         59.8078         63.0199 
       0.313033         60.2055          57.198         60.3375 
       0.319153         58.6579         54.9492         58.1836 
       0.325316         55.9097         53.0206         56.3001 
        0.33145         54.1245         51.3573          54.446 
       0.337538         52.6648         49.8511         52.8246 
       0.343633         51.2573          48.386         51.3489 
       0.349808         49.5839         46.8753         49.9149 
       0.355968          47.915         45.3066         48.5806 
       0.362074          46.731         43.7096         46.8886 
       0.368217          45.113         42.0978         45.1057 
       0.374374         43.8958          40.536         43.6995 
       0.380519         41.9515         39.0769         42.1708 
       0.386598         40.5709         37.7583         40.8951 
       0.392688         39.2704         36.5706         39.7101 
        0.39888         38.4187         35.4768         38.5481 
       0.405048         37.4604         34.4742         37.4379 
       0.411186         36.4012         33.5264         36.6643 
       0.417313          35.388         32.5974         35.5952 
       0.423458          34.313         31.6687         34.7113 
       0.429607         33.6479         30.7365         33.7135 
       0.435692         32.8968         29.8171         32.8584 
       0.441815         31.6485         28.9123         32.0743 
       0.447964          30.584         28.0396         31.1075 
       0.454126         29.9966         27.2117         30.2313 
       0.460267          29.529         26.4411         29.5319 
       0.466387         28.6358         25.7262         28.7106 
        0.47254         28.1109         25.0506         28.0629 
       0.478662         27.2592         24.4118         27.3736 
       0.484765         26.6352         23.7986          26.719 
       0.490885         25.8687         23.1983         26.2437 
       0.497035         25.3003         22.6029         25.6753 
       0.503198         24.7561          22.016          24.939 
       0.509342         24.0295         21.4437         24.4165 
       0.515458         23.6458         20.8902         23.9637 
       0.521598         23.0706         20.3541         23.2548 
       0.527764         22.6966         19.8391         22.6812 
       0.533884         22.0316         19.3534         22.1949 
           0.54         21.5946         18.8912         21.7093 
       0.546137         20.9408         18.4467         21.3155 
       0.552299         20.5639         18.0165         20.7611 
       0.558452         20.1039         17.6004         20.3407 
       0.564573         19.8065         17.1979         20.0427 
       0.570708         19.3222         16.8039         19.6146 
       0.576825         18.9867         16.4196         19.1996 
       0.582926         18.5805         16.0456         18.8428 
       0.589034         18.2088         15.6821         18.5177 
       0.595184         17.9399         15.3284         18.0171 
       0.601379          17.439         14.9854         17.7797 
       0.607522          17.124         14.6575         17.3857 
       0.613639         16.7637         14.3423         17.0424 
       0.619772         16.4873         14.0364         16.7707 
       0.625918         16.1248         13.7393         16.4384 
       0.632068         15.9364         13.4508         16.1021 
       0.638161         15.5848         13.1729         15.8091 
         0.6443         15.2931         12.9002         15.4992 
       0.650464         14.9156         12.6334         15.2896 
       0.656582         14.7821         12.3752         15.0029 
       0.662703         14.5554         12.1237         14.7145 
       0.668861         14.1552         11.8778         14.5082 
       0.675024         13.9258         11.6389         14.1976 
       0.681124         13.8604         11.4097         13.9545 
       0.687237          13.545          11.187         13.6755 
       0.693381         13.2035         10.9696         13.4392 
       0.699536         13.1106         10.7579         13.2332 
       0.705665         12.8488         10.5528         13.0835 
       0.711789         12.5849         10.3529          12.826 
       0.717957         12.3142         10.1565         12.5947 
        0.72409         12.1952         9.96605          12.419 
       0.730186         12.0916         9.78147         12.1903 
       0.736317         11.8075         9.60051         11.9896 
       0.742472         11.6535         9.42351           11.87 
       0.748622         11.4568         9.25129         11.6554 
        0.75476         11.1564         9.08396         11.4504 
       0.760888         11.0752         8.92121         11.2935 
       0.767043         10.8416         8.76195         11.1429 
       0.773185         10.7002         8.60702         10.9779 
       0.779291         10.6238         8.45677         10.8216 
       0.785407         10.4061         8.30991         10.6413 
       0.791564         10.2739         8.16559         10.4929 
       0.797719         10.0617         8.02473         10.3109 
       0.803834         9.98086         7.88805           10.16 
       0.809972         9.78261         7.75404         10.0665 
       0.816124         9.65433         7.62284         9.88351 
       0.822261         9.52647         7.49503         9.73932 
       0.828378         9.38668         7.37055         9.60844 
       0.834502         9.26508         7.24882         9.47978 
       0.840667         9.16338         7.12908         9.33889 
       0.846816         8.96579         7.01242         9.22856 
       0.852925         8.87901         6.89915         9.12445 
       0.859047         8.75328         6.78818         8.99361 
       0.865192          8.6216         6.67932         8.86466 
       0.871341           8.494          6.5728          8.7638 
       0.877463         8.38243         6.46911         8.62773 
       0.883569          8.2973         6.36793         8.52661 
       0.889708         8.16063         6.26842         8.41604 
       0.895864         8.05295         6.17079         8.29379 
       0.902008         7.93325         6.07545         8.20404 
       0.908149         7.82143          5.9822         8.09183 
       0.914301         7.75269         5.89075         8.01231 
       0.920448         7.63927         5.80131         7.87666 
       0.926574         7.58237         5.71405         7.79793 
       0.932687         7.44967         5.62878         7.65317 
       0.938823         7.33112         5.54495         7.60043 
       0.944975         7.27612         5.46264         7.49731 
       0.951105         7.15211         5.38232         7.38917 
       0.957225         7.10212         5.30375         7.33742 
       0.963368         7.00227          5.2265          7.2314 
       0.969511         6.91533         5.15079         7.15552 
       0.975621         6.82441           5.077         7.04504 
       0.981748         6.71129         5.00447         6.96812 
       0.987916         6.65158         4.93292         6.90034 
        0.99406         6.59376         4.86304         6.82387 
        1.00019         6.52006         4.79467          6.7595 
        1.00632         6.45013         4.72768          6.6704 
        1.01246         6.35998         4.66188          6.6109 
        1.01859         6.27879         4.59744         6.51629 
        1.02471         6.18384         4.53431         6.42166 
        1.03085         6.15184         4.47216         6.36091 
        1.03698         6.07676         4.41131         6.30323 
        1.04314         6.00504         4.35133         6.22638 
        1.04929         5.91169         4.29262          6.1634 
        1.05541         5.85843         4.23524         6.10467 
        1.06154         5.80193         4.17876         6.03619 
        1.06769         5.76495         4.12324         5.97924 
        1.07382         5.65904         4.06891         5.91248 
        1.07993         5.59506         4.01569         5.84455 
        1.08607         5.55868         3.96321         5.78117 
        1.09222         5.47609         3.91161         5.71634 
        1.09836         5.46218           3.861          5.6494 
        1.10449          5.3424         3.81135         5.59814 
        1.11063         5.31879         3.76252         5.53904 
        1.11677         5.26379         3.71457         5.48754 
         1.1229         5.20855         3.66754         5.43846 
        1.12903         5.16384         3.62129          5.3921 
        1.13518         5.08212          3.5758         5.33499 
        1.14131         5.03038         3.53112         5.26721 
        1.14745         4.96669         3.48723         5.20612 
        1.15359         4.92264         3.44408         5.17057 
        1.15973         4.86945         3.40164         5.11625 
        1.16584         4.82874         3.36011         5.07825 
        1.17197         4.77241         3.31922         5.02092 
        1.17811         4.72169         3.27889         4.96746 
        1.18424         4.67669         3.23935         4.91962 
        1.19038         4.63629         3.20035         4.87368 
        1.19652         4.59771         3.16201         4.83747 
        1.20267         4.55286          3.1243          4.7751 
        1.20881         4.49816         3.08721         4.74206 
        1.21495         4.45849         3.05079         4.70145 
        1.22108          4.4156         3.01496         4.65763 
         1.2272         4.36025          2.9798          4.6016 
        1.23334         4.34789         2.94512         4.56899 
        1.23949         4.28692         2.91091         4.53809 
        1.24562         4.25145         2.87734         4.49246 
        1.25174         4.22159         2.84435         4.44278 
        1.25789         4.15318         2.81178         4.40241 
        1.26402         4.12757         2.77979         4.35644 
        1.27014         4.09283         2.74837         4.32905 
        1.27628         4.04419         2.71734         4.29578 
        1.28244         4.01962         2.68673          4.2531 
        1.28858         3.99036         2.65664         4.21415 
        1.29471         3.93092         2.62708          4.1778 
        1.30084         3.89525           2.598         4.15041 
        1.30697         3.87427         2.56932         4.10772 
        1.31312         3.83544         2.54103         4.07349 
        1.31925         3.79843         2.51325          4.0475 
        1.32537         3.77042         2.48592         4.01286 
        1.33151         3.72959          2.4589         3.97746 
        1.33765         3.69883          2.4323         3.93988 
        1.34378         3.67973         2.40615         3.91371 
        1.34992          3.6405         2.38037          3.8786 
        1.35606         3.61153          2.3549         3.83646 
         1.3622         3.57856         2.32986          3.8084 
        1.36833         3.54024         2.30524         3.79238 
        1.37445         3.50481         2.28099         3.75716 
        1.38059         3.47643         2.25701         3.72267 
        1.38675         3.44829         2.23332         3.68825 
        1.39288         3.42895         2.21007         3.66822 
        1.39901         3.38476         2.18716         3.63927 
        1.40515         3.36234         2.16452         3.60709 
         1.4113          3.3369         2.14222         3.58071 
        1.41742         3.30523         2.12031         3.55524 
        1.42355         3.27654         2.09867         3.51708 
         1.4297          3.2556         2.07727         3.50095 
        1.43585         3.22971         2.05617         3.47937 
        1.44198          3.1979         2.03545         3.44054 
        1.44809         3.17951         2.01506         3.42282 
        1.45423         3.14968         1.99487         3.39029 
        1.46036         3.12823         1.97499         3.36574 
        1.46649         3.09297         1.95538          3.3457 
        1.47263           3.081         1.93602         3.31983 
        1.47877         3.05532         1.91693         3.29059 
        1.48491         3.02686         1.89807         3.27026 
        1.49104         3.00299         1.87951          3.2416 
        1.49718         2.98347         1.86117         3.22011 
        1.50333         2.95607         1.84306         3.19952 
        1.50947         2.92755         1.82522         3.17463 
         1.5156         2.91195         1.80765         3.15318 
        1.52172            2.89         1.79031         3.13444 
        1.52787          2.8681         1.77316         3.10182 
          1.534          2.8451         1.75625         3.08093 
        1.54013         2.82369         1.73959         3.06147 
        1.54627         2.80099         1.72311         3.03888 
        1.55241         2.77516         1.70685         3.01755 
        1.55855         2.76079         1.69081         2.99124 
        1.56467         2.74096         1.67503         2.97721 
         1.5708         2.71767         1.65941         2.95678 
        1.57695         2.69052         1.64396         2.93232 
        1.58308         2.66941         1.62875         2.91742 
        1.58922         2.66095         1.61371         2.89865 
        1.59535         2.63522         1.59888         2.87882 
         1.6015         2.61228         1.58421         2.85673 
        1.60764         2.60059         1.56973         2.83875 
        1.61376         2.57586         1.55547         2.82438 
        1.61989         2.55366         1.54138         2.80276 
        1.62604         2.53603         1.52743          2.7827 
        1.63218         2.52453         1.51366         2.76651 
        1.63831         2.51025         1.50009         2.74887 
        1.64444         2.48683         1.48669         2.72741 
        1.65059          2.4741         1.47342         2.71058 
        1.65673         2.44918         1.46032         2.69333 
        1.66285         2.43274         1.44742         2.67474 
        1.66898          2.4159         1.43467         2.65681 
        1.67512         2.39645         1.42205         2.64074 
        1.68127          2.3797         1.40957         2.62809 
         1.6874         2.37094         1.39727         2.61391 
        1.69353         2.34362         1.38513          2.5927 
        1.69967         2.33098         1.37309         2.57258 
        1.70581         2.31918         1.36121         2.56005 
        1.71193         2.29451         1.34952         2.54886 
        1.71806         2.28334         1.33793         2.52789 
        1.72421         2.27003         1.32646         2.51022 
        1.73035         2.25063         1.31514         2.49603 
        1.73649         2.23826         1.30395         2.48129 
        1.74262         2.22352          1.2929         2.46577 
        1.74876         2.20872         1.28197         2.45361 
        1.75489         2.19237          1.2712          2.4384 
        1.76101         2.17525         1.26054         2.41791 
        1.76715         2.16767            1.25         2.40287 
        1.77329           2.148         1.23956           2.391 
        1.77943         2.13438         1.22924         2.37764 
        1.78557         2.12114         1.21906         2.36227 
        1.79171         2.10941         1.20898         2.34779 
        1.79785         2.09573         1.19902         2.33427 
        1.80399         2.07998         1.18917         2.32059 
        1.81012          2.0663         1.17945         2.30748 
        1.81625         2.04936         1.16983          2.2936 
        1.82239         2.04082         1.16032         2.28082 
        1.82853         2.02608         1.15091         2.27219 
        1.83466         2.00758         1.14161         2.26105 
        1.84078         1.99705         1.13243         2.24536 
        1.84692         1.98484         1.12334           2.229 
        1.85306         1.97334         1.11433         2.21432 
         1.8592         1.96062         1.10544         2.20293 
        1.86533         1.94858         1.09665         2.19343 
        1.87147         1.93793         1.08794         2.18201 
        1.87761         1.92677         1.07932         2.16979 
