# k  (h/Mpc)    Pcb(k)  (Mpc/h)^3    Pcb_linear(k) (Mpc/h)^3    Pcb_NL(k) (Mpc/h)^3   ShotnoiseSubtracted = false
     0.00783031         1222.75         1231.09          1226.5 
       0.013688         1525.29         1542.08         1535.64 
       0.019231         1575.23         1582.77         1575.01 
      0.0249154         1481.85         1481.24         1475.97 
      0.0312784         1292.26         1293.77          1291.7 
      0.0375637         1099.85         1102.78          1101.7 
      0.0433917          956.25         954.329         954.112 
      0.0492413         842.271         842.839         842.934 
      0.0555754         762.521         759.933         759.731 
      0.0619321         698.127         703.374         702.983 
       0.067871         660.211          661.33         660.482 
      0.0738098         619.031         619.426         617.833 
      0.0800417         570.468         569.692         568.215 
      0.0862327         513.753         514.222         513.483 
      0.0921407         459.113         459.517          459.24 
      0.0982031         408.737         406.972         407.657 
       0.104506         360.434          360.95         362.393 
       0.110769         326.347         326.188         327.363 
       0.116806          304.95         302.599         303.628 
       0.122832         287.005         286.487         287.522 
       0.129052         275.565         274.285         275.046 
       0.135211         265.259         263.217          263.83 
       0.141259         251.529         250.855         251.556 
       0.147318         235.292          235.93         237.065 
       0.153489         218.863         218.507         219.343 
       0.159709         201.705         200.167         201.561 
       0.165845         182.977         183.092         185.347 
       0.171974         171.156         168.466         170.726 
       0.178125          159.57         156.916         159.646 
       0.184229         150.092          148.47         151.139 
        0.19034         145.068          142.35          144.81 
       0.196428         139.963         137.578         139.531 
       0.202534         133.703         133.095         135.016 
       0.208729         129.866         128.045         129.859 
       0.214876         124.681         122.155         124.467 
       0.220989         116.443          115.51         118.035 
       0.227147         111.152         108.449         111.067 
        0.23329          104.69         101.605         104.672 
       0.239377         99.0972         95.5114         98.7917 
       0.245482         93.6191         90.3761         93.4056 
       0.251667         88.9744         86.2193         89.4476 
       0.257832         86.6558         82.9575         86.0443 
       0.263955         83.0103          80.283         83.1681 
       0.270079         80.3769         77.8287         80.5828 
        0.27624         77.3072         75.2975         77.8902 
       0.282372         74.6923          72.545         75.2897 
        0.28843         72.7301         69.5803         72.3988 
       0.294538         69.3372         66.4394         69.3903 
       0.300721         65.7797         63.2758         66.4351 
        0.30691         63.5639         60.2993         63.5378 
       0.313033         60.7003         57.6679         60.8332 
       0.319153           59.14         55.4007         58.6616 
       0.325316         56.3692         53.4566         56.7631 
        0.33145         54.5693         51.7793         54.8934 
       0.337538         53.0976         50.2607         53.2587 
       0.343633         51.6785         48.7838          51.771 
       0.349808         49.9914         47.2604         50.3249 
       0.355968         48.3088          45.679         48.9798 
       0.362074         47.1151         44.0689          47.274 
       0.368217         45.4837         42.4438         45.4763 
       0.374374         44.2565         40.8692         44.0587 
       0.380519         42.2962          39.398         42.5174 
       0.386598         40.9044         38.0686         41.2311 
       0.392688         39.5932         36.8712         40.0365 
        0.39888         38.7345         35.7685          38.865 
       0.405048         37.7682         34.7575         37.7456 
       0.411186         36.7004         33.8018         36.9655 
       0.417313         35.6789         32.8653         35.8877 
       0.423458         34.5949          31.929         34.9966 
       0.429607         33.9245          30.989         33.9905 
       0.435692         33.1671         30.0622         33.1285 
       0.441815         31.9086         29.1499         32.3379 
       0.447964         30.8353         28.2701         31.3632 
       0.454126         30.2432         27.4353         30.4797 
       0.460267         29.7717         26.6585         29.7747 
       0.466387         28.8711         25.9376         28.9465 
        0.47254         28.3419         25.2565         28.2935 
       0.478662         27.4832         24.6124         27.5986 
       0.484765         26.8541         23.9943         26.9387 
       0.490885         26.0813         23.3888         26.4592 
       0.497035         25.5082         22.7887         25.8863 
       0.503198         24.9595         22.1969         25.1439 
       0.509342          24.227           21.62         24.6171 
       0.515458         23.8401         21.0619         24.1607 
       0.521598         23.2602         20.5214         23.4459 
       0.527764         22.8831         20.0022         22.8676 
       0.533884         22.2127         19.5124         22.3772 
           0.54         21.7721         19.0464         21.8878 
       0.546137         21.1129         18.5983         21.4907 
       0.552299         20.7329         18.1646         20.9317 
       0.558452         20.2691         17.7451         20.5078 
       0.564573         19.9693         17.3392         20.2074 
       0.570708          19.481         16.9419         19.7757 
       0.576825         19.1427         16.5545         19.3574 
       0.582926         18.7332         16.1775         18.9977 
       0.589034         18.3584         15.8109         18.6698 
       0.595184         18.0873         15.4544         18.1652 
       0.601379         17.5823         15.1085         17.9258 
       0.607522         17.2647          14.778         17.5286 
       0.613639         16.9015         14.4601         17.1825 
       0.619772         16.6228         14.1518         16.9085 
       0.625918         16.2573         13.8522         16.5735 
       0.632068         16.0674         13.5613         16.2344 
       0.638161         15.7128         13.2811         15.9391 
         0.6443         15.4187         13.0062         15.6265 
       0.650464         15.0382         12.7372         15.4152 
       0.656582         14.9036         12.4769         15.1262 
       0.662703         14.6751         12.2233         14.8354 
       0.668861         14.2716         11.9754         14.6274 
       0.675024         14.0402         11.7345         14.3143 
       0.681124         13.9743         11.5035         14.0692 
       0.687237         13.6564         11.2789         13.7879 
       0.693381          13.312         11.0598         13.5496 
       0.699536         13.2184         10.8463          13.342 
       0.705665         12.9544         10.6395          13.191 
       0.711789         12.6884          10.438         12.9314 
       0.717957         12.4154           10.24         12.6982 
        0.72409         12.2954          10.048         12.5211 
       0.730186          12.191         9.86186         12.2905 
       0.736317         11.9045         9.67941         12.0881 
       0.742472         11.7493         9.50096         11.9675 
       0.748622          11.551         9.32732         11.7512 
        0.75476         11.2481         9.15862         11.5445 
       0.760888         11.1662         8.99453         11.3863 
       0.767043         10.9307         8.83396         11.2345 
       0.773185         10.7881         8.67775         11.0681 
       0.779291         10.7111         8.52627         10.9105 
       0.785407         10.4916          8.3782         10.7287 
       0.791564         10.3584          8.2327         10.5791 
       0.797719         10.1444         8.09068         10.3957 
       0.803834         10.0629         7.95288         10.2435 
       0.809972           9.863         7.81777         10.1493 
       0.816124         9.73367         7.68549         9.96474 
       0.822261         9.60476         7.55663         9.81936 
       0.828378         9.46382         7.43112          9.6874 
       0.834502         9.34122         7.30839         9.55769 
       0.840667         9.23869         7.18767         9.41564 
       0.846816         9.03948         7.07005          9.3044 
       0.852925         8.95198         6.95585         9.19943 
       0.859047         8.82521         6.84397         9.06752 
       0.865192         8.69245         6.73421         8.93751 
       0.871341          8.5638         6.62682         8.83582 
       0.877463         8.45132         6.52227         8.69864 
       0.883569         8.36549         6.42027         8.59668 
       0.889708          8.2277         6.31994          8.4852 
       0.895864         8.11913         6.22151         8.36195 
       0.902008         7.99845         6.12538         8.27146 
       0.908149          7.8857         6.03136         8.15833 
       0.914301          7.8164         5.93916         8.07816 
       0.920448         7.70205         5.84899          7.9414 
       0.926574         7.64469         5.76101         7.86201 
       0.932687          7.5109         5.67504         7.71607 
       0.938823         7.39137         5.59052          7.6629 
       0.944975         7.33591         5.50754         7.55892 
       0.951105         7.21088         5.42655          7.4499 
       0.957225         7.16049         5.34734         7.39772 
       0.963368         7.05981         5.26945         7.29083 
       0.969511         6.97216         5.19312         7.21433 
       0.975621          6.8805         5.11872         7.10294 
       0.981748         6.76645          5.0456         7.02538 
       0.987916         6.70624         4.97346         6.95705 
        0.99406         6.64795         4.90301         6.87995 
        1.00019         6.57364         4.83407         6.81506 
        1.00632         6.50313         4.76653         6.72522 
        1.01246         6.41225         4.70019         6.66523 
        1.01859         6.33039         4.63522         6.56985 
        1.02471         6.23466         4.57158         6.47443 
        1.03085         6.20239         4.50891         6.41319 
        1.03698          6.1267         4.44756         6.35503 
        1.04314         6.05439         4.38709         6.27755 
        1.04929         5.96028          4.3279         6.21405 
        1.05541         5.90657         4.27004         6.15484 
        1.06154         5.84962          4.2131         6.08579 
        1.06769         5.81232         4.15712         6.02838 
        1.07382         5.70554         4.10235         5.96107 
        1.07993         5.64105         4.04869         5.89258 
        1.08607         5.60436         3.99578         5.82868 
        1.09222          5.5211         3.94376         5.76332 
        1.09836         5.50707         3.89273         5.69583 
        1.10449         5.38631         3.84267         5.64414 
        1.11063          5.3625         3.79344         5.58456 
        1.11677         5.30705          3.7451         5.53263 
         1.1229         5.25136         3.69768         5.48316 
        1.12903         5.20627         3.65105         5.43642 
        1.13518         5.12389         3.60518         5.37883 
        1.14131         5.07172         3.56014          5.3105 
        1.14745          5.0075         3.51588         5.24891 
        1.15359         4.96309         3.47238         5.21306 
        1.15973         4.90947          3.4296          5.1583 
        1.16584         4.86842         3.38773         5.11998 
        1.17197         4.81163          3.3465         5.06218 
        1.17811          4.7605         3.30584         5.00828 
        1.18424         4.71513         3.26597         4.96005 
        1.19038         4.67439         3.22665         4.91373 
        1.19652         4.63549         3.18799         4.87723 
        1.20267         4.59027         3.14997         4.81434 
        1.20881         4.53513         3.11258         4.78103 
        1.21495         4.49513         3.07586         4.74009 
        1.22108         4.45189         3.03974         4.69591 
         1.2272         4.39608         3.00429         4.63942 
        1.23334         4.38362         2.96932         4.60654 
        1.23949         4.32215         2.93483         4.57538 
        1.24562         4.28639         2.90099         4.52938 
        1.25174         4.25628         2.86773          4.4793 
        1.25789         4.18731         2.83489         4.43859 
        1.26402         4.16149         2.80263         4.39224 
        1.27014         4.12646         2.77095         4.36463 
        1.27628         4.07743         2.73967         4.33108 
        1.28244         4.05265         2.70881         4.28805 
        1.28858         4.02315         2.67848         4.24878 
        1.29471         3.96323         2.64867         4.21213 
        1.30084         3.92726         2.61935         4.18451 
        1.30697         3.90611         2.59043         4.14148 
        1.31312         3.86696         2.56191         4.10696 
        1.31925         3.82964         2.53391         4.08076 
        1.32537         3.80141         2.50635         4.04584 
        1.33151         3.76024         2.47911         4.01015 
        1.33765         3.72922         2.45229         3.97226 
        1.34378         3.70997         2.42593         3.94588 
        1.34992         3.67042         2.39993         3.91047 
        1.35606         3.64121         2.37426         3.86799 
         1.3622         3.60797           2.349         3.83969 
        1.36833         3.56933         2.32418         3.82354 
        1.37445         3.53361         2.29973         3.78803 
        1.38059           3.505         2.27556         3.75327 
        1.38675         3.47662         2.25168         3.71856 
        1.39288         3.45713         2.22823         3.69837 
        1.39901         3.41258         2.20513         3.66918 
        1.40515         3.38997         2.18231         3.63673 
         1.4113         3.36433         2.15982         3.61013 
        1.41742         3.33239         2.13774         3.58446 
        1.42355         3.30347         2.11592         3.54599 
         1.4297         3.28235         2.09434         3.52972 
        1.43585         3.25626         2.07307         3.50796 
        1.44198         3.22418         2.05218         3.46881 
        1.44809         3.20564         2.03162         3.45095 
        1.45423         3.17557         2.01126         3.41815 
        1.46036         3.15394         1.99122          3.3934 
        1.46649         3.11839         1.97145         3.37319 
        1.47263         3.10632         1.95193         3.34711 
        1.47877         3.08043         1.93269         3.31764 
        1.48491         3.05174         1.91367         3.29713 
        1.49104         3.02767         1.89495         3.26824 
        1.49718         3.00799         1.87647         3.24658 
        1.50333         2.98036         1.85821         3.22582 
        1.50947         2.95161         1.84022         3.20072 
         1.5156         2.93588          1.8225         3.17909 
        1.52172         2.91375         1.80502          3.1602 
        1.52787         2.89167         1.78773         3.12731 
          1.534         2.86848         1.77069         3.10625 
        1.54013         2.84689         1.75389         3.08663 
        1.54627           2.824         1.73727         3.06385 
        1.55241         2.79797         1.72087         3.04234 
        1.55855         2.78348         1.70471         3.01583 
        1.56467         2.76349          1.6888         3.00168 
         1.5708         2.74001         1.67305         2.98108 
        1.57695         2.71263         1.65747         2.95642 
        1.58308         2.69135         1.64213          2.9414 
        1.58922         2.68282         1.62697         2.92247 
        1.59535         2.65688         1.61202         2.90248 
         1.6015         2.63374         1.59722          2.8802 
        1.60764         2.62197         1.58263         2.86208 
        1.61376         2.59703         1.56825         2.84759 
        1.61989         2.57465         1.55404         2.82579 
        1.62604         2.55687         1.53998         2.80557 
        1.63218         2.54528          1.5261         2.78924 
        1.63831         2.53087         1.51242         2.77146 
        1.64444         2.50727         1.49891         2.74982 
        1.65059         2.49443         1.48552         2.73286 
        1.65673         2.46931         1.47232         2.71547 
        1.66285         2.45273         1.45931         2.69672 
        1.66898         2.43575         1.44646         2.67865 
        1.67512         2.41614         1.43374         2.66244 
        1.68127         2.39926         1.42116         2.64969 
         1.6874         2.39043         1.40876         2.63539 
        1.69353         2.36288         1.39651         2.61401 
        1.69967         2.35013         1.38438         2.59372 
        1.70581         2.33824          1.3724         2.58109 
        1.71193         2.31337         1.36061         2.56981 
        1.71806          2.3021         1.34893         2.54866 
        1.72421         2.28868         1.33736         2.53085 
        1.73035         2.26913         1.32595         2.51654 
        1.73649         2.25665         1.31467         2.50168 
        1.74262          2.2418         1.30353         2.48604 
        1.74876         2.22687         1.29251         2.47378 
        1.75489         2.21039         1.28164         2.45844 
        1.76101         2.19312          1.2709         2.43778 
        1.76715         2.18549         1.26027         2.42261 
        1.77329         2.16566         1.24975         2.41065 
        1.77943         2.15192         1.23935         2.39718 
        1.78557         2.13857         1.22907         2.38169 
        1.79171         2.12675         1.21892         2.36708 
        1.79785         2.11295         1.20887         2.35345 
        1.80399         2.09707         1.19894         2.33966 
        1.81012         2.08328         1.18914         2.32644 
        1.81625         2.06621         1.17945         2.31244 
        1.82239         2.05759         1.16985         2.29956 
        1.82853         2.04273         1.16037         2.29086 
        1.83466         2.02408           1.151         2.27963 
        1.84078         2.01347         1.14174         2.26381 
        1.84692         2.00116         1.13257         2.24732 
        1.85306         1.98956         1.12349         2.23252 
         1.8592         1.97673         1.11452         2.22103 
        1.86533         1.96459         1.10566         2.21145 
        1.87147         1.95386         1.09688         2.19994 
