# k  (h/Mpc)    P(k)  (Mpc/h)^3    P_linear(k)  (Mpc/h)^3     P_NL(k)  ShotnoiseSubtracted = false
     0.00783031         6026.38         6059.31         6036.73 
       0.013688         7449.93         7586.62         7549.18 
       0.019231         7711.41         7785.44         7736.97 
      0.0249154         7297.97         7285.31         7243.29 
      0.0312784         6331.53         6362.86         6330.16 
      0.0375637          5371.8          5423.3         5396.27 
      0.0433917         4689.87         4693.14         4668.05 
      0.0492413            4120         4144.79         4122.93 
      0.0555754         3741.04         3737.03         3716.95 
      0.0619321         3387.62         3458.87         3438.71 
       0.067871         3221.59         3252.09         3231.63 
      0.0738098         3029.51         3046.01         3013.05 
      0.0800417         2794.44         2801.43            2771 
      0.0862327         2512.64         2528.65         2512.55 
      0.0921407         2252.09         2259.63         2248.54 
      0.0982031         2019.02         2001.24         2008.38 
       0.104506         1775.44         1774.93         1796.93 
       0.110769         1614.87         1603.99         1620.24 
       0.116806         1522.98         1487.99         1503.79 
       0.122832         1427.71         1408.76         1426.25 
       0.129052         1368.75         1348.76         1362.93 
       0.135211         1327.21         1294.33         1306.36 
       0.141259         1249.96         1233.54         1248.58 
       0.147318         1163.69         1160.15         1183.01 
       0.153489         1088.77         1074.47         1090.34 
       0.159709         1019.45         984.284         1011.07 
       0.165845         920.625         900.323         943.883 
       0.171974          879.52         828.403          873.18 
       0.178125         828.992         771.606         826.615 
       0.184229         770.905         730.075         783.041 
        0.19034         752.061         699.978         749.808 
       0.196428         728.808         676.516         718.164 
       0.202534         687.067         654.468         695.991 
       0.208729         675.254         629.634         667.242 
       0.214876         649.215         600.671          647.68 
       0.220989         604.962         567.997         619.562 
       0.227147          586.35         533.279          587.87 
        0.23329         558.505         499.621         562.461 
       0.239377         540.267         469.659         535.378 
       0.245482          509.89         444.407         506.401 
       0.251667         487.548         423.965         489.683 
       0.257832         480.947         407.926         471.032 
       0.263955          455.93         394.775          455.06 
       0.270079         440.981         382.707         441.396 
        0.27624           423.4         370.262         426.603 
       0.282372         412.887         356.725         414.541 
        0.28843          408.88         342.147          400.86 
       0.294538         387.835         326.702         388.467 
       0.300721         372.543         311.146         376.295 
        0.30691         365.182         296.509         364.124 
       0.313033         348.177         283.571         349.769 
       0.319153          341.34         272.422         339.275 
       0.325316         332.041          262.86         330.603 
        0.33145         323.382         254.614         318.636 
       0.337538         312.532         247.147         309.977 
       0.343633         302.921         239.883         304.896 
       0.349808         294.802         232.394         298.267 
       0.355968         288.074         224.617             292 
       0.362074         280.286         216.699          283.97 
       0.368217         275.871         208.709         274.406 
       0.374374         269.008         200.965         267.627 
       0.380519         257.694         193.732         260.079 
       0.386598         253.182         187.194         254.377 
       0.392688         246.424         181.306         247.954 
        0.39888         240.912         175.884         241.518 
       0.405048         235.958         170.913         237.701 
       0.411186         233.172         166.214         232.015 
       0.417313         228.002         161.608         225.674 
       0.423458         222.184         157.004         221.486 
       0.429607         217.044         152.382         217.075 
       0.435692         212.996         147.824         212.409 
       0.441815          208.29         143.339         209.738 
       0.447964         202.141         139.012         204.771 
       0.454126         198.697         134.907         199.016 
       0.460267          196.52         131.087         196.769 
       0.466387         192.259         127.543         192.355 
        0.47254         189.922         124.193          188.95 
       0.478662         183.833         121.027          185.29 
       0.484765         181.447         117.986         180.709 
       0.490885          178.34          115.01         178.452 
       0.497035         176.315         112.058         176.008 
       0.503198         173.386         109.149         172.838 
       0.509342         168.754         106.312         170.295 
       0.515458         166.654         103.567         168.407 
       0.521598         162.631          100.91         164.322 
       0.527764         160.948         98.3563         161.027 
       0.533884         160.065         95.9482         158.814 
           0.54         155.869         93.6566         156.333 
       0.546137         152.337         91.4531         154.511 
       0.552299         150.623         89.3203         151.227 
       0.558452         147.874         87.2577          148.81 
       0.564573         147.083         85.2617         147.373 
       0.570708         143.205         83.3087         145.173 
       0.576825         141.495         81.4031         142.496 
       0.582926         139.954         79.5493         140.458 
       0.589034         137.682         77.7469         139.087 
       0.595184         136.219         75.9934         136.641 
       0.601379         133.165          74.293         135.461 
       0.607522         130.874         72.6676         132.771 
       0.613639         129.754         71.1045         131.416 
       0.619772         127.897         69.5882         129.274 
       0.625918         126.816         68.1154         128.057 
       0.632068         124.128          66.685         125.909 
       0.638161         122.457         65.3071         124.984 
         0.6443         121.835         63.9553         123.032 
       0.650464          119.36         62.6324         120.679 
       0.656582         118.778         61.3524          119.92 
       0.662703         117.232         60.1056         118.048 
       0.668861         114.782         58.8864         116.832 
       0.675024         114.727          57.702         115.157 
       0.681124          112.82         56.5658         113.881 
       0.687237         110.922         55.4615         112.437 
       0.693381         110.158          54.384         110.963 
       0.699536         108.756         53.3345         110.195 
       0.705665         107.246         52.3173          109.31 
       0.711789         105.837         51.3265         107.189 
       0.717957         104.567         50.3529         106.313 
        0.72409         103.758         49.4086         105.731 
       0.730186         103.175         48.4935         104.461 
       0.736317         101.364         47.5964         102.926 
       0.742472         100.048         46.7189         101.939 
       0.748622         98.4909         45.8651         100.723 
        0.75476         98.3175         45.0355         99.5713 
       0.760888         97.5554         44.2286         98.3187 
       0.767043         95.6816         43.4391         97.8948 
       0.773185         94.5262         42.6709         97.1762 
       0.779291         93.4922         41.9261         96.0504 
       0.785407         92.3962          41.198          94.717 
       0.791564         92.1137         40.4825         93.9161 
       0.797719         90.9126         39.7842          93.307 
       0.803834         90.2228         39.1065         91.9837 
       0.809972         89.5624         38.4422         91.2095 
       0.816124         88.4032         37.7917         90.6446 
       0.822261         87.2589         37.1581         89.5293 
       0.828378         87.0493         36.5409         88.3302 
       0.834502         85.7434         35.9374         88.0089 
       0.840667         85.2046         35.3438         87.4345 
       0.846816         84.3957         34.7654         86.4737 
       0.852925         83.4254         34.2039         85.6447 
       0.859047         83.0248         33.6537         84.7307 
       0.865192         81.8683          33.114         84.2244 
       0.871341         81.0151         32.5859         83.3186 
       0.877463         80.4938         32.0718         82.7479 
       0.883569         80.2346         31.5703         82.1967 
       0.889708         79.4445         31.0769         81.4019 
       0.895864         78.7283         30.5929         80.8064 
       0.902008         77.9139         30.1202         79.9834 
       0.908149         76.9749         29.6579         79.4017 
       0.914301         76.7082         29.2045         78.8978 
       0.920448         76.4311         28.7611         78.2001 
       0.926574         74.8537         28.3285         77.3201 
       0.932687         74.5893         27.9057         76.8607 
       0.938823         73.9761         27.4901         76.1306 
       0.944975         73.0903         27.0821         75.5374 
       0.951105         72.5139         26.6839         75.1359 
       0.957225          72.357         26.2944         74.5805 
       0.963368         71.5727         25.9114         73.7084 
       0.969511         70.9934          25.536         73.2361 
       0.975621         70.4154         25.1702         73.2008 
       0.981748          69.731         24.8106         72.3907 
       0.987916         69.2009         24.4559         72.0242 
        0.99406         68.8963         24.1095         71.3534 
        1.00019         68.0561         23.7705         70.7707 
        1.00632         67.5602         23.4384         70.3053 
        1.01246         67.1116         23.1121         69.7028 
        1.01859         66.8234         22.7927         69.3333 
        1.02471         66.0743         22.4797         68.9723 
        1.03085         65.5728         22.1716         68.3538 
        1.03698         65.1544         21.8699         67.8205 
        1.04314          64.655         21.5726         67.3025 
        1.04929         64.1222         21.2815         67.0285 
        1.05541         63.7619          20.997         66.7593 
        1.06154         63.3649          20.717         66.2006 
        1.06769          62.626         20.4417          65.781 
        1.07382         62.1766         20.1724         65.3027 
        1.07993         61.9416         19.9085         64.8421 
        1.08607          61.447         19.6483         64.4305 
        1.09222         61.1618         19.3926         63.9005 
        1.09836         60.5875         19.1417         63.5367 
        1.10449         60.2613         18.8955         63.1159 
        1.11063          59.711         18.6534         62.5895 
        1.11677          59.488         18.4157           62.19 
         1.1229         58.9073         18.1825         62.0009 
        1.12903         58.7127         17.9532         61.5559 
        1.13518         58.4813         17.7277         61.1343 
        1.14131         57.8438         17.5062         60.8152 
        1.14745          57.402         17.2886         60.4351 
        1.15359         56.7701         17.0747         60.1585 
        1.15973         56.7517         16.8643         59.7518 
        1.16584         56.3054         16.6584         59.2663 
        1.17197         55.7235         16.4557          58.993 
        1.17811         55.4732         16.2557         58.5419 
        1.18424         54.7938         16.0597         58.2081 
        1.19038         54.7201         15.8663         58.0188 
        1.19652         54.4382         15.6763         57.5228 
        1.20267          54.008         15.4893         57.3277 
        1.20881         53.6444         15.3054          56.921 
        1.21495         53.4116         15.1249          56.667 
        1.22108         53.2162         14.9473         56.3229 
         1.2272         52.6507         14.7729         56.0507 
        1.23334         52.3877          14.601         55.6808 
        1.23949         52.0643         14.4314         55.2743 
        1.24562          51.673          14.265         55.0303 
        1.25174         51.3351         14.1014         54.8017 
        1.25789         51.3119           13.94         54.4021 
        1.26402         50.8545         13.7813          54.086 
        1.27014          50.629         13.6255         53.8963 
        1.27628         50.0929         13.4717         53.5743 
        1.28244         50.0147           13.32         53.2617 
        1.28858         49.6208         13.1708         52.9932 
        1.29471         49.2929         13.0243         52.7846 
        1.30084         48.8683         12.8801         52.2944 
        1.30697         48.8813         12.7379         52.0052 
        1.31312          48.412         12.5976         51.9111 
        1.31925         48.0455         12.4599         51.5625 
        1.32537         47.8146         12.3244         51.2898 
        1.33151         47.5213         12.1905         51.0465 
        1.33765         47.2935         12.0586          50.787 
        1.34378          47.101         11.9289          50.503 
        1.34992         46.7359         11.8011         50.2827 
        1.35606         46.4153         11.6749         50.1015 
         1.3622         46.1799         11.5507         49.8147 
        1.36833         45.9732         11.4286         49.5402 
        1.37445         45.5323         11.3084         49.2856 
        1.38059         45.4419         11.1896         49.2035 
        1.38675         44.9482         11.0721         48.8323 
        1.39288         44.9488         10.9568         48.6701 
        1.39901         44.5614         10.8433         48.4063 
        1.40515          44.373          10.731         48.1404 
         1.4113         44.3125         10.6204         47.9129 
        1.41742         43.9508         10.5118         47.6802 
        1.42355         43.6149         10.4046         47.4125 
         1.4297          43.422         10.2984         47.1425 
        1.43585         43.1173         10.1939         47.0105 
        1.44198         42.8478         10.0911         46.8215 
        1.44809         42.5859         9.99003         46.4547 
        1.45423         42.4474         9.88994         46.2375 
        1.46036         42.2299          9.7914          46.072 
        1.46649         42.0105         9.69417         45.9018 
        1.47263          41.742         9.59819         45.7079 
        1.47877         41.5718         9.50356         45.4627 
        1.48491         41.3733         9.41005         45.2285 
        1.49104         41.0116           9.318         44.9973 
        1.49718         40.8963         9.22712         44.7986 
        1.50333         40.7435         9.13731         44.6306 
        1.50947          40.412         9.04888         44.4478 
         1.5156         40.2573         8.96175         44.2477 
        1.52172         39.9514         8.87577         44.0444 
        1.52787         39.7935         8.79076         43.8376 
          1.534         39.5615         8.70696         43.6566 
        1.54013         39.5064         8.62434         43.4445 
        1.54627         39.1065         8.54266         43.2248 
        1.55241         38.9041         8.46201         43.0375 
        1.55855         38.8458         8.38253         42.8568 
        1.56467         38.5714         8.30429         42.6762 
         1.5708         38.4241         8.22683         42.5288 
        1.57695         38.2057         8.15024         42.3446 
        1.58308          37.903         8.07481         42.1179 
        1.58922         37.7317         8.00028         41.9384 
        1.59535         37.6052         7.92673         41.7785 
         1.6015         37.5251         7.85399         41.5662 
        1.60764         37.2326         7.78221         41.3771 
        1.61376         36.9969         7.71152         41.2423 
        1.61989         36.7756         7.64166         41.0388 
        1.62604         36.6147          7.5725         40.8762 
        1.63218         36.4112         7.50425         40.7428 
        1.63831         36.3052         7.43699         40.5784 
        1.64444         36.0858         7.37054         40.3875 
        1.65059         35.8891         7.30473         40.2151 
        1.65673         35.7036         7.23981         40.0339 
        1.66285         35.6287         7.17585         39.8802 
        1.66898         35.2986         7.11265         39.7713 
        1.67512         35.2438         7.05009         39.6132 
        1.68127         35.0265         6.98822         39.3974 
         1.6874         34.8367         6.92724         39.1815 
        1.69353         34.7552         6.86702         39.0274 
        1.69967         34.5992         6.80737         38.9104 
        1.70581         34.2897         6.74846         38.8246 
        1.71193         34.1341         6.69048         38.6797 
        1.71806         34.0281         6.63305         38.3905 
        1.72421         33.8433         6.57618         38.2195 
        1.73035         33.6579         6.52005         38.1649 
        1.73649         33.4225         6.46458         38.0638 
        1.74262         33.2154          6.4098         37.7807 
        1.74876         33.1892         6.35563         37.6039 
        1.75489         32.9677         6.30219         37.5211 
        1.76101         32.8522         6.24938         37.4051 
        1.76715         32.7438         6.19711         37.2518 
        1.77329          32.433         6.14537         37.0942 
        1.77943         32.4223          6.0942         36.9468 
        1.78557         32.2634         6.04369         36.8033 
        1.79171         32.1198         5.99374         36.6531 
        1.79785         31.9274         5.94435         36.5431 
        1.80399         31.7803         5.89553         36.4657 
        1.81012         31.6794         5.84732         36.2156 
        1.81625          31.386         5.79967         35.9981 
        1.82239         31.2733         5.75248         35.9255 
        1.82853         31.1609         5.70584         35.8202 
        1.83466         30.9855         5.65976         35.6811 
        1.84078         30.8449         5.61424         35.5477 
        1.84692         30.7007         5.56915         35.4424 
        1.85306         30.4965          5.5245         35.3135 
         1.8592         30.4601         5.48041         35.1645 
        1.86533         30.2764         5.43682         35.0362 
        1.87147         30.1202         5.39366         34.9101 
        1.87761         29.9345         5.35095         34.7638 
