# k  (h/Mpc)    P(k)  (Mpc/h)^3    P_linear(k)  (Mpc/h)^3     P_NL(k)  ShotnoiseSubtracted = false
     0.00783031         1420.94         1430.49         1425.18 
       0.013688         1771.46         1791.78         1784.25 
       0.019231         1829.77         1839.04         1829.91 
      0.0249154         1722.03         1721.06         1714.77 
      0.0312784         1501.23         1503.23          1500.6 
      0.0375637         1277.44         1281.31         1279.83 
      0.0433917            1111         1108.82         1108.33 
      0.0492413         978.386         979.284         979.179 
      0.0555754         885.993         882.955         882.541 
      0.0619321         810.543          817.24         816.621 
       0.067871         766.878         768.388         767.259 
      0.0738098         719.163           719.7         717.617 
      0.0800417         662.832         661.915         659.988 
      0.0862327         596.841         597.466         596.509 
      0.0921407         533.417         533.904         533.515 
      0.0982031         475.095         472.853         473.728 
       0.104506         418.809         419.382         421.258 
       0.110769         379.294         378.992         380.502 
       0.116806         354.668         351.584          352.93 
       0.122832         333.664         332.864         334.239 
       0.129052         320.402         318.687         319.722 
       0.135211         308.547         305.827         306.682 
       0.141259         292.455         291.464         292.446 
       0.147318         273.458         274.122         275.685 
       0.153489         254.462         253.879         255.021 
       0.159709         234.713          232.57         234.451 
       0.165845         212.803         212.731         215.762 
       0.171974         199.364         195.738         198.775 
       0.178125         185.947         182.318         185.994 
       0.184229         174.795         172.505         176.102 
        0.19034         169.049         165.393         168.718 
       0.196428         163.129          159.85         162.502 
       0.202534         155.667          154.64         157.256 
       0.208729         151.337         148.772          151.24 
       0.214876          145.35         141.929         145.066 
       0.220989         135.647         134.209         137.629 
       0.227147         129.662         126.005          129.55 
        0.23329         122.216         118.053         122.199 
       0.239377         115.817         110.973         115.401 
       0.245482         109.391         105.006           109.1 
       0.251667         103.977         100.176          104.54 
       0.257832         101.393         96.3866         100.561 
       0.263955         97.0235         93.2792         97.1888 
       0.270079         93.9367         90.4277         94.1662 
        0.27624         90.3271         87.4872         91.0103 
       0.282372         87.3098         84.2886         88.0086 
        0.28843         85.1485         80.8441         84.6586 
       0.294538         81.1576         77.1947         81.1912 
       0.300721         77.0076         73.5189         77.7958 
        0.30691         74.5124         70.0606         74.4453 
       0.313033         71.1474         67.0034         71.2885 
       0.319153         69.3766         64.3691         68.7793 
       0.325316         66.1523         62.1099         66.5829 
        0.33145          64.041         60.1614         64.3762 
       0.337538         62.3044          58.397         62.4581 
       0.343633         60.6319         56.6807         60.7401 
       0.349808         58.6658         54.9111         59.0708 
       0.355968         56.7183         53.0735         57.5332 
       0.362074         55.3629         51.2027         55.5451 
       0.368217         53.4845         49.3146         53.4337 
       0.374374         52.0606          47.485         51.8039 
       0.380519           49.74         45.7758         50.0065 
       0.386598         48.1389         44.2312         48.5137 
       0.392688         46.6065         42.8399         47.1321 
        0.39888         45.6271         41.5586         45.7505 
       0.405048         44.5028         40.3841         44.4521 
       0.411186         43.2639         39.2737         43.5607 
       0.417313         42.0568         38.1855         42.2793 
       0.423458         40.8067         37.0977         41.2526 
       0.429607         40.0304         36.0056         40.0803 
       0.435692         39.1715         34.9287         39.0833 
       0.441815         37.6709         33.8687         38.1838 
       0.447964         36.4138         32.8465         37.0369 
       0.454126         35.7275         31.8766         35.9982 
       0.460267          35.212         30.9739          35.193 
       0.466387         34.1547         30.1364         34.2194 
        0.47254         33.5587          29.345          33.467 
       0.478662         32.5196         28.5967         32.6545 
       0.484765         31.7912         27.8784         31.8718 
       0.490885          30.878         27.1751         31.3268 
       0.497035         30.2495         26.4777         30.6662 
       0.503198         29.5844         25.7902         29.7937 
       0.509342         28.7275         25.1198         29.1879 
       0.515458         28.2875         24.4714         28.6716 
       0.521598         27.5977         23.8434         27.8189 
       0.527764         27.1666         23.2401         27.1285 
       0.533884         26.4111         22.6711         26.5615 
           0.54         25.8795         22.1297         25.9947 
       0.546137          25.091          21.609         25.5398 
       0.552299         24.6468          21.105         24.8791 
       0.558452         24.1002         20.6177         24.3781 
       0.564573         23.7749         20.1461          24.034 
       0.570708          23.175         19.6846         23.5323 
       0.576825         22.7994         19.2343         23.0451 
       0.582926         22.3311         18.7963         22.6244 
       0.589034         21.8786         18.3704         22.2453 
       0.595184         21.5631         17.9561         21.6562 
       0.601379          20.962         17.5543         21.3778 
       0.607522         20.5958         17.1703         20.9021 
       0.613639         20.1865         16.8009         20.5008 
       0.619772          19.847         16.4426         20.1784 
       0.625918         19.4148         16.0947         19.7996 
       0.632068          19.208         15.7567         19.3948 
       0.638161         18.7846         15.4311         19.0492 
         0.6443         18.4463         15.1117         18.6812 
       0.650464         17.9841         14.7991         18.4354 
       0.656582         17.8346         14.4966         18.0998 
       0.662703         17.5756         14.2021         17.7545 
       0.668861         17.0944          13.914         17.5154 
       0.675024         16.8279         13.6341         17.1408 
       0.681124         16.7443         13.3656         16.8563 
       0.687237         16.3735         13.1047         16.5282 
       0.693381         15.9739         12.8501          16.251 
       0.699536         15.8711         12.6021         16.0124 
       0.705665          15.553         12.3618           15.83 
       0.711789         15.2449         12.1277         15.5169 
       0.717957         14.9144         11.8976         15.2527 
        0.72409         14.7786         11.6745         15.0468 
       0.730186         14.6648         11.4583         14.7752 
       0.736317         14.3257         11.2463         14.5382 
       0.742472         14.1399          11.039         14.3969 
       0.748622         13.8998         10.8372         14.1351 
        0.75476         13.5353         10.6412         13.8991 
       0.760888         13.4502         10.4506          13.715 
       0.767043         13.1827          10.264         13.5365 
       0.773185          13.015         10.0825         13.3365 
       0.779291          12.912          9.9065          13.156 
       0.785407         12.6578         9.73447         12.9419 
       0.791564         12.5119         9.56541         12.7665 
       0.797719         12.2436          9.4004         12.5542 
       0.803834         12.1631         9.24029         12.3688 
       0.809972         11.9184         9.08331         12.2587 
       0.816124         11.7681         8.92962          12.042 
       0.822261         11.6171          8.7799         11.8695 
       0.828378         11.4566         8.63408         11.7139 
       0.834502          11.314         8.49147         11.5701 
       0.840667         11.1907         8.35121         11.3954 
       0.846816         10.9442         8.21456         11.2627 
       0.852925         10.8574         8.08187         11.1516 
       0.859047         10.7057         7.95187         10.9831 
       0.865192         10.5461         7.82435         10.8315 
       0.871341         10.3924         7.69957         10.7159 
       0.877463          10.262          7.5781         10.5544 
       0.883569         10.1687         7.45958         10.4325 
       0.889708         9.99499         7.34301         10.2994 
       0.895864          9.8653         7.22864         10.1539 
       0.902008         9.72729         7.11696         10.0492 
       0.908149         9.58781         7.00772         9.91648 
       0.914301         9.51472         6.90059         9.82841 
       0.920448         9.37048         6.79582         9.66137 
       0.926574         9.30311          6.6936         9.56385 
       0.932687         9.14506         6.59371         9.39321 
       0.938823         9.00794         6.49551         9.32667 
       0.944975         8.93994          6.3991         9.21033 
       0.951105         8.79956           6.305         9.07412 
       0.957225         8.73938         6.21297         9.01851 
       0.963368         8.60879         6.12247         8.88927 
       0.969511         8.50591         6.03378         8.79999 
       0.975621         8.40281         5.94734         8.67134 
       0.981748          8.2713         5.86239          8.5814 
       0.987916         8.20085         5.77856         8.49281 
        0.99406          8.1244         5.69671         8.40289 
        1.00019         8.03968         5.61661         8.32647 
        1.00632         7.95557         5.53814          8.2225 
        1.01246         7.85164         5.46106         8.15781 
        1.01859          7.7509         5.38558         8.04116 
        1.02471         7.63927         5.31162         7.92493 
        1.03085         7.60448         5.23881         7.85585 
        1.03698         7.51442         5.16753         7.78713 
        1.04314         7.42263         5.09728         7.69271 
        1.04929         7.30839          5.0285         7.61925 
        1.05541         7.25376         4.96128         7.54942 
        1.06154         7.18186         4.89512         7.46468 
        1.06769         7.13567         4.83008         7.39477 
        1.07382         7.00627         4.76644         7.31791 
        1.07993         6.93403         4.70409         7.23798 
        1.08607         6.89066         4.64261         7.15953 
        1.09222         6.78994         4.58218         7.08525 
        1.09836          6.7721         4.52289         7.00112 
        1.10449         6.63152         4.46473         6.93865 
        1.11063         6.60708         4.40753         6.87313 
        1.11677         6.54071         4.35136         6.80764 
         1.1229          6.4761         4.29626         6.74873 
        1.12903         6.41893         4.24208         6.69839 
        1.13518         6.31842         4.18879         6.62745 
        1.14131         6.25982         4.13645         6.54633 
        1.14745         6.17733         4.08504         6.47205 
        1.15359         6.12439         4.03449         6.42675 
        1.15973         6.06226         3.98478         6.36279 
        1.16584         6.01236         3.93613         6.32093 
        1.17197         5.94579         3.88823         6.25196 
        1.17811         5.88492         3.84099         6.18439 
        1.18424         5.83321         3.79467         6.13045 
        1.19038          5.7863         3.74898          6.0737 
        1.19652          5.7377         3.70407         6.02771 
        1.20267         5.68244         3.65989         5.95586 
        1.20881         5.61432         3.61645         5.91915 
        1.21495          5.5673         3.57378         5.86552 
        1.22108         5.51723         3.53182         5.81445 
         1.2272          5.4541         3.49062         5.74672 
        1.23334         5.43839            3.45          5.7075 
        1.23949         5.36283         3.40992         5.66823 
        1.24562         5.31939          3.3706         5.61152 
        1.25174         5.28359         3.33196         5.55677 
        1.25789         5.19783          3.2938         5.50759 
        1.26402         5.17348         3.25632         5.45207 
        1.27014         5.13413         3.21951         5.41738 
        1.27628         5.06872         3.18317         5.37628 
        1.28244         5.04431         3.14732         5.32863 
        1.28858         5.00823         3.11207         5.28104 
        1.29471          4.9334         3.07744         5.23882 
        1.30084         4.88968         3.04337         5.20526 
        1.30697          4.8687         3.00977         5.15124 
        1.31312         4.81803         2.97663         5.11198 
        1.31925         4.77392          2.9441         5.08089 
        1.32537         4.74015         2.91208         5.03932 
        1.33151         4.69166         2.88043          4.9959 
        1.33765         4.65215         2.84927         4.94867 
        1.34378         4.63497         2.81863         4.91753 
        1.34992         4.58303         2.78843         4.87601 
        1.35606         4.54809          2.7586         4.82557 
         1.3622         4.50618         2.72926         4.79062 
        1.36833         4.46409         2.70042         4.77263 
        1.37445         4.42073         2.67201         4.72875 
        1.38059         4.38562         2.64393         4.68544 
        1.38675         4.35101         2.61618         4.64848 
        1.39288         4.32358         2.58894         4.62188 
        1.39901         4.27266          2.5621         4.58714 
        1.40515         4.24625         2.53558         4.54903 
         1.4113         4.21215         2.50945         4.51527 
        1.41742         4.17927         2.48379         4.48305 
        1.42355         4.14203         2.45844         4.44164 
         1.4297         4.11584         2.43337         4.41744 
        1.43585         4.08646         2.40866          4.3916 
        1.44198           4.046         2.38439         4.34642 
        1.44809         4.02366          2.3605         4.32441 
        1.45423         3.98572         2.33685          4.2873 
        1.46036         3.96176         2.31356         4.25723 
        1.46649         3.92241         2.29059         4.23164 
        1.47263          3.9042         2.26791         4.20038 
        1.47877         3.87133         2.24555         4.16546 
        1.48491         3.84254         2.22346         4.14048 
        1.49104         3.80892         2.20171         4.10673 
        1.49718         3.78795         2.18023         4.07982 
        1.50333         3.75403         2.15901         4.05498 
        1.50947         3.71629         2.13812         4.02571 
         1.5156         3.70178         2.11753          3.9994 
        1.52172         3.67375         2.09722         3.97526 
        1.52787         3.64719         2.07713         3.93545 
          1.534          3.6174         2.05733         3.91058 
        1.54013         3.59492         2.03781         3.88786 
        1.54627          3.5657          2.0185         3.86158 
        1.55241         3.53356         1.99945         3.83529 
        1.55855         3.51805         1.98067         3.80115 
        1.56467         3.49269         1.96218         3.78548 
         1.5708         3.46426         1.94388         3.76344 
        1.57695         3.42986         1.92578         3.73125 
        1.58308         3.40423         1.90796         3.71145 
        1.58922          3.3939         1.89035         3.69141 
        1.59535         3.36558         1.87297         3.66689 
         1.6015         3.33494         1.85578         3.63891 
        1.60764         3.32097         1.83882         3.61686 
        1.61376         3.29332         1.82212         3.59957 
        1.61989         3.26195         1.80561         3.57419 
        1.62604          3.2437         1.78927         3.54843 
        1.63218         3.22757         1.77314         3.52881 
        1.63831         3.21118         1.75725         3.50888 
        1.64444         3.18139         1.74155         3.48146 
        1.65059         3.16542           1.726         3.46142 
        1.65673         3.13855         1.71066         3.44008 
        1.66285         3.11814         1.69555         3.41764 
        1.66898         3.09536         1.68062         3.39751 
        1.67512         3.07305         1.66583           3.377 
        1.68127         3.05191         1.65121         3.36049 
         1.6874         3.03899          1.6368         3.34344 
        1.69353         3.00668         1.62258         3.31834 
        1.69967         2.99294         1.60848          3.2933 
        1.70581         2.97427         1.59456         3.27736 
        1.71193         2.95029         1.58086         3.26412 
        1.71806         2.93448         1.56729         3.23985 
        1.72421         2.91611         1.55386         3.21787 
        1.73035         2.89448         1.54059         3.19941 
        1.73649         2.87619         1.52749         3.18131 
        1.74262         2.85953         1.51454         3.16352 
        1.74876         2.84399         1.50174         3.14848 
        1.75489         2.82186         1.48912         3.12908 
        1.76101         2.80126         1.47664         3.10399 
        1.76715         2.79322         1.46429          3.0859 
        1.77329         2.76969         1.45206         3.07211 
        1.77943         2.74953         1.43997         3.05618 
        1.78557         2.73521         1.42804         3.03679 
        1.79171         2.72024         1.41623         3.01803 
        1.79785         2.70449         1.40456         3.00116 
        1.80399         2.68183         1.39303         2.98543 
        1.81012         2.66837         1.38164         2.97053 
        1.81625         2.64828         1.37038         2.95369 
        1.82239         2.63712         1.35923         2.93739 
        1.82853         2.61829         1.34821          2.9263 
        1.83466         2.59471         1.33732         2.91279 
        1.84078         2.58133         1.32656         2.89364 
        1.84692         2.56675         1.31591         2.87256 
        1.85306         2.55091         1.30536         2.85448 
         1.8592         2.53909         1.29494          2.8414 
        1.86533         2.52263         1.28464         2.83007 
        1.87147         2.51004         1.27444         2.81625 
        1.87761         2.49681         1.26435           2.801 
