# k  (h/Mpc)    Pcb(k)  (Mpc/h)^3    Pcb_linear(k) (Mpc/h)^3    Pcb_NL(k) (Mpc/h)^3   ShotnoiseSubtracted = false
     0.00783031         9563.47          9610.8         9573.36 
       0.013688         11772.2         12031.5         11965.1 
       0.019231           12196         12346.1         12257.4 
      0.0249154         11571.2         11552.6         11466.9 
      0.0312784         10011.9         10089.5         10011.2 
      0.0375637         8482.07         8599.56         8531.61 
      0.0433917         7416.76         7441.69         7374.09 
      0.0492413         6508.89         6572.16         6511.23 
      0.0555754         5913.34         5925.57         5870.96 
      0.0619321         5330.15         5484.47         5430.44 
       0.067871         5076.79         5156.58         5104.04 
      0.0738098         4782.39          4829.8         4747.45 
      0.0800417         4409.67         4441.98         4365.87 
      0.0862327         3964.13         4009.45         3967.43 
      0.0921407         3561.14         3582.89         3551.89 
      0.0982031         3203.61         3173.18         3184.88 
       0.104506          2817.7         2814.34         2861.11 
       0.110769         2569.49         2543.29         2577.64 
       0.116806         2430.43         2359.36            2393 
       0.122832         2278.74         2233.73         2271.13 
       0.129052         2177.94         2138.59         2169.05 
       0.135211         2119.89         2052.29         2076.95 
       0.141259         1989.54          1955.9         1988.65 
       0.147318         1851.84         1839.53         1888.45 
       0.153489         1737.02         1703.68         1737.97 
       0.159709         1639.77         1560.68         1620.17 
       0.165845         1482.35         1427.55         1524.21 
       0.171974         1425.07         1313.51          1415.1 
       0.178125         1353.19         1223.45         1348.13 
       0.184229         1251.51         1157.61         1276.13 
        0.19034         1226.41         1109.88         1222.34 
       0.196428         1191.12         1072.68          1169.5 
       0.202534         1120.39         1037.72         1134.09 
       0.208729         1103.61         998.346         1084.34 
       0.214876            1059         952.423         1057.72 
       0.220989         992.624         900.614         1016.91 
       0.227147         964.116         845.564         970.695 
        0.23329         921.429         792.198         934.305 
       0.239377         901.598         744.688         891.772 
       0.245482         852.471         704.649         845.416 
       0.251667         818.109         672.239         820.382 
       0.257832         807.226         646.806         789.461 
       0.263955         766.399         625.954         763.384 
       0.270079         742.503         606.818         741.427 
        0.27624         712.407         587.082         717.905 
       0.282372         698.628         565.621         699.472 
        0.28843          691.83         542.506         678.977 
       0.294538         655.797         518.017         660.194 
       0.300721         635.968         493.351         640.773 
        0.30691         623.722         470.143         624.503 
       0.313033         595.204         449.627         601.206 
       0.319153         585.119          431.95         583.555 
       0.325316         574.669         416.792         570.174 
        0.33145          561.53         403.714         549.134 
       0.337538         541.547         391.874         536.348 
       0.343633         525.997         380.358         530.088 
       0.349808         513.528         368.481         519.761 
       0.355968         503.488         356.151         509.852 
       0.362074         486.873         343.597         497.613 
       0.368217         483.557         330.926         482.186 
       0.374374         473.766          318.65         471.413 
       0.380519         454.699         307.179         459.479 
       0.386598         449.396         296.814         452.228 
       0.392688         438.583         287.478         439.537 
        0.39888         427.189          278.88         431.022 
       0.405048         419.147         270.998         425.206 
       0.411186         417.138         263.546         413.965 
       0.417313         410.911         256.245         404.831 
       0.423458         399.425         248.945          398.49 
       0.429607         388.694         241.615         390.789 
       0.435692         382.269         234.389         382.659 
       0.441815         375.855         227.277         379.102 
       0.447964         366.941         220.417          371.69 
       0.454126         362.228         213.908         361.521 
       0.460267         356.565         207.851         358.893 
       0.466387         350.046         202.231         351.631 
        0.47254         345.135          196.92         346.223 
       0.478662         336.746         191.899         339.519 
       0.484765         332.807         187.079         332.271 
       0.490885         328.952         182.358          328.07 
       0.497035         322.742          177.68         324.113 
       0.503198         321.345         173.065          319.22 
       0.509342         313.184         168.567         315.234 
       0.515458         308.516         164.215         312.137 
       0.521598         302.712         160.001         305.875 
       0.527764         298.739         155.953         301.612 
       0.533884         297.343         152.134         297.653 
           0.54         292.073         148.501         293.002 
       0.546137         285.628         145.007         289.665 
       0.552299         284.446         141.626         284.816 
       0.558452         279.514         138.355         281.419 
       0.564573         277.202         135.191         278.992 
       0.570708         272.246         132.093         275.829 
       0.576825         267.804         129.072         270.402 
       0.582926         265.506         126.133         267.438 
       0.589034          261.47         123.275         264.539 
       0.595184         259.527         120.495         259.887 
       0.601379         255.107         117.798         258.327 
       0.607522         250.014         115.221         254.777 
       0.613639         248.612         112.743         252.449 
       0.619772         247.019         110.338          249.91 
       0.625918         243.536         108.003         246.709 
       0.632068         239.477         105.735          242.95 
       0.638161         237.559          103.55         241.765 
         0.6443         235.485         101.407         238.975 
       0.650464          231.38         99.3095         234.626 
       0.656582         229.448         97.2799         232.803 
       0.662703         227.655          95.303         230.955 
       0.668861         223.318         93.3698         228.412 
       0.675024         222.747         91.4919         225.761 
       0.681124         219.897         89.6902         223.271 
       0.687237         217.675         87.9393         220.864 
       0.693381         214.882         86.2308         218.487 
       0.699536         213.014         84.5668         216.609 
       0.705665         210.703          82.954         215.247 
       0.711789         208.444         81.3828         212.611 
       0.717957         206.163         79.8392         210.699 
        0.72409         203.845          78.342          209.43 
       0.730186         204.627          76.891         207.444 
       0.736317         201.064         75.4685         204.876 
       0.742472         198.478         74.0771         203.014 
       0.748622         195.679         72.7233         200.791 
        0.75476         196.313          71.408         199.603 
       0.760888         193.677         70.1286          196.93 
       0.767043          190.79         68.8767         195.787 
       0.773185          189.32         67.6587         194.544 
       0.779291         186.837         66.4776         192.378 
       0.785407         185.836         65.3232         190.423 
       0.791564          184.12         64.1887         189.207 
       0.797719          181.34         63.0814          188.13 
       0.803834         182.003          62.007          186.16 
       0.809972         180.005         60.9536         184.652 
       0.816124         177.222         59.9222          183.27 
       0.822261         175.791         58.9175         181.674 
       0.828378         175.575          57.939         179.657 
       0.834502         172.943         56.9821         178.585 
       0.840667         172.657         56.0408          177.47 
       0.846816         170.092         55.1238         175.945 
       0.852925         169.017         54.2334         174.573 
       0.859047         167.245         53.3611         173.291 
       0.865192         166.806         52.5053         171.948 
       0.871341         164.736          51.668         170.366 
       0.877463         163.323         50.8529          169.49 
       0.883569         163.109         50.0575          168.45 
       0.889708         161.432         49.2753         167.009 
       0.895864         159.938         48.5078         166.168 
       0.902008         158.277         47.7584          164.47 
       0.908149         156.666         47.0253         163.028 
       0.914301         156.147         46.3065         162.164 
       0.920448         155.741         45.6034         161.038 
       0.926574         153.324         44.9174         159.439 
       0.932687         152.925         44.2471         158.396 
       0.938823         151.742         43.5881         157.662 
       0.944975         150.488         42.9412         156.678 
       0.951105         149.059         42.3097          155.32 
       0.957225         148.442         41.6921         154.273 
       0.963368         147.132         41.0848         152.754 
       0.969511         145.545         40.4897          151.89 
       0.975621         144.338         39.9097         151.986 
       0.981748         143.457         39.3395         150.529 
       0.987916         142.703         38.7771         149.604 
        0.99406         141.788         38.2278         148.466 
        1.00019         140.725         37.6903         147.281 
        1.00632         139.771         37.1637           146.2 
        1.01246         138.685         36.6464         144.979 
        1.01859         137.729         36.1399         144.633 
        1.02471         136.713         35.6437         144.155 
        1.03085         135.697         35.1551         142.995 
        1.03698         134.611         34.6767          141.89 
        1.04314         134.131         34.2053         141.117 
        1.04929         133.377         33.7438          140.43 
        1.05541         132.397         33.2927         139.636 
        1.06154         131.238         32.8487          138.88 
        1.06769         130.444         32.4122         138.091 
        1.07382         129.765         31.9852         137.227 
        1.07993          128.73         31.5668          136.31 
        1.08607         127.889         31.1543          135.62 
        1.09222         127.028         30.7487         134.906 
        1.09836          126.14         30.3508         133.924 
        1.10449         125.181         29.9605         133.146 
        1.11063         124.365         29.5767         132.032 
        1.11677           123.7         29.1998         131.417 
         1.1229         122.661         28.8301         130.856 
        1.12903         122.035         28.4665         129.969 
        1.13518          121.08         28.1089         129.288 
        1.14131         120.448         27.7577         128.351 
        1.14745         119.721         27.4126         127.785 
        1.15359          118.43         27.0734         126.959 
        1.15973         118.111         26.7399         126.664 
        1.16584         117.351         26.4134         125.472 
        1.17197         116.704          26.092         125.012 
        1.17811         115.619         25.7749         124.463 
        1.18424         115.091         25.4641         123.713 
        1.19038         114.528         25.1575         123.087 
        1.19652          113.67         24.8561         122.371 
        1.20267         112.915         24.5597         121.674 
        1.20881         112.099         24.2682         121.092 
        1.21495         111.605         23.9819         120.184 
        1.22108         110.928         23.7002         119.936 
         1.2272         110.048         23.4238         119.018 
        1.23334         109.758         23.1512           118.7 
        1.23949           109.1         22.8823         117.719 
        1.24562         108.168         22.6184         117.083 
        1.25174         107.545         22.3591         116.572 
        1.25789         106.869         22.1031         115.995 
        1.26402         106.519         21.8515         115.424 
        1.27014         105.736         21.6045         115.266 
        1.27628         104.734         21.3606         114.767 
        1.28244         104.605         21.1201         113.568 
        1.28858         103.586         20.8835         112.962 
        1.29471         103.009         20.6511         112.588 
        1.30084         102.307         20.4225         111.834 
        1.30697         101.949         20.1971         111.459 
        1.31312         101.184         19.9747         110.852 
        1.31925         100.485         19.7564         110.252 
        1.32537         100.082         19.5415         109.813 
        1.33151         99.7631         19.3291         109.168 
        1.33765         98.8102           19.12         108.728 
        1.34378         98.5317         18.9144         108.165 
        1.34992         98.0871         18.7117         107.596 
        1.35606         97.3121         18.5116         106.994 
         1.3622         97.1316         18.3147         106.541 
        1.36833         96.0349         18.1212         105.874 
        1.37445         95.7577         17.9305         105.352 
        1.38059         95.2453         17.7421         104.961 
        1.38675         94.4117         17.5559         104.224 
        1.39288         93.9888         17.3731         103.871 
        1.39901         93.3035          17.193          103.48 
        1.40515         92.9175          17.015         103.095 
         1.4113         92.4648         16.8397         102.662 
        1.41742         91.7825         16.6675         102.054 
        1.42355         91.5334         16.4974         101.424 
         1.4297         90.8105         16.3291         101.029 
        1.43585         90.2813         16.1633         100.463 
        1.44198         89.6702         16.0004         100.118 
        1.44809         89.0096         15.8401         99.5533 
        1.45423         88.9169         15.6814         99.0499 
        1.46036         88.1466         15.5252         98.6704 
        1.46649         87.5575          15.371         98.3553 
        1.47263         87.2587         15.2188         97.8903 
        1.47877         86.6955         15.0688         97.1172 
        1.48491         86.2099         14.9205         96.9355 
        1.49104         85.3849         14.7745         96.5277 
        1.49718         85.2434         14.6304         95.8837 
        1.50333         84.8184          14.488          95.432 
        1.50947         84.4438         14.3478         95.0207 
         1.5156         84.0574         14.2097         94.6192 
        1.52172          83.297         14.0734         94.2553 
        1.52787         82.9015         13.9386         93.7628 
          1.534         82.4154         13.8057         93.3985 
        1.54013         82.1213         13.6747         92.9313 
        1.54627         81.3808         13.5452         92.5121 
        1.55241         81.1999         13.4173         92.1756 
        1.55855         80.5338         13.2913         91.6197 
        1.56467          79.886         13.1672         91.2367 
         1.5708         79.5676         13.0444         90.9224 
        1.57695         79.2493          12.923         90.5286 
        1.58308         78.8115         12.8033         90.1288 
        1.58922         78.6098         12.6852         89.6808 
        1.59535         78.2482         12.5685         89.2661 
         1.6015         77.6374         12.4532         88.8219 
        1.60764         77.1554         12.3394         88.5403 
        1.61376         76.7432         12.2273         88.3757 
        1.61989         76.2466         12.1165         87.8903 
        1.62604         75.9479         12.0069          87.289 
        1.63218         75.6426         11.8987         86.8991 
        1.63831         75.1421          11.792         86.7175 
        1.64444         74.7689         11.6867         86.2984 
        1.65059         74.2972         11.5823         85.7081 
        1.65673         73.8889         11.4794         85.4358 
        1.66285         73.3578          11.378         85.2068 
        1.66898         72.9403         11.2778         84.7264 
        1.67512         72.6245         11.1786         84.4424 
        1.68127         72.3485         11.0805         84.0097 
         1.6874         71.8389         10.9838         83.5518 
        1.69353          71.403         10.8883         83.3772 
        1.69967         71.1472         10.7937         83.0463 
        1.70581         70.7665         10.7003         82.5972 
        1.71193         70.2823         10.6084         82.2387 
        1.71806          69.918         10.5173         82.0551 
        1.72421         69.6061         10.4271         81.6645 
        1.73035         69.3258         10.3381         81.2095 
        1.73649         68.8157         10.2502         80.8752 
        1.74262         68.3405         10.1633         80.6165 
        1.74876         68.1254         10.0774         80.2648 
        1.75489         67.6685          9.9927           79.88 
        1.76101         67.2596         9.90897         79.5258 
        1.76715         67.0154         9.82608         79.1336 
        1.77329         66.5819         9.74405         78.8615 
        1.77943         66.3561         9.66291         78.5697 
        1.78557         65.9944         9.58282         78.1171 
        1.79171         65.5838         9.50363         77.7934 
        1.79785         65.1913         9.42531         77.5613 
        1.80399         64.9432          9.3479         77.2446 
        1.81012          64.524         9.27146         76.9096 
        1.81625         64.2233          9.1959         76.5658 
        1.82239         63.9039         9.12108         76.2704 
        1.82853         63.4349         9.04713         76.0768 
        1.83466         63.1255         8.97406         75.7178 
        1.84078         62.8725         8.90189         75.3093 
        1.84692          62.711         8.83039         75.1945 
        1.85306          62.273         8.75959         74.8814 
         1.8592         61.9435         8.68968         74.4309 
        1.86533         61.5801         8.62058         74.1791 
        1.87147          61.252         8.55214         73.7903 
