# k  (h/Mpc)    P(k)  (Mpc/h)^3    P_linear(k)  (Mpc/h)^3     P_NL(k)  ShotnoiseSubtracted = false
     0.00783031         5050.64         5079.18         5060.44 
       0.013688         6252.46         6359.78         6329.42 
       0.019231         6469.87          6526.6         6487.71 
      0.0249154         6117.67         6107.42         6075.01 
      0.0312784         5312.06         5334.15         5310.68 
      0.0375637         4509.03         4546.52         4527.61 
      0.0433917         3934.41         3934.42         3917.55 
      0.0492413         3457.61         3474.73         3460.31 
      0.0555754         3138.66          3132.9         3119.44 
      0.0619321         2846.71          2899.7         2886.07 
       0.067871          2705.4         2726.35         2712.16 
      0.0738098         2542.77         2553.59         2530.43 
      0.0800417         2345.51         2348.55         2327.18 
      0.0862327         2109.28         2119.87         2108.75 
      0.0921407         1889.35         1894.34         1886.97 
      0.0982031         1691.92         1677.72         1683.46 
       0.104506            1488            1488         1504.39 
       0.110769         1352.35         1344.69         1356.88 
       0.116806         1273.86         1247.45         1259.25 
       0.122832         1194.48         1181.02         1194.02 
       0.129052         1145.96         1130.72         1141.24 
       0.135211         1109.81         1085.09         1094.12 
       0.141259          1046.4         1034.13         1045.22 
       0.147318          974.58         972.601         989.499 
       0.153489         911.026         900.776         912.526 
       0.159709         850.734         825.169         844.782 
       0.165845         768.344          754.78          786.62 
       0.171974         732.074         694.487             727 
       0.178125         688.469         646.872         686.776 
       0.184229          641.48         612.055         650.629 
        0.19034         624.879         586.823         623.027 
       0.196428         605.086         567.153         597.156 
       0.202534          571.26          548.67         578.574 
       0.208729         560.672         527.851         555.127 
       0.214876         539.259         503.569          537.81 
       0.220989         501.999         476.177         513.644 
       0.227147         485.869         447.072         486.542 
        0.23329         462.116         418.855         464.447 
       0.239377         445.334         393.736          441.59 
       0.245482         420.194         372.566         417.513 
       0.251667         401.268         355.429         403.162 
       0.257832         395.475         341.983          387.79 
       0.263955         375.069         330.958         374.589 
       0.270079         362.746         320.841         363.213 
        0.27624         348.351         310.407         350.923 
       0.282372           339.1         299.059          340.76 
        0.28843         335.412         286.837         329.193 
       0.294538         318.387         273.889         318.506 
       0.300721         304.911         260.848          308.12 
        0.30691         298.553         248.577         297.499 
       0.313033         284.675          237.73         285.587 
       0.319153         278.948         228.384         276.878 
       0.325316          270.28         220.368         269.533 
        0.33145         262.838         213.455         259.892 
       0.337538         254.327         207.194         252.583 
       0.343633         246.562         201.105         247.922 
       0.349808         239.691         194.826         242.328 
       0.355968          233.83         188.306         237.113 
       0.362074         228.008         181.669         230.297 
       0.368217         223.601          174.97         222.311 
       0.374374         217.876         168.478         216.677 
       0.380519         208.535         162.414         210.312 
       0.386598         204.401         156.934         205.298 
       0.392688         198.708         151.997          200.22 
        0.39888         194.568         147.451         194.696 
       0.405048           190.4         143.284         191.254 
       0.411186         187.554         139.344             187 
       0.417313         183.054         135.483         181.642 
       0.423458         178.475         131.624         178.121 
       0.429607         174.586         127.749         174.367 
       0.435692         171.336         123.928         170.577 
       0.441815         166.929         120.167         168.198 
       0.447964         161.848          116.54         163.956 
       0.454126         158.899         113.099         159.346 
       0.460267         157.361         109.896         157.292 
       0.466387         153.743         106.925         153.613 
        0.47254         151.908         104.117         150.847 
       0.478662         146.776         101.462         147.855 
       0.484765         144.727         98.9133         144.133 
       0.490885         141.852         96.4181         142.282 
       0.497035         140.477         93.9437         140.218 
       0.503198         137.608         91.5042          137.45 
       0.509342         133.987         89.1258         135.317 
       0.515458         132.286          86.825         133.752 
       0.521598         129.024         84.5971         130.309 
       0.527764         127.663         82.4565         127.421 
       0.533884         126.734         80.4377         125.596 
           0.54         123.272         78.5166         123.615 
       0.546137          120.39         76.6693         122.108 
       0.552299         118.773         74.8813         119.388 
       0.558452         116.558         73.1521         117.317 
       0.564573         115.983         71.4788         116.108 
       0.570708         112.688         69.8414         114.273 
       0.576825         111.462         68.2439         112.228 
       0.582926         110.197         66.6898         110.483 
       0.589034         108.283         65.1787         109.338 
       0.595184          106.96         63.7087         107.446 
       0.601379         104.413         62.2832         106.301 
       0.607522         102.705         60.9206         104.009 
       0.613639         101.769         59.6102         102.908 
       0.619772         100.078         58.3389         101.142 
       0.625918         99.0902         57.1042         100.235 
       0.632068          97.272          55.905         98.4652 
       0.638161         95.6916         54.7499         97.5608 
         0.6443         95.1321         53.6167         95.9215 
       0.650464         93.1338         52.5076          94.156 
       0.656582         92.7069         51.4345         93.5032 
       0.662703         91.4116         50.3893         91.8974 
       0.668861          89.428         49.3672         90.9434 
       0.675024         89.2603         48.3742         89.5774 
       0.681124         87.8396         47.4216         88.4475 
       0.687237          86.174         46.4959         87.3042 
       0.693381         85.5806         45.5926         86.0909 
       0.699536         84.5297         44.7127          85.566 
       0.705665         83.2461           43.86         84.6817 
       0.711789         82.0844         43.0294         82.9439 
       0.717957         81.0311         42.2131         82.3466 
        0.72409         80.3733         41.4215         81.7758 
       0.730186         79.8137         40.6543          80.698 
       0.736317         78.3679         39.9022          79.494 
       0.742472         77.4161         39.1666         78.6706 
       0.748622         76.2131         38.4508         77.6924 
        0.75476         75.6614         37.7553         76.8135 
       0.760888         75.2889         37.0789         75.8542 
       0.767043         73.7775         36.4169         75.4728 
       0.773185         72.8994          35.773         74.7998 
       0.779291         72.0701         35.1485         73.9369 
       0.785407         71.1045         34.5381         72.8681 
       0.791564         71.0329         33.9383          72.138 
       0.797719         70.0108         33.3529         71.6591 
       0.803834         69.3571         32.7848         70.6552 
       0.809972         68.7447         32.2278         70.0022 
       0.816124         67.9411         31.6825         69.4891 
       0.822261         66.9883         31.1513         68.5639 
       0.828378         66.7772         30.6339         67.6418 
       0.834502         65.8067          30.128         67.4322 
       0.840667         65.3474         29.6303         66.8192 
       0.846816         64.5892         29.1455         66.1248 
       0.852925         63.9515         28.6747          65.547 
       0.859047         63.6947         28.2134         64.7306 
       0.865192         62.6322          27.761         64.2735 
       0.871341         61.9612         27.3183          63.633 
       0.877463          61.554         26.8873         63.1152 
       0.883569         61.3134         26.4668         62.7098 
       0.889708         60.6593         26.0532         62.0155 
       0.895864         60.0896         25.6474         61.4798 
       0.902008         59.4524         25.2512         60.9014 
       0.908149         58.8331         24.8635         60.4807 
       0.914301         58.4574         24.4835         60.0594 
       0.920448          58.178         24.1117         59.4252 
       0.926574          57.049         23.7491         58.7802 
       0.932687         56.7459         23.3946         58.4474 
       0.938823         56.2155         23.0462         57.7975 
       0.944975          55.582         22.7042          57.302 
       0.951105         55.1667         22.3703          57.057 
       0.957225         54.9384         22.0438          56.532 
       0.963368         54.3687         21.7227         55.9062 
       0.969511         53.8961          21.408         55.4847 
       0.975621         53.4871         21.1013         55.3348 
       0.981748         52.9168         20.7999         54.7783 
       0.987916         52.5101         20.5025         54.4241 
        0.99406         52.1458         20.2121         53.9617 
        1.00019         51.6328         19.9279         53.5134 
        1.00632         51.2339         19.6494         53.1153 
        1.01246         50.8398          19.376         52.6679 
        1.01859         50.5386         19.1082         52.3533 
        1.02471         49.9489         18.8458         52.0152 
        1.03085         49.6719         18.5874         51.5515 
        1.03698         49.3362         18.3345         51.1403 
        1.04314         48.9589         18.0853         50.6682 
        1.04929         48.4088         17.8412         50.4666 
        1.05541         48.2213         17.6027         50.2853 
        1.06154         47.9138          17.368         49.7595 
        1.06769         47.2299         17.1372         49.4197 
        1.07382         47.0276         16.9114         49.0972 
        1.07993         46.7272         16.6902         48.6704 
        1.08607         46.3686         16.4721         48.3636 
        1.09222         46.1084         16.2577         48.0687 
        1.09836         45.6924         16.0473         47.7534 
        1.10449          45.471          15.841         47.3489 
        1.11063         45.0048          15.638          47.023 
        1.11677         44.9091         15.4387         46.7026 
         1.1229         44.4278         15.2432         46.4377 
        1.12903         44.2189          15.051         46.1334 
        1.13518         44.0793         14.8619         45.7755 
        1.14131         43.5731         14.6762         45.5451 
        1.14745         43.1752         14.4938         45.2422 
        1.15359         42.7499         14.3145         45.0211 
        1.15973         42.6727         14.1381         44.7151 
        1.16584         42.3534         13.9655         44.3564 
        1.17197         41.8374         13.7955         44.0991 
        1.17811         41.6896         13.6279         43.7173 
        1.18424         41.1426         13.4636         43.4751 
        1.19038         41.0532         13.3015         43.3762 
        1.19652         40.8405         13.1421         42.9657 
        1.20267          40.579         12.9854         42.8048 
        1.20881         40.2681         12.8312         42.4985 
        1.21495          40.109         12.6799         42.3498 
        1.22108         39.9577          12.531         41.9894 
         1.2272         39.5735         12.3848         41.8179 
        1.23334         39.3262         12.2407         41.5318 
        1.23949          39.064         12.0985         41.1992 
        1.24562         38.7417          11.959          41.025 
        1.25174         38.5021         11.8219         40.8145 
        1.25789         38.4525         11.6865         40.5299 
        1.26402         38.1361         11.5535         40.2746 
        1.27014         37.9232         11.4229         40.1054 
        1.27628         37.5355          11.294         39.8459 
        1.28244         37.4851         11.1668         39.7037 
        1.28858         37.1514         11.0417         39.4275 
        1.29471          36.917         10.9188         39.2327 
        1.30084         36.6348          10.798         38.9451 
        1.30697         36.5434         10.6787         38.6806 
        1.31312         36.2035         10.5612         38.5654 
        1.31925          35.934         10.4457         38.3238 
        1.32537         35.7496         10.3321         38.1349 
        1.33151         35.5054         10.2198         37.9543 
        1.33765         35.3988         10.1093         37.7501 
        1.34378         35.2409         10.0006         37.5335 
        1.34992         34.9328         9.89341         37.3614 
        1.35606         34.7359         9.78758         37.2116 
         1.3622          34.512         9.68348         37.0174 
        1.36833         34.3792         9.58116         36.8143 
        1.37445         34.0796         9.48036         36.5637 
        1.38059         33.9452         9.38071         36.4562 
        1.38675         33.6274         9.28226         36.2579 
        1.39288         33.5658         9.18561         36.0876 
        1.39901         33.3085         9.09039         35.9054 
        1.40515         33.1525         8.99631         35.6772 
         1.4113          33.113          8.9036         35.4778 
        1.41742         32.8702         8.81255         35.3473 
        1.42355         32.5583         8.72261         35.1335 
         1.4297         32.4092         8.63366         34.9222 
        1.43585         32.1878         8.54598         34.8209 
        1.44198         32.0357         8.45986         34.6438 
        1.44809         31.8368          8.3751         34.4482 
        1.45423          31.726         8.29119         34.2296 
        1.46036         31.5611         8.20858         34.0844 
        1.46649         31.3646         8.12707         33.9623 
        1.47263         31.1454          8.0466         33.8234 
        1.47877         31.0266         7.96726         33.6834 
        1.48491         30.8933         7.88887         33.4676 
        1.49104         30.6341         7.81171         33.3133 
        1.49718         30.5718         7.73551         33.1534 
        1.50333         30.4484         7.66022         33.0331 
        1.50947         30.1851         7.58608         32.9081 
         1.5156         30.0569         7.51304         32.7375 
        1.52172         29.8347         7.44097         32.5488 
        1.52787         29.7262         7.36969         32.3961 
          1.534         29.5498         7.29944          32.274 
        1.54013         29.4931         7.23018         32.1057 
        1.54627           29.21          7.1617         31.9322 
        1.55241         29.0788         7.09409         31.8027 
        1.55855         28.9979         7.02746         31.6905 
        1.56467         28.8569         6.96186         31.5547 
         1.5708         28.6753         6.89692         31.4072 
        1.57695          28.553         6.83272         31.2375 
        1.58308         28.2853         6.76948         31.0876 
        1.58922         28.1504           6.707         30.9927 
        1.59535         28.0616         6.64533         30.8664 
         1.6015          27.966         6.58436         30.7016 
        1.60764         27.7981         6.52418         30.5448 
        1.61376         27.6261         6.46492         30.4202 
        1.61989         27.4317         6.40635         30.3089 
        1.62604         27.3263         6.34837         30.2273 
        1.63218         27.2133         6.29115         30.1209 
        1.63831         27.0961         6.23477         29.9743 
        1.64444          26.938         6.17906         29.8397 
        1.65059         26.7974         6.12389         29.6964 
        1.65673          26.689         6.06946         29.5601 
        1.66285         26.5892         6.01584         29.4518 
        1.66898          26.396         5.96286         29.3535 
        1.67512         26.3476         5.91041         29.2093 
        1.68127         26.1895         5.85854         29.0917 
         1.6874         26.0405         5.80742         28.9597 
        1.69353         25.9395         5.75693          28.764 
        1.69967         25.8158         5.70693         28.6801 
        1.70581         25.6172         5.65754         28.6254 
        1.71193         25.4825         5.60893         28.5156 
        1.71806         25.4261         5.56079         28.3574 
        1.72421         25.3254         5.51311         28.2356 
        1.73035         25.1519         5.46605         28.1516 
        1.73649         25.0073         5.41955         28.0496 
        1.74262         24.8604         5.37363         27.8787 
        1.74876         24.7905         5.32821         27.7583 
        1.75489         24.6676         5.28341         27.6888 
        1.76101         24.5663         5.23914         27.6032 
        1.76715         24.4749         5.19532         27.4612 
        1.77329         24.2782         5.15195          27.329 
        1.77943         24.2368         5.10905         27.2326 
        1.78557          24.113          5.0667          27.145 
        1.79171         23.9973         5.02483         27.0355 
        1.79785         23.8773         4.98342         26.9427 
        1.80399         23.7567         4.94249         26.8814 
        1.81012         23.6984         4.90207         26.7184 
        1.81625         23.5023         4.86213         26.5774 
        1.82239         23.4157         4.82256         26.5189 
        1.82853         23.3059         4.78346          26.426 
        1.83466          23.194         4.74483         26.3277 
        1.84078         23.0847         4.70667         26.2382 
        1.84692         23.0181         4.66887         26.1355 
        1.85306         22.8569         4.63144         26.0362 
         1.8592         22.8263         4.59447         25.9402 
        1.86533         22.6406         4.55794         25.8355 
        1.87147         22.5315         4.52175         25.7326 
        1.87761         22.4443         4.48595         25.6324 
