# k  (h/Mpc)    P(k)  (Mpc/h)^3    P_linear(k)  (Mpc/h)^3     P_NL(k)  ShotnoiseSubtracted = false
     0.00783031         16246.7         16316.3         16245.8 
       0.013688         19866.7         20422.2         20284.8 
       0.019231         20604.9         20954.4         20763.6 
      0.0249154         19618.9         19606.6         19398.4 
      0.0312784         16900.4           17123         16903.5 
      0.0375637         14287.7         14594.1         14397.6 
      0.0433917         12517.4         12628.9           12425 
      0.0492413         10971.5         11153.2         10965.2 
      0.0555754         9965.92         10055.8         9889.81 
      0.0619321         8927.62         9307.18         9145.02 
       0.067871         8513.22         8750.71         8596.69 
      0.0738098          8045.5         8196.13          7960.1 
      0.0800417         7407.24         7537.98         7320.57 
      0.0862327         6661.45         6803.97         6678.88 
      0.0921407         6009.61         6080.09         5984.87 
      0.0982031         5435.99         5384.81         5401.95 
       0.104506         4789.19         4775.86         4886.92 
       0.110769         4386.57         4315.89         4400.72 
       0.116806         4159.32         4003.76         4087.03 
       0.122832         3911.51         3790.57         3882.12 
       0.129052         3713.08         3629.12         3705.53 
       0.135211         3633.12         3482.66         3539.95 
       0.141259         3392.97         3319.09          3401.2 
       0.147318         3167.85         3121.61         3237.41 
       0.153489         2981.96         2891.08         2977.32 
       0.159709         2848.25         2648.41         2798.73 
       0.165845         2588.22          2422.5         2661.18 
       0.171974         2498.01         2228.98         2488.51 
       0.178125          2399.8         2076.16         2390.47 
       0.184229         2207.03         1964.41         2259.39 
        0.19034         2177.76         1883.43          2166.7 
       0.196428         2120.03         1820.29         2076.48 
       0.202534         2000.96         1760.97         2015.23 
       0.208729         1966.87         1694.15         1920.48 
       0.214876          1882.2         1616.22         1880.26 
       0.220989         1789.83          1528.3         1821.84 
       0.227147         1736.92         1434.89         1757.64 
        0.23329         1665.01         1344.32         1701.27 
       0.239377         1651.05          1263.7         1629.27 
       0.245482          1570.7         1195.76         1552.59 
       0.251667          1512.7         1140.76         1510.62 
       0.257832         1487.21          1097.6         1456.62 
       0.263955            1422         1062.21         1412.78 
       0.270079         1386.75         1029.74         1374.32 
        0.27624         1329.86         996.258         1335.07 
       0.282372         1315.08         959.833         1311.05 
        0.28843         1291.01         920.609         1283.33 
       0.294538          1232.6         879.052         1248.31 
       0.300721          1209.4         837.194         1211.26 
        0.30691         1178.74         797.812         1192.14 
       0.313033         1133.25         762.998         1151.92 
       0.319153         1120.76             733         1117.82 
       0.325316         1106.59         707.273         1096.98 
        0.33145         1081.86         685.085         1057.51 
       0.337538         1046.88         664.993         1039.73 
       0.343633         1023.23         645.448          1028.7 
       0.349808         1004.96         625.297         1012.65 
       0.355968         984.397         604.371         995.655 
       0.362074         954.386         583.067         977.172 
       0.368217         951.498         561.567         952.543 
       0.374374         936.566         540.732          934.14 
       0.380519         903.822         521.269         914.182 
       0.386598         898.977          503.68         902.244 
       0.392688         875.323         487.836         879.755 
        0.39888         858.357         473.246         865.817 
       0.405048         840.644         459.871         851.677 
       0.411186         838.445         447.227         835.309 
       0.417313         833.126         434.834         824.103 
       0.423458         808.685         422.447          810.99 
       0.429607         787.051         410.011         796.993 
       0.435692         779.689         397.747         780.781 
       0.441815         764.702         385.677          777.16 
       0.447964         755.313         374.036         766.049 
       0.454126         745.616         362.992         744.502 
       0.460267         736.124         352.712         742.514 
       0.466387         722.973         343.176         728.875 
        0.47254         712.062         334.164         718.752 
       0.478662         701.513         325.643         707.354 
       0.484765         693.675         317.463         698.736 
       0.490885         686.373         309.454         686.469 
       0.497035         672.765         301.513         680.127 
       0.503198         671.768         293.683         672.183 
       0.509342         659.235          286.05         661.301 
       0.515458         646.148         278.665         656.885 
       0.521598         644.483         271.515         649.363 
       0.527764         629.431         264.645         642.494 
       0.533884         622.806         258.165         634.541 
           0.54         618.137         251.999         626.161 
       0.546137         609.194          246.07         618.594 
       0.552299         605.528         240.332         610.139 
       0.558452         597.459         234.782         605.364 
       0.564573         593.622         229.411         600.339 
       0.570708          586.77         224.156         593.597 
       0.576825          575.17         219.029         584.642 
       0.582926         573.533         214.041         580.055 
       0.589034         565.213         209.191         571.161 
       0.595184         559.404         204.473          565.78 
       0.601379         550.948         199.898         560.424 
       0.607522         542.248         195.525         552.549 
       0.613639          541.52         191.319         550.887 
       0.619772          537.32         187.239         549.358 
       0.625918         528.298         183.276         540.776 
       0.632068         525.926         179.427         537.328 
       0.638161         519.168          175.72         529.547 
         0.6443          513.25         172.083         525.661 
       0.650464         508.915         168.523         517.469 
       0.656582         504.771         165.079         514.496 
       0.662703         499.338         161.725         511.421 
       0.668861         492.832         158.444         508.497 
       0.675024         490.767         155.257         504.429 
       0.681124         480.881           152.2         496.267 
       0.687237         480.914         149.229         491.906 
       0.693381         473.134          146.33         487.755 
       0.699536         473.463         143.506         484.514 
       0.705665         466.063         140.769         478.464 
       0.711789          464.97         138.103         475.333 
       0.717957          458.62         135.483         474.243 
        0.72409         454.463         132.942         468.953 
       0.730186         454.029          130.48          464.28 
       0.736317         446.862         128.066         460.663 
       0.742472         442.648         125.705         456.824 
       0.748622         441.015         123.408         452.639 
        0.75476         435.503         121.176         453.469 
       0.760888         433.284         119.005         447.309 
       0.767043         430.047          116.88         442.659 
       0.773185         426.367         114.813          439.76 
       0.779291         422.031         112.809         435.912 
       0.785407         418.835          110.85         433.651 
       0.791564         416.593         108.925         431.102 
       0.797719         409.986         107.046         426.674 
       0.803834          411.03         105.223         424.796 
       0.809972         404.298         103.435         421.844 
       0.816124         401.234         101.685         416.202 
       0.822261         398.521         99.9802         414.592 
       0.828378         396.718         98.3197         411.487 
       0.834502         390.105         96.6958         409.922 
       0.840667         389.655         95.0985         406.054 
       0.846816         385.096         93.5424         403.285 
       0.852925          385.06         92.0314         400.892 
       0.859047         380.728         90.5511         397.496 
       0.865192         378.594         89.0989         394.388 
       0.871341          373.76          87.678         392.379 
       0.877463         372.844         86.2948         389.835 
       0.883569         369.325         84.9452         388.157 
       0.889708         365.394         83.6177         384.262 
       0.895864          361.43         82.3154         382.112 
       0.902008         360.455         81.0436         379.379 
       0.908149          356.88         79.7996         376.019 
       0.914301         355.493         78.5798         373.127 
       0.920448         351.341         77.3867         371.545 
       0.926574         349.536         76.2227         368.778 
       0.932687          348.38         75.0852         366.066 
       0.938823         344.325         73.9669         365.526 
       0.944975         343.339          72.869         362.253 
       0.951105         339.989         71.7975         359.553 
       0.957225         335.884         70.7495         357.645 
       0.963368         336.196         69.7189         355.562 
       0.969511         330.913          68.709         353.219 
       0.975621         329.126         67.7247         350.787 
       0.981748         327.925         66.7573          348.85 
       0.987916         325.593         65.8028          347.17 
        0.99406         322.087         64.8706         344.849 
        1.00019         319.116         63.9585         341.632 
        1.00632         318.621         63.0649         339.584 
        1.01246         315.654         62.1872           337.1 
        1.01859         312.719         61.3276         334.985 
        1.02471         310.857         60.4855         333.577 
        1.03085          309.59         59.6564         332.305 
        1.03698         307.567         58.8447         330.923 
        1.04314         305.431         58.0447         328.289 
        1.04929         304.025         57.2615         325.448 
        1.05541         300.669          56.496         323.516 
        1.06154         298.509         55.7426         321.981 
        1.06769         296.129          55.002         319.813 
        1.07382         293.647         54.2773         317.943 
        1.07993         292.917         53.5673          316.48 
        1.08607         291.276         52.8672         313.966 
        1.09222         288.296          52.179         312.264 
        1.09836         286.881         51.5039         311.178 
        1.10449         284.873         50.8416         309.309 
        1.11063         283.282         50.1902         307.057 
        1.11677         280.053         49.5506         305.181 
         1.1229         279.478         48.9232         303.633 
        1.12903          276.74         48.3062         302.182 
        1.13518         274.992         47.6994         299.955 
        1.14131         273.607         47.1034         298.459 
        1.14745          270.79         46.5179         296.384 
        1.15359         268.675         45.9423         295.243 
        1.15973         267.383         45.3762         293.478 
        1.16584           265.7         44.8223         291.973 
        1.17197         264.078         44.2768          290.67 
        1.17811         261.174         43.7388         288.806 
        1.18424         260.173         43.2113         287.202 
        1.19038          258.85         42.6911         286.221 
        1.19652         256.032         42.1796         284.077 
        1.20267         255.193         41.6766         282.373 
        1.20881         253.321         41.1819         281.109 
        1.21495         251.763          40.696         279.201 
        1.22108           250.2         40.2181         277.373 
         1.2272         247.187         39.7491         275.817 
        1.23334         246.218         39.2864         274.434 
        1.23949         244.667         38.8301         273.331 
        1.24562         243.383         38.3823         271.557 
        1.25174         241.976         37.9423          270.26 
        1.25789         239.505         37.5078         268.593 
        1.26402         238.783          37.081         267.791 
        1.27014         237.333         36.6618          265.85 
        1.27628          235.63          36.248         265.201 
        1.28244         233.301         35.8397         263.946 
        1.28858         232.441         35.4383         262.155 
        1.29471         230.874          35.044         259.894 
        1.30084         230.317          34.656         258.871 
        1.30697         227.599         34.2734         257.886 
        1.31312         226.321          33.896         256.107 
        1.31925         225.006         33.5256         254.834 
        1.32537         224.066          33.161         253.346 
        1.33151         221.848         32.8006         252.192 
        1.33765         220.186         32.4457         251.028 
        1.34378         219.555         32.0969         249.728 
        1.34992         217.114         31.7529         248.075 
        1.35606         216.184         31.4132         246.538 
         1.3622         214.393         31.0791         245.758 
        1.36833         214.015         30.7507          244.76 
        1.37445         213.003         30.4272         242.437 
        1.38059         210.222         30.1074         241.879 
        1.38675          208.86         29.7914         240.974 
        1.39288         208.194         29.4812         238.786 
        1.39901         206.162         29.1756          237.83 
        1.40515         205.299         28.8737         236.629 
         1.4113         203.819         28.5761         235.192 
        1.41742         202.237         28.2839         234.208 
        1.42355         201.467         27.9952         232.869 
         1.4297         200.046         27.7097         231.612 
        1.43585         198.905         27.4283         230.952 
        1.44198         197.365         27.1519          229.59 
        1.44809         196.344         26.8799         228.541 
        1.45423         195.123         26.6106         226.703 
        1.46036         194.198         26.3454         225.833 
        1.46649         192.648         26.0838         225.091 
        1.47263         191.396         25.8256         223.713 
        1.47877         190.196         25.5709         222.281 
        1.48491         188.736         25.3193         220.976 
        1.49104           186.9         25.0717         220.293 
        1.49718         186.434         24.8271         219.388 
        1.50333         184.779         24.5855         218.146 
        1.50947         183.746         24.3475         217.196 
         1.5156           182.7         24.1131          216.04 
        1.52172         181.531         23.8818         214.457 
        1.52787         180.412          23.653         213.745 
          1.534         179.803         23.4275         212.723 
        1.54013         178.084         23.2053         211.628 
        1.54627         177.345         22.9855         210.855 
        1.55241         176.265         22.7685         209.849 
        1.55855         175.027         22.5546         208.532 
        1.56467         173.994         22.3441         207.439 
         1.5708         172.506         22.1357          206.46 
        1.57695         171.877         21.9296         205.446 
        1.58308         170.762         21.7266          204.43 
        1.58922         169.394         21.5261         203.393 
        1.59535         168.197         21.3282         202.566 
         1.6015         167.462         21.1325         201.642 
        1.60764         166.079         20.9393         200.516 
        1.61376         164.986         20.7492         199.495 
        1.61989         163.998         20.5612         198.569 
        1.62604         163.234         20.3751         197.466 
        1.63218         162.049         20.1914         196.541 
        1.63831         161.316         20.0105         195.769 
        1.64444         159.821         19.8317          194.76 
        1.65059         159.036         19.6546         193.974 
        1.65673         158.039         19.4799         192.955 
        1.66285         157.053         19.3078         191.857 
        1.66898         156.224         19.1378         190.993 
        1.67512         155.028         18.9695         190.149 
        1.68127          154.19          18.803         189.331 
         1.6874         153.176         18.6389          188.49 
        1.69353         152.526         18.4769         187.539 
        1.69967         151.242         18.3164         186.578 
        1.70581         150.635         18.1579         185.813 
        1.71193         149.454         18.0019         184.972 
        1.71806         148.429         17.8473         183.693 
        1.72421         147.541         17.6943         182.939 
        1.73035         146.602         17.5433         182.259 
        1.73649         145.467          17.394           181.3 
        1.74262         144.764         17.2467         180.454 
        1.74876          144.03         17.1009         179.658 
        1.75489         143.454         16.9571         178.864 
        1.76101         142.216          16.815         178.096 
        1.76715         141.277         16.6744         177.343 
        1.77329         140.246         16.5352         176.411 
        1.77943         139.386         16.3975         175.447 
        1.78557         138.406         16.2616         174.659 
        1.79171          137.84         16.1272         173.897 
        1.79785         136.752         15.9943         173.093 
        1.80399         136.075         15.8629         172.297 
        1.81012         135.607         15.7332         171.635 
        1.81625         134.156          15.605         170.852 
        1.82239         133.841          15.478         169.905 
        1.82853         132.708         15.3525         169.053 
        1.83466         131.588         15.2285         168.187 
        1.84078         131.117         15.1061         167.422 
        1.84692         130.467         14.9847         166.938 
        1.85306         129.473         14.8646         166.018 
         1.8592         128.837          14.746         165.037 
        1.86533          127.62         14.6287         164.667 
        1.87147         126.877         14.5126         164.164 
        1.87761         126.316         14.3976         163.288 
