# k  (h/Mpc)    Pcb(k)  (Mpc/h)^3    Pcb_linear(k) (Mpc/h)^3    Pcb_NL(k) (Mpc/h)^3   ShotnoiseSubtracted = false
     0.00783031         8565.74         8609.25         8576.16 
       0.013688           10556         10778.1         10720.4 
       0.019231         10933.6         11060.1         10983.7 
      0.0249154         10366.8         10349.3         10277.4 
      0.0312784         8976.32         9038.71          8975.3 
      0.0375637         7607.59         7703.94         7649.48 
      0.0433917         6649.54         6666.68         6613.21 
      0.0492413         5837.07         5887.71         5839.84 
      0.0555754         5302.52         5308.47         5265.37 
      0.0619321         4785.22         4913.31         4870.55 
       0.067871         4556.17         4619.57         4577.66 
      0.0738098         4289.87         4326.83         4260.75 
      0.0800417         3956.11          3979.4         3918.33 
      0.0862327         3556.49         3591.91         3558.53 
      0.0921407         3192.88         3209.77         3185.46 
      0.0982031         2869.67         2842.73         2853.26 
       0.104506         2523.64         2521.26         2560.33 
       0.110769         2299.72         2278.44         2307.11 
       0.116806         2173.79         2113.66         2141.71 
       0.122832         2037.75         2001.12          2032.3 
       0.129052         1949.44         1915.88         1941.23 
       0.135211         1895.57         1838.57         1859.37 
       0.141259         1780.67         1752.22          1779.4 
       0.147318         1657.24         1647.96         1688.83 
       0.153489         1553.48         1526.26         1554.76 
       0.159709         1463.37         1398.16         1447.31 
       0.165845         1322.25         1278.89         1358.86 
       0.171974         1269.41         1176.73         1260.27 
       0.178125         1202.95         1096.05         1198.66 
       0.184229         1114.05         1037.06         1134.93 
        0.19034         1090.41         994.303         1086.94 
       0.196428         1058.46         960.976         1040.07 
       0.202534         995.857         929.657         1008.45 
       0.208729          980.64         894.382         964.893 
       0.214876         941.556         853.241         940.144 
       0.220989         880.842         806.827         902.655 
       0.227147         855.305          757.51         860.165 
        0.23329         816.835         709.701         826.743 
       0.239377         796.902         667.139         788.596 
       0.245482          752.97         631.269         747.059 
       0.251667         721.979         602.234         724.359 
       0.257832         712.566          579.45         696.942 
       0.263955         675.995         560.769          673.71 
       0.270079         654.503         543.626         654.101 
        0.27624         628.075         525.946          632.98 
       0.282372         615.012          506.72         616.206 
        0.28843         609.331         486.012         597.451 
       0.294538         577.512         464.072         580.563 
       0.300721         558.667         441.975          563.34 
        0.30691         548.059         421.184         547.978 
       0.313033         522.781         402.805         527.217 
       0.319153         513.432         386.968         511.697 
       0.325316         503.203         373.389         499.629 
        0.33145         491.401         361.673         481.233 
       0.337538         474.031         351.066         469.481 
       0.343633         460.001         340.749         463.553 
       0.349808         448.726         330.109         454.254 
       0.355968         439.684         319.063         445.333 
       0.362074         425.731         307.816         434.243 
       0.368217         421.989         296.465         420.487 
       0.374374         412.833         285.467         410.807 
       0.380519         396.044         275.191         400.131 
       0.386598         390.882         265.905          393.21 
       0.392688          381.31         257.541         382.451 
        0.39888         371.591         249.839          374.37 
       0.405048         364.511         242.777         369.267 
       0.411186         362.265         236.102         359.545 
       0.417313         356.085          229.56         351.064 
       0.423458         346.377         223.021         345.304 
       0.429607          337.37         216.455         338.682 
       0.435692         331.464         209.981         331.576 
       0.441815         325.735         203.609         328.249 
       0.447964         317.397         197.463         321.505 
       0.454126         313.021         191.632         312.636 
       0.460267         308.452         186.206         310.055 
       0.466387         302.547         181.171         303.639 
        0.47254         298.465         176.414         298.736 
       0.478662         290.569         171.915         292.974 
       0.484765         287.111         167.597         286.369 
       0.490885         283.512         163.368         282.832 
       0.497035         278.667         159.177         279.311 
       0.503198         276.711         155.043         274.948 
       0.509342         269.448         151.013         271.405 
       0.515458         265.754         147.115         268.636 
       0.521598         260.197          143.34         262.956 
       0.527764         257.107         139.713         258.937 
       0.533884          256.01         136.292         255.518 
           0.54         250.811         133.037         251.524 
       0.546137         245.206         129.907         248.686 
       0.552299         243.798         126.877         244.199 
       0.558452          239.52         123.947          241.05 
       0.564573         237.716         121.112         238.926 
       0.570708         232.885         118.337         235.986 
       0.576825         229.382         115.631         231.363 
       0.582926         227.162         112.998         228.669 
       0.589034         223.769         110.437         226.346 
       0.595184             222         107.947         222.218 
       0.601379         217.947         105.531         220.935 
       0.607522         213.693         103.223         217.589 
       0.613639         212.285         101.002         215.473 
       0.619772         210.538         98.8483         212.872 
       0.625918         208.108         96.7563         210.388 
       0.632068         203.989         94.7243         207.063 
       0.638161         202.232         92.7671          206.05 
         0.6443         200.763         90.8469         203.478 
       0.650464          197.03         88.9678         199.702 
       0.656582         195.578         87.1496         198.228 
       0.662703         193.797         85.3785         196.213 
       0.668861         190.023         83.6467         194.082 
       0.675024         189.748         81.9643         191.655 
       0.681124         187.089         80.3502         189.745 
       0.687237         184.954         78.7817         187.541 
       0.693381         182.835         77.2511         185.409 
       0.699536          180.99         75.7604         183.787 
       0.705665         178.942         74.3155         182.775 
       0.711789         176.857          72.908          180.13 
       0.717957         174.902         71.5251         178.431 
        0.72409          173.14         70.1838         177.497 
       0.730186         173.371         68.8839         175.742 
       0.736317         170.439         67.6095         173.449 
       0.742472         168.108          66.363         171.909 
       0.748622         165.603         65.1502         169.931 
        0.75476         166.245         63.9718         168.567 
       0.760888         164.122         62.8257         166.384 
       0.767043         161.452         61.7041         165.472 
       0.773185         159.959          60.613         164.482 
       0.779291         158.007         59.5549         162.651 
       0.785407         156.936         58.5207         160.772 
       0.791564         155.636         57.5044         159.764 
       0.797719          153.44         56.5124         158.828 
       0.803834         153.562         55.5499         156.892 
       0.809972         152.146         54.6061         155.644 
       0.816124         149.821         53.6822          154.61 
       0.822261         148.505         52.7821         153.128 
       0.828378         148.267         51.9055         151.288 
       0.834502         146.016         51.0482         150.464 
       0.840667         145.542          50.205         149.676 
       0.846816         143.786         49.3834         148.186 
       0.852925         142.503         48.5858         146.944 
       0.859047         141.119         47.8043          145.78 
       0.865192         140.433         47.0376         144.768 
       0.871341         138.844         46.2875         143.321 
       0.877463         137.743         45.5572         142.552 
       0.883569         137.514         44.8448         141.609 
       0.889708          136.15          44.144         140.457 
       0.895864         134.852         43.4564         139.714 
       0.902008         133.439          42.785         138.201 
       0.908149         131.896         42.1283         137.038 
       0.914301         131.722         41.4843         136.292 
       0.920448         131.283         40.8544         135.415 
       0.926574         128.959         40.2399         133.924 
       0.932687         128.746         39.6394         133.002 
       0.938823         127.744         39.0491         132.313 
       0.944975         126.488         38.4695         131.394 
       0.951105         125.351         37.9038         130.302 
       0.957225         125.021         37.3505         129.511 
       0.963368         123.672         36.8064         128.118 
       0.969511          122.63         36.2733         127.433 
       0.975621         121.498         35.7536         127.631 
       0.981748         120.654         35.2429         126.261 
       0.987916         119.953          34.739         125.532 
        0.99406         119.362         34.2469         124.459 
        1.00019         118.223         33.7654         123.426 
        1.00632         117.388         33.2936         122.654 
        1.01246         116.546         32.8302         121.618 
        1.01859         115.879         32.3765         121.244 
        1.02471         115.032         31.9319          120.83 
        1.03085         114.011         31.4942         119.796 
        1.03698         113.143         31.0656         118.799 
        1.04314         112.534         30.6433          118.21 
        1.04929         111.996         30.2298          117.69 
        1.05541         111.158         29.8257         117.037 
        1.06154         110.316          29.428         116.385 
        1.06769         109.539          29.037         115.676 
        1.07382         108.791         28.6544         114.941 
        1.07993         108.159         28.2796           114.2 
        1.08607         107.325           27.91         113.541 
        1.09222         106.753         27.5466         112.766 
        1.09836         105.799         27.1902         111.967 
        1.10449         105.131         26.8406         111.389 
        1.11063         104.441         26.4967         110.422 
        1.11677         103.754          26.159          109.88 
         1.1229         102.951         25.8278         109.552 
        1.12903         102.478         25.5021         108.707 
        1.13518         101.731         25.1818         108.113 
        1.14131         101.095         24.8671         107.396 
        1.14745         100.551          24.558         106.897 
        1.15359         99.3804         24.2541         106.181 
        1.15973         99.1382         23.9553         105.978 
        1.16584         98.4812         23.6628         104.972 
        1.17197         97.9343         23.3749          104.59 
        1.17811         97.0716         23.0909         104.001 
        1.18424         96.4989         22.8124         103.506 
        1.19038         96.2271         22.5377         102.884 
        1.19652         95.4576         22.2677         102.224 
        1.20267         94.7837         22.0022         101.705 
        1.20881         94.1628          21.741         101.173 
        1.21495         93.6493         21.4845         100.432 
        1.22108         93.1979         21.2322          100.22 
         1.2272         92.3497         20.9846         99.5102 
        1.23334         92.1339         20.7403         99.1558 
        1.23949         91.5148         20.4994         98.3349 
        1.24562         90.6998          20.263         97.8944 
        1.25174         90.2005         20.0307         97.4619 
        1.25789         89.8635         19.8013         96.9187 
        1.26402         89.3456          19.576         96.4716 
        1.27014         88.7831         19.3547         96.2918 
        1.27628         87.9607         19.1362         95.7741 
        1.28244         87.8622         18.9207         94.8065 
        1.28858         87.0209         18.7088         94.3497 
        1.29471         86.5212         18.5006         94.0942 
        1.30084         85.8786         18.2958         93.3622 
        1.30697         85.7548         18.0938         93.0378 
        1.31312         85.0757         17.8946          92.672 
        1.31925          84.516          17.699         92.1037 
        1.32537         84.1049         17.5066         91.6804 
        1.33151         83.8544         17.3163         91.1758 
        1.33765         83.1323         17.1289         90.7825 
        1.34378         82.7961         16.9448         90.3097 
        1.34992         82.4414         16.7632         89.8904 
        1.35606         81.7935         16.5839         89.3893 
         1.3622         81.5841         16.4075         88.9817 
        1.36833         80.7968         16.2341         88.4211 
        1.37445         80.3472         16.0633         88.0021 
        1.38059         80.0293         15.8945         87.7779 
        1.38675         79.2395         15.7277         87.0741 
        1.39288         79.0846         15.5639         86.8689 
        1.39901         78.3826         15.4026         86.4666 
        1.40515         78.0773         15.2432          86.167 
         1.4113         77.7433         15.0861         85.8301 
        1.41742         77.1452         14.9318         85.1953 
        1.42355         76.9109         14.7794         84.6772 
         1.4297         76.3816         14.6287         84.3637 
        1.43585         75.8923         14.4801         84.0008 
        1.44198          75.489         14.3342         83.7312 
        1.44809         74.8958         14.1906          83.102 
        1.45423         74.7275         14.0484         82.7835 
        1.46036         74.1453         13.9084         82.5022 
        1.46649         73.6977         13.7703         82.2157 
        1.47263          73.429          13.634         81.8338 
        1.47877         73.0294         13.4996         81.1963 
        1.48491         72.5546         13.3667          81.017 
        1.49104         71.9655          13.236         80.5799 
        1.49718         71.7735         13.1069         80.1932 
        1.50333         71.4006         12.9793          79.778 
        1.50947         71.1164         12.8537         79.3996 
         1.5156         70.8174         12.7299         79.1124 
        1.52172         70.1724         12.6078         78.8149 
        1.52787         69.7675          12.487         78.4519 
          1.534         69.4263          12.368         78.1256 
        1.54013         69.2299         12.2507         77.7132 
        1.54627         68.5692         12.1346         77.3678 
        1.55241         68.3336         12.0201         77.0699 
        1.55855         67.8944         11.9072         76.5954 
        1.56467         67.3024          11.796         76.2925 
         1.5708         67.1591          11.686         76.0824 
        1.57695         66.7827         11.5772         75.7912 
        1.58308         66.4629         11.4701         75.4509 
        1.58922         66.1502         11.3642         75.0575 
        1.59535         65.9355         11.2597         74.6983 
         1.6015         65.6139         11.1564         74.3273 
        1.60764          65.171         11.0544         74.1154 
        1.61376         64.7711          10.954         73.9768 
        1.61989         64.2799         10.8548         73.5253 
        1.62604          64.083         10.7565         73.0522 
        1.63218         63.7938         10.6596         72.7385 
        1.63831         63.4723         10.5641         72.5473 
        1.64444         63.2111         10.4697         72.2248 
        1.65059         62.7464         10.3762         71.7625 
        1.65673         62.3409          10.284         71.5254 
        1.66285         61.9724         10.1931         71.3333 
        1.66898         61.5791         10.1033         70.9789 
        1.67512         61.3843         10.0145         70.7569 
        1.68127         61.1439         9.92659         70.3687 
         1.6874         60.7288         9.83996         69.9563 
        1.69353         60.3907         9.75442         69.8222 
        1.69967          60.174          9.6697         69.5843 
        1.70581         59.7918         9.58602         69.2612 
        1.71193         59.4602         9.50365         68.9585 
        1.71806         59.1193         9.42207         68.6947 
        1.72421         58.9195          9.3413         68.3659 
        1.73035         58.6482         9.26156         68.1096 
        1.73649         58.2169         9.18277         67.9085 
        1.74262         57.7726         9.10496         67.5349 
        1.74876         57.7203         9.02801         67.2154 
        1.75489         57.2709          8.9521         66.9757 
        1.76101         56.9675         8.87709         66.7073 
        1.76715         56.8289         8.80284         66.3669 
        1.77329         56.3393         8.72934           66.13 
        1.77943         56.2277         8.65666         65.8951 
        1.78557         55.9147         8.58491         65.5306 
        1.79171         55.6229         8.51396          65.248 
        1.79785         55.3054          8.4438         65.0504 
        1.80399         55.0069         8.37445         64.8212 
        1.81012         54.7385         8.30597         64.5408 
        1.81625         54.4863         8.23828         64.2439 
        1.82239         54.1918         8.17125         64.0128 
        1.82853         53.8345           8.105          63.863 
        1.83466         53.6309         8.03954         63.5472 
        1.84078         53.3469         7.97488         63.1863 
        1.84692         53.1486         7.91083         63.1123 
        1.85306         52.8343         7.84741         62.8616 
         1.8592         52.5717         7.78478         62.4924 
        1.86533         52.2716         7.72287         62.3318 
        1.87147         52.0086         7.66156         62.0635 
