# k  (h/Mpc)    Pcb(k)  (Mpc/h)^3    Pcb_linear(k) (Mpc/h)^3    Pcb_NL(k) (Mpc/h)^3   ShotnoiseSubtracted = false
     0.00783031         1029.01         1036.14         1032.26 
       0.013688         1284.39         1297.93         1292.56 
       0.019231         1326.22         1332.21         1325.75 
      0.0249154         1247.06         1246.76         1242.43 
      0.0312784         1087.85         1088.97         1087.37 
      0.0375637         926.075         928.212         927.455 
      0.0433917         804.908         803.265         803.242 
      0.0492413         709.108         709.424         709.647 
      0.0555754         641.783         639.642         639.593 
      0.0619321         588.045         592.037         591.816 
       0.067871         555.843         556.648         556.029 
      0.0738098          521.09         521.377         520.192 
      0.0800417         480.142         479.515         478.412 
      0.0862327         432.479         432.826         432.268 
      0.0921407         386.451          386.78          386.59 
      0.0982031           343.9         342.553         343.074 
       0.104506         303.369         303.816         304.893 
       0.110769         274.615         274.556         275.446 
       0.116806         256.434         254.701         255.464 
       0.122832         241.444          241.14         241.892 
       0.129052         231.787         230.869         231.406 
       0.135211         223.029         221.553         221.969 
       0.141259         211.571         211.148         211.621 
       0.147318         198.001         198.585         199.372 
       0.153489         184.105          183.92         184.506 
       0.159709         169.536         168.483         169.477 
       0.165845         153.885         154.111         155.727 
       0.171974         143.719           141.8         143.421 
       0.178125         133.942         132.078         134.032 
       0.184229          126.06         124.969         126.878 
        0.19034         121.765         119.817          121.57 
       0.196428         117.463         115.801         117.184 
       0.202534         112.329         112.027         113.383 
       0.208729         109.008         107.777         109.057 
       0.214876         104.611         102.819         104.457 
       0.220989         97.7777          97.226         99.0195 
       0.227147         93.2039         91.2832         93.1434 
        0.23329         87.7225         85.5221         87.7061 
       0.239377         82.9479         80.3931         82.7327 
       0.245482         78.3801         76.0707         78.2292 
       0.251667         74.4868         72.5719         74.8714 
       0.257832         72.4545         69.8263          72.023 
       0.263955         69.4812         67.5752         69.6239 
       0.270079         67.2831         65.5094         67.4613 
        0.27624         64.7315         63.3788         65.2142 
       0.282372         62.5165          61.062         63.0102 
        0.28843         60.7799         58.5666         60.5704 
       0.294538         57.9564         55.9228         58.0198 
       0.300721         54.9782           53.26         55.5062 
        0.30691         53.0551         50.7546         53.0573 
       0.313033         50.6706         48.5398         50.7906 
       0.319153          49.323         46.6314         48.9524 
       0.325316         47.0044          44.995         47.3477 
        0.33145         45.5049         43.5833         45.7977 
       0.337538          44.281         42.3051         44.4349 
       0.343633            43.1         41.0619         43.1774 
       0.349808         41.6854         39.7796         41.9525 
       0.355968         40.2667         38.4485            40.8 
       0.362074         39.2351         37.0933         39.3703 
       0.368217         37.8532         35.7254         37.8742 
       0.374374         36.8145         34.4001         36.6674 
       0.380519         35.1971         33.1618         35.3755 
       0.386598         34.0174         32.0428          34.291 
       0.392688         32.9201         31.0349         33.2816 
        0.39888         32.1821         30.1068         32.3085 
       0.405048         31.3687         29.2558         31.3684 
       0.411186          30.472         28.4514         30.6983 
       0.417313         29.6272         27.6631          29.811 
       0.423458           28.71         26.8751         29.0546 
       0.429607         28.1399         26.0838         28.2118 
       0.435692         27.4856         25.3037         27.4819 
       0.441815         26.4582         24.5359         26.8031 
       0.447964         25.5624         23.7953         25.9931 
       0.454126          25.059         23.0926         25.2573 
       0.460267         24.6374         22.4388         24.6543 
       0.466387         23.8898          21.832         23.9663 
        0.47254         23.4304         21.2587         23.4122 
       0.478662         22.7355         20.7166         22.8314 
       0.484765          22.206         20.1963         22.2856 
       0.490885         21.5677         19.6866         21.8723 
       0.497035         21.0612         19.1816         21.3867 
       0.503198         20.6161         18.6834         20.7713 
       0.509342         20.0046         18.1978         20.3229 
       0.515458         19.6704          17.728         19.9282 
       0.521598         19.1925         17.2731         19.3435 
       0.527764         18.8693         16.8361         18.8687 
       0.533884         18.2941         16.4238         18.4546 
           0.54         17.9334         16.0316         18.0422 
       0.546137         17.3966         15.6544         17.7031 
       0.552299         17.0777         15.2893         17.2415 
       0.558452         16.6931         14.9363         16.8897 
       0.564573         16.4251         14.5946         16.6318 
       0.570708         16.0344         14.2602         16.2692 
       0.576825         15.7385         13.9341         15.9182 
       0.582926         15.3894         13.6168         15.6163 
       0.589034         15.0865         13.3082          15.339 
       0.595184         14.8561         13.0082         14.9194 
       0.601379          14.442          12.717         14.7152 
       0.607522         14.1718         12.4388         14.3903 
       0.613639         13.8593         12.1713         14.0996 
       0.619772         13.6345         11.9117           13.87 
       0.625918         13.3338         11.6596         13.5832 
       0.632068         13.1622         11.4147         13.3048 
       0.638161         12.8716         11.1789         13.0584 
         0.6443         12.6229         10.9475         12.7987 
       0.650464         12.3183         10.7211          12.619 
       0.656582         12.1983          10.502         12.3768 
       0.662703         11.9998         10.2885         12.1367 
       0.668861         11.6702         10.0798         11.9593 
       0.675024         11.4757         9.87711         11.7044 
       0.681124         11.4215          9.6826         11.4976 
       0.687237         11.1547         9.49358          11.263 
       0.693381         10.8674         9.30914         11.0623 
       0.699536          10.783          9.1295          10.887 
       0.705665         10.5691         8.95539         10.7624 
       0.711789         10.3445         8.78577         10.5518 
       0.717957          10.126         8.61913         10.3531 
        0.72409         10.0194         8.45749         10.2031 
       0.730186          9.9261         8.30085         10.0121 
       0.736317         9.69075         8.14728         9.84306 
       0.742472         9.56357         7.99707         9.74049 
       0.748622         9.40315         7.85093         9.56642 
        0.75476         9.15858         7.70892         9.39062 
       0.760888         9.08263         7.57081         9.25744 
       0.767043         8.87872         7.43566         9.13047 
       0.773185         8.76158         7.30417          8.9946 
       0.779291         8.70281         7.17666         8.86062 
       0.785407         8.51914         7.05204         8.71006 
       0.791564         8.40205         6.92957         8.58487 
       0.797719         8.23572         6.81003         8.43108 
       0.803834          8.1558         6.69404         8.30864 
       0.809972          7.9971         6.58031         8.22792 
       0.816124         7.88786         6.46897         8.07528 
       0.822261         7.78059         6.36051         7.95502 
       0.828378         7.66006         6.25487         7.84513 
       0.834502         7.55673         6.15156         7.73218 
       0.840667         7.47263         6.04995         7.61909 
       0.846816         7.31597         5.95095          7.5282 
       0.852925         7.23214         5.85483         7.43261 
       0.859047         7.12863         5.76065         7.33147 
       0.865192         7.02053         5.66827          7.2222 
       0.871341         6.91628         5.57787         7.13449 
       0.877463         6.82023         5.48988         7.02132 
       0.883569         6.74357         5.40402         6.93796 
       0.889708         6.63825         5.31957         6.84591 
       0.895864         6.54867         5.23672         6.74411 
       0.902008         6.44491         5.15581         6.66718 
       0.908149         6.35702         5.07667         6.57403 
       0.914301          6.2938         4.99907         6.50219 
       0.920448         6.20474         4.92316         6.39354 
       0.926574         6.15552         4.84911         6.32901 
       0.932687         6.04647         4.77675         6.20918 
       0.938823          5.9445         4.70561         6.16636 
       0.944975         5.89944         4.63576         6.07564 
       0.951105         5.79187         4.56759         5.99052 
       0.957225         5.74945         4.50092         5.94279 
       0.963368         5.67373         4.43536         5.85629 
       0.969511         5.60145         4.37111         5.79186 
       0.975621         5.52185         4.30849          5.6986 
       0.981748         5.42565         4.24695         5.63379 
       0.987916         5.37568         4.18622         5.58155 
        0.99406         5.33066         4.12692         5.51709 
        1.00019         5.26729          4.0689          5.4624 
        1.00632         5.21017         4.01205          5.3871 
        1.01246         5.13355         3.95621         5.33293 
        1.01859          5.0682         3.90153         5.25792 
        1.02471         4.98848         3.84795         5.18229 
        1.03085         4.95782         3.79521         5.12819 
        1.03698         4.89648         3.74357         5.07909 
        1.04314         4.83995         3.69267          5.0173 
        1.04929         4.76638         3.64285         4.96393 
        1.05541          4.7148         3.59415         4.91516 
        1.06154         4.67123         3.54622         4.85948 
        1.06769         4.63953          3.4991         4.81231 
        1.07382         4.55488           3.453         4.75541 
        1.07993         4.49928         3.40783         4.69858 
        1.08607         4.46852         3.36329         4.64797 
        1.09222         4.40098         3.31951         4.59202 
        1.09836         4.38869         3.27656         4.53952 
        1.10449         4.29039         3.23443         4.49727 
        1.11063         4.26645         3.19299         4.44453 
        1.11677         4.22196          3.1523         4.40361 
         1.1229         4.17353         3.11239         4.36326 
        1.12903         4.13944         3.07313         4.32098 
        1.13518         4.07384         3.03453         4.27521 
        1.14131         4.03013         2.99661         4.22016 
        1.14745         3.98056         2.95936          4.1699 
        1.15359         3.94366         2.92275         4.14151 
        1.15973         3.89892         2.88673         4.09595 
        1.16584         3.86474         2.85149         4.06125 
        1.17197         3.81741         2.81679         4.01538 
        1.17811         3.77592         2.78257         3.97315 
        1.18424         3.73743         2.74901          3.9312 
        1.19038         3.70269         2.71591         3.89373 
        1.19652         3.67161         2.68337         3.86454 
        1.20267         3.63637         2.65137         3.81197 
        1.20881         3.59146          2.6199         3.78267 
        1.21495         3.55844         2.58899         3.75229 
        1.22108         3.52314         2.55859         3.71471 
         1.2272         3.47514         2.52875         3.66874 
        1.23334         3.46347         2.49932         3.64192 
        1.23949         3.41626         2.47028         3.61702 
        1.24562         3.38659          2.4418         3.58017 
        1.25174         3.36142          2.4138         3.53684 
        1.25789         3.30843         2.38616         3.50353 
        1.26402         3.28259         2.35901          3.4662 
        1.27014         3.25206         2.33234         3.44413 
        1.27628         3.21657         2.30601         3.41637 
        1.28244         3.19313         2.28004         3.37951 
        1.28858         3.16757         2.25451         3.34727 
        1.29471         3.12145         2.22942         3.31654 
        1.30084         3.09361         2.20474           3.295 
        1.30697         3.07398          2.1804          3.2613 
        1.31312         3.04339         2.15639         3.23178 
        1.31925         3.01351         2.13282         3.21033 
        1.32537         2.98965         2.10963         3.18124 
        1.33151         2.95575          2.0867         3.15228 
        1.33765         2.93156         2.06413         3.12278 
        1.34378         2.91179         2.04193         3.10076 
        1.34992         2.88275         2.02005         3.07182 
        1.35606         2.85782         1.99844         3.03684 
         1.3622         2.83228         1.97719         3.01408 
        1.36833         2.79929         1.95629         2.99981 
        1.37445         2.77114         1.93571         2.97161 
        1.38059           2.748         1.91537         2.94436 
        1.38675         2.72537         1.89526         2.91391 
        1.39288         2.71005         1.87553         2.89792 
        1.39901         2.67403         1.85609         2.87405 
        1.40515         2.65388         1.83688         2.84693 
         1.4113         2.63571         1.81795         2.82628 
        1.41742         2.60652         1.79936         2.80683 
        1.42355         2.58368         1.78099         2.77246 
         1.4297         2.56747         1.76283         2.76222 
        1.43585         2.54464         1.74493         2.74371 
        1.44198         2.52048         1.72735         2.71044 
        1.44809         2.50439         1.71004         2.69655 
        1.45423         2.48108         1.69291         2.66859 
        1.46036         2.46256         1.67604         2.64861 
        1.46649         2.43165          1.6594         2.63303 
        1.47263         2.42328         1.64297         2.61185 
        1.47877          2.4043         1.62677         2.58729 
        1.48491         2.37672         1.61076         2.57084 
        1.49104         2.36007           1.595         2.54723 
        1.49718         2.34198         1.57945         2.53019 
        1.50333         2.32063         1.56407         2.51229 
        1.50947         2.29967         1.54894         2.49139 
         1.5156         2.28383         1.53402         2.47422 
        1.52172         2.26668         1.51931         2.45907 
        1.52787         2.24864         1.50475         2.43314 
          1.534         2.23111         1.49041         2.41596 
        1.54013         2.21161         1.47627         2.39923 
        1.54627         2.19404         1.46229         2.37995 
        1.55241         2.17297         1.44848         2.36292 
        1.55855         2.16029         1.43488         2.34342 
        1.56467         2.14459         1.42148         2.33037 
         1.5708         2.12585         1.40822         2.31174 
        1.57695         2.10473         1.39511         2.29393 
        1.58308         2.08711          1.3822         2.28255 
        1.58922            2.08         1.36944         2.26515 
        1.59535         2.05712         1.35685         2.24896 
         1.6015         2.04001          1.3444          2.2316 
        1.60764         2.02989         1.33212         2.21699 
        1.61376         2.00926         1.32002         2.20516 
        1.61989         1.99383         1.30806         2.18742 
        1.62604         1.97711         1.29622         2.17184 
        1.63218         1.96895         1.28454         2.15833 
        1.63831         1.95557         1.27302         2.14297 
        1.64444         1.93743         1.26165         2.12616 
        1.65059          1.9273         1.25038         2.11194 
        1.65673         1.90605         1.23927         2.09829 
        1.66285         1.89265         1.22832         2.08322 
        1.66898         1.88042         1.21751         2.06742 
        1.67512           1.863          1.2068         2.05498 
        1.68127         1.84967         1.19621         2.04484 
         1.6874          1.8436         1.18577         2.03268 
        1.69353          1.8219         1.17546         2.01555 
        1.69967         1.81069         1.16525         1.99973 
        1.70581         1.80259         1.15517         1.98959 
        1.71193         1.78029         1.14524         1.97999 
        1.71806         1.77159         1.13541         1.96271 
        1.72421         1.76172         1.12568         1.94877 
        1.73035         1.74438         1.11607         1.93749 
        1.73649           1.737         1.10657         1.92514 
        1.74262         1.72342          1.0972         1.91198 
        1.74876         1.71069         1.08792         1.90209 
        1.75489         1.69846         1.07877         1.89027 
        1.76101         1.68372         1.06974         1.87418 
        1.76715         1.67672         1.06079         1.86186 
        1.77329         1.66182         1.05193         1.85146 
        1.77943         1.65174         1.04317         1.84013 
        1.78557         1.64124         1.03453         1.82811 
        1.79171          1.6314         1.02598         1.81694 
        1.79785         1.61933         1.01752         1.80609 
        1.80399         1.60763         1.00916         1.79442 
        1.81012         1.59551         1.00091         1.78283 
        1.81625         1.58165        0.992756         1.77164 
        1.82239         1.57461        0.984678         1.76208 
        1.82853         1.56331        0.976695         1.75498 
        1.83466         1.54913        0.968807         1.74551 
        1.84078         1.54068        0.961015         1.73286 
        1.84692          1.5307        0.953297         1.72039 
        1.85306         1.52262        0.945654         1.70857 
         1.8592         1.50985        0.938106         1.69887 
        1.86533         1.50132        0.930646         1.69096 
        1.87147         1.49122        0.923258         1.68087 
