# k  (h/Mpc)    Pcb(k)  (Mpc/h)^3    Pcb_linear(k) (Mpc/h)^3    Pcb_NL(k) (Mpc/h)^3   ShotnoiseSubtracted = false
     0.00783031         418.834         421.912         420.281 
       0.013688         524.057         528.623         526.471 
       0.019231         540.747         542.625         540.093 
      0.0249154         507.575         507.842         506.205 
      0.0312784         443.319         443.581           443.1 
      0.0375637         377.724         378.103         377.981 
      0.0433917         327.872         327.209         327.395 
      0.0492413         289.089         288.985         289.245 
      0.0555754         261.317          260.56         260.684 
      0.0619321         240.203         241.169           241.2 
       0.067871         226.591         226.753         226.611 
      0.0738098         212.303         212.386          212.09 
      0.0800417         195.496         195.334         195.052 
      0.0862327         176.221         176.315         176.158 
      0.0921407         157.445         157.558         157.523 
      0.0982031         139.878         139.542         139.671 
       0.104506         123.604         123.762         124.011 
       0.110769         111.799         111.843         112.065 
       0.116806         104.116         103.755         103.922 
       0.122832         98.2044         98.2305         98.3725 
       0.129052         94.1972         94.0467         94.1198 
       0.135211         90.5102         90.2516         90.2801 
       0.141259         85.9981          86.013         86.0426 
       0.147318         80.6296         80.8955         80.9841 
       0.153489         74.8611         74.9215         74.9956 
       0.159709         68.7537         68.6331         68.7937 
       0.165845         62.5697         62.7786         63.0565 
       0.171974          58.087         57.7637         58.0478 
       0.178125         54.0852         53.8033         54.1406 
       0.184229         51.0113         50.9075         51.2312 
        0.19034         49.1459         48.8089         49.0966 
       0.196428          47.402         47.1729         47.3868 
       0.202534         45.5259         45.6355         45.8382 
       0.208729         44.0254          43.904         44.0928 
       0.214876         42.1669         41.8844          42.136 
       0.220989         39.5623          39.606         39.8901 
       0.227147         37.4962         37.1852         37.4851 
        0.23329         35.2048         34.8383         35.1972 
       0.239377         33.1746          32.749         33.1374 
       0.245482         31.3753         30.9882          31.345 
       0.251667         29.8289         29.5629         29.9416 
       0.257832         28.8737         28.4445         28.8028 
       0.263955         27.8032         27.5275         27.8564 
       0.270079         26.9323         26.6859          26.995 
        0.27624         25.9504          25.818         26.1063 
       0.282372         25.0292         24.8743         25.1846 
        0.28843         24.1911         23.8577         24.1802 
       0.294538         23.0821         22.7808         23.1195 
       0.300721         21.9079         21.6961         22.0612 
        0.30691          21.031         20.6755         21.0508 
       0.313033          20.095         19.7732         20.1404 
       0.319153         19.4762         18.9958         19.3756 
       0.325316         18.5931         18.3292         18.7132 
        0.33145          18.007         17.7541         18.1135 
       0.337538         17.5153         17.2334          17.577 
       0.343633         17.0409          16.727          17.064 
       0.349808         16.4786         16.2047         16.5528 
       0.355968         15.9077         15.6624         16.0472 
       0.362074         15.4349         15.1104          15.479 
       0.368217         14.8686         14.5531         14.8973 
       0.374374         14.4187         14.0133         14.3816 
       0.380519         13.8169         13.5088         13.8663 
       0.386598         13.3359          13.053         13.4188 
       0.392688         12.8995         12.6424         13.0053 
        0.39888           12.57         12.2643         12.6224 
       0.405048         12.2338         11.9177         12.2536 
       0.411186         11.8814           11.59         11.9532 
       0.417313         11.5589         11.2689         11.6172 
       0.423458         11.1897         10.9479         11.3007 
       0.429607         10.9343         10.6255         10.9672 
       0.435692         10.6394         10.3077         10.6607 
       0.441815         10.2773         9.99495         10.3647 
       0.447964         9.92825         9.69327         10.0506 
       0.454126         9.70231         9.40702         9.75946 
       0.460267         9.48845         9.14068          9.5015 
       0.466387         9.20828          8.8935         9.23776 
        0.47254         8.99851         8.65998         9.00645 
       0.478662         8.75084         8.43913         8.77745 
       0.484765         8.53968         8.22717         8.56409 
       0.490885         8.30145         8.01956         8.37697 
       0.497035         8.07234         7.81382         8.17475 
       0.503198         7.90144         7.61089         7.94571 
       0.509342         7.66599         7.41307         7.75491 
       0.515458         7.51137         7.22171         7.57778 
       0.521598         7.32679         7.03639         7.36738 
       0.527764         7.18203         6.85837         7.18632 
       0.533884          6.9542         6.69043         7.01739 
           0.54         6.81074         6.53066         6.85211 
       0.546137         6.62292           6.377         6.70564 
       0.552299         6.49031         6.22828          6.5354 
       0.558452         6.34255         6.08445         6.39511 
       0.564573         6.21412         5.94529         6.27619 
       0.570708         6.07371         5.80906          6.1327 
       0.576825         5.94291         5.67623         5.99341 
       0.582926         5.79847         5.54695         5.86851 
       0.589034         5.69148         5.42126         5.75138 
       0.595184         5.58558         5.29902         5.59962 
       0.601379         5.43724         5.18042         5.50264 
       0.607522         5.32135         5.06709         5.38219 
       0.613639         5.19305          4.9581         5.26777 
       0.619772         5.10927         4.85237         5.17015 
       0.625918         4.99868         4.74967         5.05595 
       0.632068         4.90934         4.64992         4.95045 
       0.638161         4.80228         4.55385          4.8536 
         0.6443         4.70242         4.45958         4.75315 
       0.650464         4.60327         4.36734         4.67215 
       0.656582         4.53675         4.27809         4.57763 
       0.662703         4.44673         4.19115         4.48538 
       0.668861          4.3311         4.10614         4.40797 
       0.675024          4.2553         4.02355         4.31739 
       0.681124         4.22088         3.94431         4.23351 
       0.687237         4.11734         3.86732         4.14573 
       0.693381         4.01372         3.79218         4.06492 
       0.699536         3.96797           3.719         3.99421 
       0.705665         3.89163         3.64808         3.93805 
       0.711789         3.80193         3.57898         3.86263 
       0.717957         3.73165          3.5111         3.78557 
        0.72409          3.6726         3.44525         3.72141 
       0.730186         3.62701         3.38144         3.64976 
       0.736317         3.54314         3.31889          3.5836 
       0.742472         3.49315          3.2577         3.53464 
       0.748622         3.43435         3.19816         3.47379 
        0.75476         3.35432         3.14032         3.40503 
       0.760888         3.31376         3.08405         3.34979 
       0.767043         3.22524           3.029         3.29693 
       0.773185         3.18375         2.97543         3.24505 
       0.779291         3.15522         2.92349         3.19076 
       0.785407         3.08883         2.87273         3.13481 
       0.791564         3.03749         2.82284          3.0844 
       0.797719          2.9846         2.77414         3.02655 
       0.803834         2.93778         2.72689         2.98116 
       0.809972         2.88729         2.68056         2.94202 
       0.816124          2.8408         2.63521         2.88702 
       0.822261         2.79998         2.59102         2.84015 
       0.828378          2.7501         2.54799         2.79673 
       0.834502         2.70768         2.50591         2.74982 
       0.840667         2.67329         2.46451         2.70991 
       0.846816          2.6249         2.42419         2.67596 
       0.852925         2.58026         2.38503         2.63118 
       0.859047         2.54177         2.34667         2.59764 
       0.865192         2.50275         2.30903         2.55433 
       0.871341         2.46795         2.27221          2.5154 
       0.877463         2.42411         2.23636         2.47495 
       0.883569         2.38997         2.20139         2.44301 
       0.889708         2.35923         2.16699         2.40719 
       0.895864         2.32415         2.13324         2.36949 
       0.902008         2.28125         2.10028         2.33634 
       0.908149         2.25328         2.06804         2.30321 
       0.914301         2.22492         2.03643         2.26853 
       0.920448         2.19377         2.00551         2.23396 
       0.926574         2.16986         1.97534         2.20622 
       0.932687         2.13394         1.94586         2.16765 
       0.938823         2.09327         1.91688         2.14786 
       0.944975         2.07307         1.88843         2.10978 
       0.951105         2.03192         1.86066         2.08133 
       0.957225         2.00951          1.8335         2.05804 
       0.963368         1.98703         1.80679          2.0267 
       0.969511          1.9617         1.78062          2.0005 
       0.975621         1.92774         1.75511         1.96669 
       0.981748         1.89242         1.73004         1.94169 
       0.987916          1.8719          1.7053         1.92296 
        0.99406         1.85366         1.68115         1.89863 
        1.00019         1.82739         1.65751         1.87413 
        1.00632         1.80901         1.63435         1.84585 
        1.01246         1.78105         1.61161         1.82127 
        1.01859         1.75795         1.58933         1.79914 
        1.02471         1.72776         1.56751         1.77542 
        1.03085          1.7073         1.54602         1.74933 
        1.03698         1.68835         1.52498         1.72728 
        1.04314         1.66711         1.50425         1.70672 
        1.04929         1.64828         1.48395         1.68577 
        1.05541         1.61999         1.46412         1.66732 
        1.06154         1.60531         1.44459         1.64656 
        1.06769         1.58823          1.4254         1.62638 
        1.07382         1.56391         1.40662         1.60541 
        1.07993         1.54369         1.38822         1.58517 
        1.08607         1.52796         1.37008         1.56759 
        1.09222         1.50435         1.35224         1.54567 
        1.09836         1.49308         1.33474         1.52889 
        1.10449         1.46592         1.31758         1.51158 
        1.11063         1.44956          1.3007         1.49004 
        1.11677         1.43522         1.28412         1.47533 
         1.1229         1.41254         1.26787         1.45877 
        1.12903         1.40183         1.25188         1.44069 
        1.13518         1.38082         1.23615         1.42437 
        1.14131         1.36634          1.2207         1.40749 
        1.14745         1.35214         1.20553         1.38835 
        1.15359          1.3346         1.19061         1.37584 
        1.15973         1.31985         1.17594         1.36052 
        1.16584         1.30293         1.16159         1.34333 
        1.17197         1.28628         1.14745         1.32909 
        1.17811         1.27127         1.13351         1.31535 
        1.18424           1.257         1.11984         1.29793 
        1.19038         1.24132         1.10636         1.28412 
        1.19652         1.23173          1.0931         1.27168 
        1.20267         1.21972         1.08007         1.25364 
        1.20881         1.20006         1.06725         1.24182 
        1.21495         1.18947         1.05465         1.23219 
        1.22108         1.17685         1.04227         1.21601 
         1.2272         1.15918         1.03011         1.20072 
        1.23334         1.14974         1.01812          1.1898 
        1.23949         1.13828          1.0063         1.17945 
        1.24562         1.12524        0.994693         1.16615 
        1.25174         1.11402         0.98329         1.15147 
        1.25789         1.09802         0.97203         1.13922 
        1.26402          1.0871        0.960969         1.12715 
        1.27014         1.07285        0.950107         1.11612 
        1.27628         1.06488        0.939381         1.10408 
        1.28244         1.05369        0.928801         1.09205 
        1.28858         1.04041        0.918398         1.07941 
        1.29471         1.02847        0.908179         1.06919 
        1.30084          1.0194        0.898126         1.06151 
        1.30697         1.01167         0.88821          1.0497 
        1.31312        0.999478         0.87843         1.03852 
        1.31925        0.989159        0.868829         1.02983 
        1.32537        0.979257        0.859381         1.01907 
        1.33151        0.967992        0.850041         1.00873 
        1.33765        0.958442        0.840845        0.998779 
        1.34378        0.947368        0.831804        0.989545 
        1.34992        0.941031         0.82289        0.979857 
        1.35606        0.929498        0.814087        0.967771 
         1.3622        0.920936        0.805429        0.959163 
        1.36833         0.91174        0.796918        0.951643 
        1.37445         0.90235        0.788534        0.942572 
        1.38059        0.893288        0.780246        0.932863 
        1.38675        0.884473        0.772057        0.922741 
        1.39288        0.875708        0.764019        0.914606 
        1.39901        0.867207        0.756099        0.906427 
        1.40515        0.857769        0.748273         0.89666 
         1.4113        0.853205        0.740562        0.889204 
        1.41742        0.842129        0.732989        0.883458 
        1.42355        0.831683        0.725508        0.870724 
         1.4297        0.827188        0.718109        0.866542 
        1.43585        0.817257        0.710817         0.85796 
        1.44198        0.810525        0.703654        0.846503 
        1.44809        0.802004        0.696604        0.842465 
        1.45423        0.795212        0.689624        0.831465 
        1.46036          0.7877        0.682753        0.824853 
        1.46649        0.778908        0.675973        0.819582 
        1.47263        0.771861        0.669281        0.811322 
        1.47877        0.768642        0.662682        0.803175 
        1.48491        0.756057        0.656162        0.797624 
        1.49104        0.753159        0.649743        0.788593 
        1.49718        0.743173        0.643406        0.783688 
        1.50333        0.738067        0.637143        0.774379 
        1.50947        0.731841        0.630977        0.766993 
         1.5156        0.724483        0.624902        0.762057 
        1.52172         0.71878        0.618907         0.75465 
        1.52787        0.710572        0.612978        0.747602 
          1.534        0.706293        0.607135        0.742097 
        1.54013        0.699162        0.601374        0.735634 
        1.54627        0.692623        0.595678        0.728625 
        1.55241        0.685784        0.590055        0.722326 
        1.55855        0.680228        0.584513        0.716404 
        1.56467        0.674489        0.579057        0.710883 
         1.5708        0.668033        0.573656        0.703717 
        1.57695         0.66138        0.568315        0.697656 
        1.58308        0.654652        0.563056        0.693271 
        1.58922        0.651284        0.557859        0.687198 
        1.59535        0.643851         0.55273        0.680901 
         1.6015        0.638276        0.547658        0.674647 
        1.60764        0.633359        0.542653        0.669801 
        1.61376        0.627507        0.537724        0.665714 
        1.61989        0.622538        0.532852        0.659823 
        1.62604        0.615925         0.52803        0.654226 
        1.63218        0.612653         0.52327        0.649247 
        1.63831        0.606165        0.518581        0.643884 
        1.64444        0.601613        0.513947        0.637842 
        1.65059        0.596336        0.509358         0.63258 
        1.65673        0.590882        0.504831        0.628025 
        1.66285        0.586412        0.500371          0.6231 
        1.66898        0.581872        0.495964        0.617443 
        1.67512        0.575233        0.491602        0.612675 
        1.68127        0.570271        0.487288         0.60836 
         1.6874        0.567465        0.483036        0.603898 
        1.69353        0.561777        0.478836        0.598934 
        1.69967        0.557647        0.474677        0.593668 
        1.70581        0.553748         0.47057        0.589432 
        1.71193        0.549011        0.466526        0.585486 
        1.71806        0.544464        0.462522        0.580093 
        1.72421        0.539649        0.458556        0.575954 
        1.73035        0.533721        0.454642         0.57154 
        1.73649        0.532384        0.450774        0.566176 
        1.74262         0.52595        0.446955        0.562021 
        1.74876        0.522931        0.443177        0.558762 
        1.75489        0.518836        0.439451         0.55481 
        1.76101         0.51359        0.435769        0.549954 
        1.76715        0.510083        0.432124        0.546058 
        1.77329        0.506181        0.428516        0.542343 
        1.77943        0.501974        0.424948         0.53808 
        1.78557         0.49954        0.421426        0.533482 
        1.79171        0.495239        0.417943        0.529083 
        1.79785        0.490625        0.414499        0.525333 
        1.80399        0.485689        0.411095        0.521911 
        1.81012        0.482955        0.407733        0.517039 
        1.81625        0.479759         0.40441        0.513072 
        1.82239        0.476208         0.40112        0.510819 
        1.82853        0.471902        0.397868        0.507801 
        1.83466        0.468056        0.394655        0.503632 
        1.84078        0.463982         0.39148        0.499322 
        1.84692        0.461223        0.388336        0.496056 
        1.85306        0.458111        0.385223        0.492136 
         1.8592        0.454033        0.382148        0.488111 
        1.86533        0.451379        0.379109        0.485207 
        1.87147         0.44639          0.3761        0.481683 
