#  k  (h/Mpc)          P(k)  (Mpc/h)^3     P_linear(k)   P_NL(k) (Mpc/h)^3
     0.00783031          4559.4         4590.74         4590.74 
       0.013688         5261.52         5345.98         5345.98 
       0.019231         5117.33         5155.98         5155.98 
      0.0249154         4568.14         4551.88         4551.88 
      0.0312784         3767.79         3770.82         3770.82 
      0.0375637         3100.98         3114.96         3114.96 
      0.0433917         2682.58         2675.42         2675.42 
      0.0492413         2376.73         2380.75         2380.75 
      0.0555754         2177.82         2169.58         2169.58 
      0.0619321         1975.84         2003.03         2003.03 
       0.067871         1836.65         1843.15         1843.15 
      0.0738098         1663.18         1662.13         1662.13 
      0.0800417         1466.29         1457.82         1457.82 
      0.0862327         1268.66          1263.4          1263.4 
      0.0921407         1113.85          1106.3          1106.3 
      0.0982031         1000.54         984.421         984.421 
       0.104506          902.65         898.391         898.391 
       0.110769         848.701         842.788         842.788 
       0.116806         816.282          802.84          802.84 
       0.122832         768.828         763.322         763.322 
       0.129052          723.16         714.665         714.665 
       0.135211         673.289         657.475         657.475 
       0.141259         609.412         597.297         597.297 
       0.147318         549.004         539.941         539.941 
       0.153489         503.721         490.444         490.444 
       0.159709         471.177         452.441         452.441 
       0.165845          435.75          425.85          425.85 
       0.171974         425.518         406.827         406.827 
       0.178125         408.367         391.012         391.012 
       0.184229         385.714         374.802         374.802 
        0.19034         371.396         355.928         355.928 
       0.196428         351.385         334.382         334.382 
       0.202534         322.902         311.506         311.506 
       0.208729         308.086         289.188         289.188 
       0.214876         291.189          269.78          269.78 
       0.220989          270.16         254.077         254.077 
       0.227147          262.56         241.743         241.743 
        0.23329         252.596         231.987         231.987 
       0.239377         245.808         223.558         223.558 
       0.245482         234.286         215.177         215.177 
       0.251667         223.441         206.055         206.055 
       0.257832         218.122         196.212         196.212 
       0.263955         204.448         186.076         186.076 
       0.270079         194.622         176.211         176.211 
        0.27624         184.932         167.134         167.134 
       0.282372          178.16         159.282         159.282 
        0.28843         175.299         152.698         152.698 
       0.294538         167.207             147             147 
       0.300721         160.334         141.821         141.821 
        0.30691         157.231          136.84          136.84 
       0.313033         150.288         131.866         131.866 
       0.319153         147.046         126.757         126.757 
       0.325316          140.93         121.561         121.561 
        0.33145         135.816         116.499         116.499 
       0.337538         130.817         111.761         111.761 
       0.343633         126.429         107.421         107.421 
       0.349808         122.161         103.466         103.466 
       0.355968         118.658         99.9124         99.9124 
       0.362074         115.978         96.6647         96.6647 
       0.368217         112.996         93.5641         93.5641 
       0.374374         110.018         90.5243         90.5243 
       0.380519         105.262          87.516          87.516 
       0.386598         102.505         84.5736         84.5736 
       0.392688         99.1174         81.6897         81.6897 
        0.39888         97.1377         78.8792         78.8792 
       0.405048         94.5756          76.243          76.243 
       0.411186         92.3464         73.7929         73.7929 
       0.417313         89.7272         71.5171         71.5171 
       0.423458         87.2977         69.3759         69.3759 
       0.429607         85.4035         67.3345         67.3345 
       0.435692         83.9039         65.3863         65.3863 
       0.441815         80.9909         63.4793         63.4793 
       0.447964          78.253         61.6061         61.6061 
       0.454126         76.7797         59.7793         59.7793 
       0.460267         75.9387         58.0235         58.0235 
       0.466387         73.8255         56.3482         56.3482 
        0.47254           72.76         54.7419         54.7419 
       0.478662         70.1119         53.2237         53.2237 
       0.484765         68.8174         51.7845         51.7845 
       0.490885         66.9736         50.4037         50.4037 
       0.497035         66.1849         49.0658         49.0658 
       0.503198         64.6057         47.7678         47.7678 
       0.509342         62.8115         46.5136         46.5136 
       0.515458         61.8012         45.3032         45.3032 
       0.521598         60.2307         44.1257         44.1257 
       0.527764         59.4334         42.9833         42.9833 
       0.533884         58.5669         41.8918         41.8918 
           0.54         56.9918         40.8446         40.8446 
       0.546137         55.3865         39.8354         39.8354 
       0.552299          54.378         38.8596         38.8596 
       0.558452         53.2386         37.9187         37.9187 
       0.564573         52.8245         37.0122         37.0122 
       0.570708         51.2453         36.1319         36.1319 
       0.576825         50.6682         35.2815         35.2815 
       0.582926         49.9028         34.4599         34.4599 
       0.589034         48.8398         33.6629         33.6629 
       0.595184         48.1033         32.8856         32.8856 
       0.601379         46.8596         32.1279         32.1279 
       0.607522         45.9821         31.4008         31.4008 
       0.613639         45.4546         30.7004         30.7004 
       0.619772         44.4968         30.0207         30.0207 
       0.625918         43.8213          29.361          29.361 
       0.632068         43.2446          28.721          28.721 
       0.638161          42.329         28.1058         28.1058 
         0.6443         41.8628         27.5037         27.5037 
       0.650464         40.8021         26.9166         26.9166 
       0.656582         40.5576         26.3504         26.3504 
       0.662703         39.9153         25.8002         25.8002 
       0.668861         38.9404         25.2627         25.2627 
       0.675024         38.5995         24.7403         24.7403 
       0.681124         38.1504         24.2383         24.2383 
       0.687237         37.3447         23.7496         23.7496 
       0.693381         36.7979         23.2724         23.2724 
       0.699536         36.4321         22.8076         22.8076 
       0.705665          35.767         22.3576         22.3576 
       0.711789         35.1662         21.9202         21.9202 
       0.717957         34.5335         21.4915         21.4915 
        0.72409         34.1544         21.0766         21.0766 
       0.730186          33.921         20.6751         20.6751 
       0.736317         33.2429         20.2818         20.2818 
       0.742472         32.8189         19.8973         19.8973 
       0.748622         32.2562         19.5232         19.5232 
        0.75476          31.632         19.1595         19.1595 
       0.760888         31.5589         18.8056         18.8056 
       0.767043         30.8952         18.4594         18.4594 
       0.773185         30.5035         18.1226         18.1226 
       0.779291         30.0977         17.7962         17.7962 
       0.785407         29.6739         17.4774         17.4774 
       0.791564         29.5722         17.1644         17.1644 
       0.797719         28.8943         16.8593         16.8593 
       0.803834         28.7254         16.5636         16.5636 
       0.809972         28.2462         16.2739         16.2739 
       0.816124          27.925         15.9906         15.9906 
       0.822261         27.5411         15.7148         15.7148 
       0.828378         27.3388         15.4463         15.4463 
       0.834502         26.9789         15.1839         15.1839 
       0.840667         26.6996         14.9259         14.9259 
       0.846816         26.2026         14.6746         14.6746 
       0.852925         26.0274         14.4308         14.4308 
       0.859047         25.8129          14.192          14.192 
       0.865192         25.3752         13.9578         13.9578 
       0.871341         25.0731         13.7288         13.7288 
       0.877463         24.7845         13.5059         13.5059 
       0.883569         24.6341         13.2886         13.2886 
       0.889708         24.2812          13.075          13.075 
       0.895864         23.9742         12.8655         12.8655 
       0.902008         23.7135         12.6611         12.6611 
       0.908149         23.4252         12.4612         12.4612 
       0.914301         23.2294         12.2654         12.2654 
       0.920448         22.9675         12.0739         12.0739 
       0.926574         22.6656         11.8873         11.8873 
       0.932687         22.4126         11.7049         11.7049 
       0.938823         22.0992         11.5258         11.5258 
       0.944975         21.9182           11.35           11.35 
       0.951105         21.7268         11.1785         11.1785 
       0.957225         21.5445         11.0108         11.0108 
       0.963368         21.2325          10.846          10.846 
       0.969511         21.0409         10.6846         10.6846 
       0.975621         20.8634         10.5274         10.5274 
       0.981748         20.5879         10.3729         10.3729 
       0.987916         20.4453         10.2205         10.2205 
        0.99406         20.1663         10.0718         10.0718 
        1.00019         20.0332         9.92631         9.92631 
        1.00632         19.8521         9.78385         9.78385 
        1.01246         19.6349         9.64399         9.64399 
        1.01859         19.4225         9.50708         9.50708 
        1.02471         19.2279           9.373           9.373 
        1.03085         19.1162         9.24104         9.24104 
        1.03698         18.9577          9.1119          9.1119 
        1.04314         18.7271         8.98468         8.98468 
        1.04929         18.4763         8.86019         8.86019 
        1.05541         18.4053         8.73855         8.73855 
        1.06154         18.2546         8.61891         8.61891 
        1.06769         17.9774         8.50132         8.50132 
        1.07382         17.8479         8.38632         8.38632 
        1.07993         17.6909         8.27371         8.27371 
        1.08607         17.5437         8.16271         8.16271 
        1.09222         17.3795         8.05363         8.05363 
        1.09836         17.1956         7.94668         7.94668 
        1.10449         17.1109          7.8418          7.8418 
        1.11063         16.9485          7.7387          7.7387 
        1.11677         16.8638         7.63749         7.63749 
         1.1229         16.6709         7.53826         7.53826 
        1.12903         16.4967         7.44072         7.44072 
        1.13518         16.4173         7.34482         7.34482 
        1.14131         16.2692         7.25066         7.25066 
        1.14745         16.0579         7.15821         7.15821 
        1.15359         15.8877         7.06736         7.06736 
        1.15973         15.8031         6.97805         6.97805 
        1.16584          15.661         6.89068         6.89068 
        1.17197         15.4808         6.80468         6.80468 
        1.17811          15.401         6.71989         6.71989 
        1.18424         15.2331         6.63679         6.63679 
        1.19038          15.174         6.55485         6.55485 
        1.19652         14.9873         6.47434         6.47434 
        1.20267         14.9307         6.39517         6.39517 
        1.20881         14.7572         6.31734         6.31734 
        1.21495         14.6802         6.24093         6.24093 
        1.22108         14.5991         6.16579         6.16579 
         1.2272         14.4614         6.09207         6.09207 
        1.23334         14.3709         6.01938         6.01938 
        1.23949         14.2329         5.94769         5.94769 
        1.24562         14.0703         5.87738         5.87738 
        1.25174         14.0264          5.8083          5.8083 
        1.25789         13.9283         5.74012         5.74012 
        1.26402         13.8155         5.67316         5.67316 
        1.27014         13.7277         5.60743         5.60743 
        1.27628          13.578         5.54254         5.54254 
        1.28244         13.5581         5.47855         5.47855 
        1.28858         13.3962         5.41566         5.41566 
        1.29471         13.2604          5.3539          5.3539 
        1.30084         13.1652         5.29316         5.29316 
        1.30697         13.1035         5.23326         5.23326 
        1.31312         12.9956         5.17421         5.17421 
        1.31925         12.9142         5.11625         5.11625 
        1.32537         12.7929         5.05924         5.05924 
        1.33151         12.7008          5.0029          5.0029 
        1.33765         12.6579         4.94744         4.94744 
        1.34378         12.5691         4.89293         4.89293 
        1.34992         12.4512         4.83921         4.83921 
        1.35606         12.3403         4.78618         4.78618 
         1.3622         12.2606         4.73403         4.73403 
        1.36833         12.2212         4.68279         4.68279 
        1.37445         12.1233         4.63233         4.63233 
        1.38059         12.0285         4.58245         4.58245 
        1.38675         11.9604          4.5332          4.5332 
        1.39288          11.849         4.48486         4.48486 
        1.39901         11.7682         4.43725         4.43725 
        1.40515         11.7068         4.39022         4.39022 
         1.4113         11.6263         4.34389         4.34389 
        1.41742         11.5651         4.29841         4.29841 
        1.42355         11.4572         4.25349         4.25349 
         1.4297         11.3838         4.20908         4.20908 
        1.43585         11.3127         4.16532         4.16532 
        1.44198         11.2735         4.12234         4.12234 
        1.44809         11.1821         4.08006         4.08006 
        1.45423         11.1025         4.03821         4.03821 
        1.46036         11.0274         3.99702         3.99702 
        1.46649         10.9568         3.95639         3.95639 
        1.47263         10.8885         3.91629         3.91629 
        1.47877         10.8136         3.87676         3.87676 
        1.48491         10.7529         3.83772         3.83772 
        1.49104         10.6812         3.79929         3.79929 
        1.49718         10.6357         3.76136         3.76136 
        1.50333         10.5785         3.72388         3.72388 
        1.50947         10.4967         3.68699         3.68699 
         1.5156         10.4449         3.65066         3.65066 
        1.52172         10.3549         3.61481         3.61481 
        1.52787         10.3335         3.57937         3.57937 
          1.534         10.2579         3.54445         3.54445 
        1.54013          10.202         3.51003         3.51003 
        1.54627         10.1078           3.476           3.476 
        1.55241         10.0305         3.44242         3.44242 
        1.55855         10.0004         3.40933         3.40933 
        1.56467         9.95251         3.37676         3.37676 
         1.5708         9.89334         3.34453         3.34453 
        1.57695          9.8354         3.31267         3.31267 
        1.58308         9.76005          3.2813          3.2813 
        1.58922         9.71149         3.25031         3.25031 
        1.59535         9.65908         3.21973         3.21973 
         1.6015         9.56667          3.1895          3.1895 
        1.60764          9.5266         3.15967         3.15967 
        1.61376         9.48748         3.13031         3.13031 
        1.61989         9.40616         3.10129         3.10129 
        1.62604         9.37854         3.07258         3.07258 
        1.63218         9.32912         3.04425         3.04425 
        1.63831         9.25613         3.01633         3.01633 
        1.64444         9.19611         2.98876         2.98876 
        1.65059         9.14632         2.96147         2.96147 
        1.65673         9.11264         2.93454         2.93454 
        1.66285         9.03171         2.90802         2.90802 
        1.66898         9.01372         2.88183         2.88183 
        1.67512         8.98429          2.8559          2.8559 
        1.68127         8.90277         2.83027         2.83027 
         1.6874         8.88079         2.80501         2.80501 
        1.69353           8.777         2.78007         2.78007 
        1.69967          8.7517         2.75538         2.75538 
        1.70581          8.7101         2.73099         2.73099 
        1.71193         8.65683           2.707           2.707 
        1.71806          8.6157         2.68324         2.68324 
        1.72421         8.56505         2.65971         2.65971 
        1.73035         8.52715          2.6365          2.6365 
        1.73649         8.49401         2.61357         2.61357 
        1.74262         8.41905         2.59092         2.59092 
        1.74876          8.3955         2.56853         2.56853 
        1.75489         8.35378         2.54645         2.54645 
        1.76101         8.28018         2.52464         2.52464 
        1.76715         8.27258         2.50305         2.50305 
        1.77329         8.20875         2.48168         2.48168 
        1.77943         8.15718         2.46056         2.46056 
        1.78557         8.15267         2.43971         2.43971 
        1.79171         8.08432          2.4191          2.4191 
        1.79785          8.0441         2.39872         2.39872 
        1.80399         8.00302         2.37858         2.37858 
        1.81012         7.96285          2.3587          2.3587 
        1.81625         7.91919         2.33905         2.33905 
        1.82239         7.87834         2.31959         2.31959 
        1.82853         7.82919         2.30037         2.30037 
        1.83466         7.77934         2.28138         2.28138 
        1.84078         7.74682         2.26263         2.26263 
        1.84692         7.73829         2.24405         2.24405 
        1.85306         7.68779         2.22567         2.22567 
         1.8592         7.65679         2.20751         2.20751 
        1.86533         7.59295         2.18957         2.18957 
        1.87147         7.56495          2.1718          2.1718 
        1.87761         7.53901         2.15423         2.15423 
